#wavelength	surface flux
0.6450077295303345	1456.730843690089
0.6472567915916443	2326.6253727113663
0.6494921445846558	3116.60136590192
0.6517150402069092	3688.340718065866
0.6539263725280762	4303.75230974833
0.6561272740364075	4976.167535268678
0.6583186388015747	5710.315807560369
0.6605015397071838	6516.647540233281
0.6626768708229065	7382.105153293886
0.6648455858230591	8286.23953493335
0.6670085787773132	9041.050745092445
0.6691668033599854	9152.056063443737
0.6713210344314575	9481.320160023355
0.6734722256660461	11176.672067579748
0.6756211519241333	12952.732639976932
0.6777685880661011	13984.653513435313
0.6799154281616211	14803.48831527355
0.6820623278617859	15511.744571636047
0.6842101216316223	16096.706278772892
0.6863595843315125	16534.89042122095
0.688511312007904	16764.39402571827
0.6906660795211792	16605.211115267015
0.6928245425224304	16168.950174819533
0.6949873566627502	15993.861067368327
0.6971551775932312	15986.367528334918
0.6993286609649658	15615.79009918572
0.7015084028244019	14944.152800705104
0.7036949396133423	14247.688220775439
0.7058889269828796	13557.848968490121
0.7080909013748169	12825.117622523168
0.710301399230957	12037.187275100965
0.712520956993103	11179.108971455209
0.7147500514984131	10113.40243396624
0.7169892191886902	8842.652811294967
0.7192389369010925	7845.691533608833
0.7214996814727783	7203.568093673511
0.723771870136261	6529.1472240637095
0.7260559797286987	5851.405939404088
0.7283523678779602	5307.8770613512515
0.7306615710258484	4873.5796652487215
0.7329838871955872	4575.2621031922245
0.7353196740150452	4334.261986549283
0.7376693487167358	4049.20880425
0.7400332689285278	3774.8549375253488
0.7424117922782898	3536.4182142224145
0.7448052167892456	3321.251602613378
0.7472138404846191	3113.777842739846
0.7496379613876343	2899.3690867248083
0.7520779371261597	2663.841479669553
0.7545340061187744	2387.664390855058
0.7570064663887024	2057.6195539619866
0.7594954967498779	1666.7833708551998
0.7620013952255249	1204.2391159726876
0.7645244002342224	703.9819130305419
0.7670646905899048	367.1907405827304
0.7696225643157959	406.0742967447733
0.7721980810165405	885.0958115420415
0.7747915983200073	1634.1266661481645
0.7774031162261963	2273.272373901781
0.7800329327583313	2838.193250496928
0.7826811671257019	3786.0145456451205
0.7853479981422424	4933.73868511167
0.7880334854125977	5939.455940688828
0.7907378077507019	6716.208906131722
0.7934610247612	7105.94773219478
0.7962033748626709	8237.156701337984
0.7989648580551147	10634.615190691375
0.801745593547821	13102.904200217667
0.8045456409454346	15442.17103832366
0.8073651194572449	17900.316422301228
0.8102040886878967	20201.519491381983
0.8130625486373901	22639.551579238934
0.8159406185150146	26490.23813346883
0.8188382983207703	32021.85088877595
0.8217556476593018	37764.61479319356
0.8246926665306091	44530.08684482096
0.8276493549346924	53051.52754680967
0.8306257724761963	62054.29662280596
0.8336219191551208	72186.85921991593
0.8366377949714661	84334.22319447272
0.8396733403205872	98577.1226492329
0.8427285552024841	115218.57089350335
0.8458034992218018	133675.47521210185
0.8488980531692505	147313.62317941332
0.8520121574401855	159401.5417648871
0.8551458716392517	190374.23426820294
0.8582990765571594	230362.33723767265
0.8614717125892639	261202.07958531842
0.8646637797355652	292559.53247465927
0.8678751587867737	331523.87301413
0.8711057901382446	375652.03768209805
0.8743556141853333	419352.48148671084
0.87762451171875	450630.84966025874
0.8809124231338501	448723.7339202525
0.8842192888259888	425219.6986868317
0.8875449895858765	410562.59797139425
0.8908893465995789	386468.3245718012
0.894252359867096	361308.3224961218
0.8976338505744934	436041.51528674056
0.9010337591171265	629694.1844372803
0.9044519662857056	837945.8030506284
0.9078882932662964	960473.9504470186
0.9113426208496094	997650.7274263571
0.914814829826355	1013941.2329824707
0.9183048605918884	1075026.1258592599
0.9218124747276306	1129458.230799523
0.925337553024292	922789.582827225
0.9288799166679382	499395.6060756353
0.9324395060539246	272019.1332453873
0.9360161423683167	355717.0748878863
0.9396095871925354	545379.8988757352
0.943219780921936	620939.7257548219
0.9468464851379395	573401.5102974753
0.9504896402359009	542152.2358272186
0.9541489481925964	524493.6846506874
0.9578243494033813	503968.69777650473
0.9615156054496765	553101.480137922
0.9652225375175476	750360.9324614718
0.9689450263977051	1028484.2155372059
0.9726828336715698	1213207.6843130449
0.9764357805252075	1338719.5462017783
0.9802037477493286	1489982.3759408377
0.983986496925354	1642088.2951803699
0.9877838492393494	1853115.7404894563
0.9915955662727356	2190262.499691978
0.9954215884208679	2640044.2351004765
0.9992615580558777	3196148.4153051274
1.0031154155731201	3846779.7709215796
1.0069829225540161	4441831.92710904
1.0108637809753418	4862635.683591345
1.0147579908370972	5143056.403230289
1.018665075302124	5352155.894040016
1.022585153579712	5670849.269276021
1.0265177488327026	6181415.205751848
1.0304628610610962	6610398.08900265
1.0344202518463135	6895942.233842786
1.0383895635604858	7357373.588569043
1.0423706769943237	7944673.044742737
1.0463634729385376	8405260.120723464
1.0503677129745483	8805313.023050182
1.0543830394744873	9239102.682912428
1.058409333229065	9578573.967060776
1.0624464750289917	9763727.55955776
1.0664942264556885	9800334.697864208
1.0705522298812866	9719053.619021943
1.0746204853057861	9696341.255253593
1.0786986351013184	9679760.181063851
1.0827864408493042	9392869.360397644
1.086883783340454	8378186.7066506045
1.0909905433654785	6441979.217105862
1.0951062440872192	4278689.276052789
1.0992310047149658	2633363.3130134004
1.10336434841156	1545137.609725148
1.1075061559677124	866499.7289400705
1.1116561889648438	480278.74323464424
1.115814208984375	296595.2439819
1.1199802160263062	271471.22568415443
1.124153733253479	324725.59976111475
1.1283347606658936	367631.098714447
1.1325229406356812	337797.2412542369
1.1367181539535522	409441.1433782039
1.1409201622009277	572165.895880981
1.145128846168518	579814.0184418891
1.1493438482284546	483791.38070293446
1.1535650491714478	379578.7309850504
1.1577922105789185	314161.9697685091
1.1620250940322876	316533.83083917847
1.1662636995315552	381844.02109987533
1.170507550239563	580577.4215322306
1.174756646156311	894936.3855253855
1.1790107488632202	1310021.482994575
1.1832695007324219	1823115.5743558577
1.1875330209732056	2340129.4609756432
1.191800832748413	2937963.762820464
1.1960728168487549	3678952.6021863464
1.2003488540649414	4435331.987936557
1.2046287059783936	5199769.434351712
1.2089121341705322	5856784.906274455
1.2131990194320679	6402841.419779871
1.2174891233444214	7019024.386168638
1.2217823266983032	7694215.829506217
1.2260783910751343	8535391.959478362
1.230377197265625	9540850.189307466
1.2346785068511963	10504325.49487987
1.238982081413269	11310755.66889331
1.2432878017425537	12007493.732989114
1.2475954294204712	12565179.71031434
1.2519049644470215	12908551.193410201
1.256216049194336	13931051.217383157
1.2605286836624146	15359970.793803843
1.2648425102233887	15819627.89378336
1.2691574096679688	15309270.267224442
1.2734732627868652	14197284.788908562
1.2777899503707886	12796335.848555394
1.2821072340011597	11154933.071824614
1.2864248752593994	9399747.674516637
1.2907428741455078	8133273.208735523
1.2950609922409058	7538951.487580958
1.2993791103363037	7105002.904314679
1.303696870803833	6537176.331343055
1.3080145120620728	5947635.913688213
1.3123314380645752	5120790.236721907
1.3166478872299194	4399316.800042492
1.3209635019302368	4045540.875587909
1.3252781629562378	3298002.207162047
1.3295916318893433	1974165.1322137986
1.3339040279388428	798272.0755404414
1.3382149934768677	243781.64151450107
1.3425244092941284	82779.5526654117
1.3468321561813354	32558.711528907847
1.3511382341384888	16601.226936827963
1.3554422855377197	8585.009234290244
1.3597444295883179	6283.610999050623
1.3640443086624146	8830.10890238167
1.3683418035507202	12044.545721719393
1.3726370334625244	18723.885075633967
1.3769296407699585	28349.39264812083
1.381219506263733	26398.64134151848
1.3855066299438477	18095.592636378635
1.3897908926010132	16895.154585791268
1.3940720558166504	17967.573555045077
1.3983501195907593	18798.989464233586
1.4026249647140503	21059.001447797815
1.4068963527679443	22493.161356245728
1.4111642837524414	23655.717057826227
1.4154287576675415	25776.205448939905
1.419689416885376	26629.008411655006
1.4239463806152344	33214.85424781311
1.4281994104385376	54009.986997454354
1.4324485063552856	70136.30972469428
1.436693549156189	72885.98806960344
1.440934419631958	84817.46535045623
1.4451709985733032	117074.1569561597
1.449403166770935	172539.90053838512
1.453631043434143	231955.7030109578
1.4578542709350586	274648.6638292976
1.4620729684829712	271960.7246190353
1.4662868976593018	222551.99190667362
1.4704961776733398	165740.02212455712
1.4747005701065063	138340.55462285908
1.4788999557495117	150928.92045367826
1.4830944538116455	170389.86557699603
1.4872838258743286	180404.8340233742
1.491468071937561	190369.84664242843
1.4956470727920532	224308.26608714907
1.4998208284378052	290914.28303177096
1.5039892196655273	333797.7155211627
1.5081522464752197	309818.52437676984
1.5123097896575928	257762.05533682238
1.5164618492126465	277597.6976598522
1.5206083059310913	413932.92981802387
1.5247491598129272	570326.4179957286
1.5288842916488647	704295.5458074369
1.5330137014389038	839504.9597722288
1.5371372699737549	955911.4185970583
1.541254997253418	1082449.3032918912
1.545366883277893	1247595.3616153353
1.5494728088378906	1431218.138554393
1.5535727739334106	1676953.9403196587
1.5576666593551636	2058836.0124462093
1.561754584312439	2639771.1815975886
1.5658363103866577	3332644.738541123
1.5699119567871094	3813457.703160615
1.5739814043045044	4058428.1269137803
1.5780447721481323	4346088.375087785
1.582101821899414	4651779.492567876
1.5861525535583496	4781982.218395533
1.5901970863342285	4677867.2731500175
1.5942351818084717	4430548.300663902
1.5982669591903687	4079938.0892460095
1.6022924184799194	3561943.852851046
1.606311559677124	2969627.946072406
1.6103241443634033	2417148.875161778
1.6143304109573364	1845000.54017419
1.6183301210403442	1338661.5085297513
1.6223233938217163	1069777.275862172
1.6263102293014526	975001.5535360902
1.6302905082702637	975438.517130687
1.634264349937439	1116130.24527494
1.638231635093689	1355993.1838996245
1.6421923637390137	1453240.4456485715
1.646146535873413	1296384.6958332146
1.6500942707061768	1239664.190002633
1.6540353298187256	1277922.6139523254
1.6579699516296387	1288739.5481762679
1.661897897720337	1301867.575995518
1.6658192873001099	845688.4957806165
1.6697341203689575	347178.97604669
1.6736423969268799	423263.4784800778
1.677544116973877	593215.1690208623
1.6814392805099487	566700.2342543568
1.6853278875350952	495354.0272310945
1.6892099380493164	420879.0457475979
1.6930854320526123	323273.5255679075
1.696954369544983	243726.04483945764
1.7008168697357178	195964.3381584411
1.7046726942062378	201471.946093454
1.708522081375122	290539.83419752
1.712364912033081	410336.63519654964
1.7162011861801147	539617.4877736834
1.7200311422348022	630460.4536103397
1.723854422569275	586089.7264248584
1.7276713848114014	526691.939633725
1.731481909751892	528442.0890523106
1.7352858781814575	555489.1208976096
1.7390835285186768	629028.8588827389
1.7428747415542603	713600.5264058904
1.7466596364974976	755318.1262307765
1.7504380941390991	733106.3835402221
1.7542102336883545	621744.8005856058
1.7579760551452637	497954.7226900724
1.7617355585098267	437826.1530386915
1.7654887437820435	396990.0124580497
1.7692357301712036	348741.6986072301
1.7729763984680176	300201.32116462087
1.776710867881775	284220.7225711469
1.7804391384124756	294104.1580194292
1.7841613292694092	261906.33240763997
1.7878772020339966	211717.72747107418
1.7915871143341064	167571.60252252212
1.7952908277511597	145575.59797654892
1.7989884614944458	154926.9983729265
1.8026801347732544	124199.67605679027
1.806365728378296	94395.56760150203
1.8100452423095703	99005.40444162847
1.8137187957763672	98828.98688180457
1.817386507987976	88257.63696305467
1.8210482597351074	102678.35863657221
1.8247040510177612	130204.17837218972
1.828354001045227	101148.1730537683
1.8319982290267944	59562.56320981682
1.8356364965438843	46506.75639515123
1.8392690420150757	48638.215509890215
1.8428958654403687	78314.59504110027
1.8465168476104736	95839.74770126525
1.8501322269439697	92184.42177916445
1.8537418842315674	89275.33204916888
1.8573459386825562	73967.95085294425
1.860944390296936	56166.71582315092
1.864537239074707	43371.048450248294
1.8681244850158691	30797.596181467427
1.871706247329712	29641.64327845363
1.8752825260162354	60872.3632040163
1.8788533210754395	125491.38880549006
1.8824186325073242	168237.73790858456
1.8859784603118896	160196.61968617988
1.8895330429077148	145005.3973428009
1.8930821418762207	167745.28905122716
1.8966259956359863	183407.9780130316
1.9001644849777222	131492.6256254659
1.9036977291107178	84874.7545979399
1.9072256088256836	85675.18809124322
1.9107483625411987	79824.80945016484
1.9142658710479736	64144.43955040264
1.9177782535552979	64157.56798113075
1.9212853908538818	63448.29890949433
1.9247875213623047	53153.33397215131
1.9282845258712769	42854.958638579505
1.9317764043807983	36633.50063357413
1.9352631568908691	33421.259545333975
1.9387450218200684	30322.76504203609
1.942221760749817	34896.25941366937
1.9456936120986938	43166.95549147339
1.9491604566574097	44969.02908617901
1.952622413635254	43782.2965713294
1.956079363822937	50781.5059234117
1.959531545639038	65486.350264325505
1.962978720664978	74368.25432013161
1.966421127319336	80729.78063354715
1.9698586463928223	81866.43213498751
1.9732913970947266	84220.09220862888
1.9767193794250488	103746.65856247448
1.9801424741744995	109240.01354775213
1.9835609197616577	108579.58481650158
1.9869745969772339	128966.02273796583
1.990383505821228	148864.10131206748
1.9937876462936401	184537.06910757872
1.9971871376037598	233987.26850625066
2.000581979751587	256400.6753501243
2.003972291946411	252498.8282203186
2.007357597351074	257491.01684087282
2.0107386112213135	275496.81249973766
2.0141148567199707	266987.8402110612
2.017486572265625	229354.44277956386
2.0208535194396973	227425.58486174696
2.0242159366607666	273932.914535591
2.027573823928833	306754.23498910887
2.0309269428253174	335234.9859812023
2.034275770187378	373981.14870451076
2.0376198291778564	391784.83672716253
2.040959596633911	407497.89590758627
2.044294595718384	465923.05732015526
2.0476250648498535	534255.7791003124
2.0509510040283203	568884.570646292
2.054272413253784	604582.204987594
2.057589530944824	664030.7013444544
2.0609018802642822	718336.3919652781
2.0642096996307373	760706.4275687349
2.0675129890441895	803376.2262388422
2.0708119869232178	843895.2248210602
2.074106216430664	881857.7778403653
2.0773961544036865	911014.7851354176
2.080681324005127	935754.8376077944
2.0839622020721436	966412.4491592492
2.087238311767578	993010.0362480829
2.090510129928589	1015154.3335012371
2.0937774181365967	1022729.3826681032
2.0970399379730225	1013708.0530275874
2.1002981662750244	999335.0145043589
2.1035518646240234	991032.5661318027
2.1068007946014404	982515.4669742238
2.1100454330444336	963121.7060911265
2.1132853031158447	952409.7787625759
2.116520881652832	928910.4221316045
2.1197516918182373	895493.7653981338
2.1229779720306396	875187.5444524372
2.12619948387146	854638.1483388674
2.1294167041778564	832583.1933342284
2.132629156112671	815147.996907294
2.1358368396759033	794395.9081920726
2.139039993286133	755014.701366468
2.1422386169433594	680722.7694694727
2.145432472229004	606241.4194214403
2.1486217975616455	571492.1906652135
2.151806354522705	547498.9927253502
2.1549863815307617	514536.0603756344
2.1581614017486572	478335.4936177365
2.16133189201355	429238.6360531553
2.1644976139068604	385455.1493867588
2.167658567428589	354827.71218886145
2.1708147525787354	332750.0685677426
2.173966407775879	321063.03161607694
2.1771130561828613	298450.83873411163
2.1802549362182617	271457.7574104864
2.183391809463501	249756.13672331636
2.1865241527557373	230974.94936839014
2.1896514892578125	197073.00155892843
2.1927738189697266	140111.968653503
2.1958916187286377	83962.07785179873
2.1990041732788086	42635.11759084982
2.2021119594573975	23178.659151424454
2.2052149772644043	27977.273634941976
2.208312749862671	46150.34896750428
2.2114057540893555	60934.42080229165
2.214493751525879	66353.37718877365
2.217576742172241	68751.78937816121
2.2206547260284424	65469.415216800066
2.2237277030944824	58093.53902926109
2.2267956733703613	50083.02554336543
2.2298583984375	40544.93999605503
2.2329163551330566	37724.854260962966
2.235969066619873	38134.08214194571
2.2390167713165283	32070.52710098343
2.2420592308044434	26508.157122601566
2.2450966835021973	23708.242391430686
2.248128890991211	19490.557440564342
2.2511560916900635	16707.822421533976
2.254178285598755	15206.924159827717
2.257194995880127	14111.63467758636
2.260206699371338	14405.77269768567
2.2632133960723877	15177.416708481353
2.266214609146118	16451.119687398826
2.2692108154296875	18237.740075088346
2.2722020149230957	20127.225878987443
2.2751877307891846	20058.572837223797
2.278168201446533	19603.51862752006
2.2811436653137207	19025.41242338722
2.284113883972168	15659.424137991386
2.287078857421875	13481.807355306071
2.290038824081421	12737.573142324678
2.2929933071136475	11528.277747694015
2.295942783355713	11521.42202734833
2.298887014389038	13224.129997885837
2.301826238632202	15725.303845278544
2.304760217666626	21190.132601739366
2.3076889514923096	37357.02623504103
2.310612440109253	62521.00527985483
2.3135311603546143	67058.59075656811
2.3164443969726562	37416.06671765182
2.319352865219116	11173.22679987692
2.322256088256836	8041.373833453553
2.3251543045043945	10854.980740372113
2.328047275543213	11486.861701624088
2.330935478210449	11894.671046180592
2.3338186740875244	13020.4073409746
2.3366971015930176	13598.298859668042
2.3395702838897705	13660.36958546824
2.3424389362335205	14089.585575717088
2.3453025817871094	13296.707427499658
2.348161458969116	12855.306008358708
2.351015567779541	14999.053570276921
2.353865146636963	17850.97373884257
2.3567099571228027	21950.928179637714
2.3595502376556396	29938.618600025835
2.3623859882354736	37745.76034280824
2.3652172088623047	37821.380863890874
2.368043899536133	28327.430818697758
2.370866537094116	15288.294125378843
2.3736846446990967	10514.132625528086
2.3764986991882324	15632.733226391141
2.3793084621429443	20667.911927886034
2.3821144104003906	20989.84436642864
2.384916305541992	23653.146817608293
2.387714147567749	31558.698843157203
2.3905084133148193	35473.612493736946
2.393299102783203	33580.9048170275
2.3960859775543213	33714.395568072636
2.398869514465332	41174.45810355263
2.4016497135162354	51165.85521890369
2.4044265747070312	56117.732431732926
2.407200336456299	57109.28921353081
2.409970998764038	69668.80197215179
2.4127390384674072	88115.391534928
2.415503978729248	81459.9960290994
2.418266534805298	64221.959047947195
2.4210267066955566	61503.28039529588
2.4237842559814453	57236.46369423007
2.426539897918701	55058.65326715718
2.429293394088745	73378.1691915701
2.4320452213287354	89966.11991218882
2.4347951412200928	87330.45067186403
2.4375438690185547	99792.73641233632
2.440291166305542	127434.91804722352
2.443037271499634	131012.82659634559
2.445782423019409	117395.82039821082
2.4485268592834473	111531.16648234687
2.451270818710327	114360.3301741234
2.454014539718628	126625.01729514616
2.4567582607269287	147682.9797843797
2.4595019817352295	161901.00993415504
2.4622461795806885	178867.4056894436
2.4649908542633057	201992.4488090058
2.4677364826202393	191457.02454259704
2.4704833030700684	162500.64203271238
2.473231554031372	150922.07436641213
2.4759814739227295	157262.53128617594
2.4787333011627197	163424.29080037505
2.481487512588501	166555.78385614225
2.4842441082000732	194502.47841655978
