#wavelength	surface flux
0.6450077295303345	256.2570450703818
0.6472567915916443	407.0244753625584
0.6494921445846558	543.8689784836553
0.6517150402069092	640.8339300300258
0.6539263725280762	741.59075346915
0.6561272740364075	847.6780710857945
0.6583186388015747	963.3800461342988
0.6605015397071838	1097.2273437865624
0.6626768708229065	1243.6367292844532
0.6648455858230591	1397.0682644860199
0.6670085787773132	1531.3553827436813
0.6691668033599854	1575.7735377499625
0.6713210344314575	1646.1838449078698
0.6734722256660461	1898.097615222858
0.6756211519241333	2152.5697185715167
0.6777685880661011	2297.775929452408
0.6799154281616211	2409.225273008789
0.6820623278617859	2500.5536850577755
0.6842101216316223	2570.462647176754
0.6863595843315125	2614.300278179862
0.688511312007904	2607.1247255213284
0.6906660795211792	2464.3523942750376
0.6928245425224304	2237.6511966702087
0.6949873566627502	2190.039519421547
0.6971551775932312	2286.643054811735
0.6993286609649658	2262.3235231520534
0.7015084028244019	2138.1883612626907
0.7036949396133423	2048.0479750018694
0.7058889269828796	1997.1496264490193
0.7080909013748169	1951.5522863711042
0.710301399230957	1894.956318748993
0.712520956993103	1808.4797790104224
0.7147500514984131	1617.0367580874986
0.7169892191886902	1310.158789893585
0.7192389369010925	1109.6208805869721
0.7214996814727783	1067.5050378006622
0.723771870136261	996.4318161528213
0.7260559797286987	900.0560877809088
0.7283523678779602	852.2353682730877
0.7306615710258484	847.388998233315
0.7329838871955872	905.5299912481745
0.7353196740150452	973.7026275166261
0.7376693487167358	990.6261665098264
0.7400332689285278	996.8955756766188
0.7424117922782898	1006.0062092077511
0.7448052167892456	1003.5365311374428
0.7472138404846191	979.6094956711643
0.7496379613876343	930.917463920949
0.7520779371261597	859.761463277055
0.7545340061187744	767.3266854265407
0.7570064663887024	655.1569595521784
0.7594954967498779	522.5992387987332
0.7620013952255249	370.14983168967615
0.7645244002342224	215.91606643586516
0.7670646905899048	118.33210294247814
0.7696225643157959	131.2261209731953
0.7721980810165405	274.0975859796598
0.7747915983200073	503.88024614120917
0.7774031162261963	691.9453889588611
0.7800329327583313	848.0971474351797
0.7826811671257019	1154.3037579514087
0.7853479981422424	1542.6582447381393
0.7880334854125977	1866.6896475832348
0.7907378077507019	2083.053406633469
0.7934610247612	2122.5958862521047
0.7962033748626709	2375.7631197216815
0.7989648580551147	3023.236396964903
0.801745593547821	3625.476876585776
0.8045456409454346	4081.054158197776
0.8073651194572449	4375.26836131216
0.8102040886878967	4305.104477056963
0.8130625486373901	4097.783939273101
0.8159406185150146	4473.809490831636
0.8188382983207703	5522.792353847131
0.8217556476593018	6412.8461131559325
0.8246926665306091	7382.110092884547
0.8276493549346924	8747.254474466521
0.8306257724761963	9957.538589801141
0.8336219191551208	11260.412088735711
0.8366377949714661	13015.79278266505
0.8396733403205872	15248.360427349146
0.8427285552024841	18042.62270823712
0.8458034992218018	21429.23270196055
0.8488980531692505	24503.46750963208
0.8520121574401855	27248.5005615527
0.8551458716392517	31851.609899537758
0.8582990765571594	36810.91268551279
0.8614717125892639	39848.22455497237
0.8646637797355652	43482.74923338719
0.8678751587867737	49776.72528052772
0.8711057901382446	57354.63613450735
0.8743556141853333	63368.10673709816
0.87762451171875	63384.149599505996
0.8809124231338501	52215.05338303519
0.8842192888259888	36483.3390219262
0.8875449895858765	27248.83001820886
0.8908893465995789	22551.01338210793
0.894252359867096	19604.82745460405
0.8976338505744934	27460.533677430412
0.9010337591171265	56328.97291064246
0.9044519662857056	95467.01056510101
0.9078882932662964	115704.83183621962
0.9113426208496094	113576.5609816879
0.914814829826355	105790.6878650205
0.9183048605918884	109278.5287609313
0.9218124747276306	116093.28304713647
0.925337553024292	85884.78664323197
0.9288799166679382	33514.07259021989
0.9324395060539246	7554.344140528653
0.9360161423683167	8530.952505345333
0.9396095871925354	16781.991494575705
0.943219780921936	19742.676464173965
0.9468464851379395	16432.000859438573
0.9504896402359009	13860.11183479466
0.9541489481925964	12525.901816836864
0.9578243494033813	12022.214113952343
0.9615156054496765	15495.0200210046
0.9652225375175476	29914.561345567985
0.9689450263977051	50653.07220424604
0.9726828336715698	60361.534045276494
0.9764357805252075	63778.39311523371
0.9802037477493286	70703.17687183288
0.983986496925354	76749.42545825633
0.9877838492393494	87399.84668761885
0.9915955662727356	115777.09474029731
0.9954215884208679	168552.60136326033
0.9992615580558777	249998.27801033898
1.0031154155731201	350609.4382104819
1.0069829225540161	422370.26469082234
1.0108637809753418	428570.8107763364
1.0147579908370972	383084.39573208423
1.018665075302124	325466.30412866635
1.022585153579712	319424.3923293459
1.0265177488327026	379155.18085551524
1.0304628610610962	408236.26352475974
1.0344202518463135	385657.10926860914
1.0383895635604858	427157.9520292882
1.0423706769943237	536312.4943019603
1.0463634729385376	632346.6184042006
1.0503677129745483	721007.2576375508
1.0543830394744873	826716.0628046892
1.058409333229065	912649.1904947103
1.0624464750289917	947881.1060989043
1.0664942264556885	932567.5860253704
1.0705522298812866	886268.521993259
1.0746204853057861	858107.4309199658
1.0786986351013184	839844.0113191952
1.0827864408493042	789141.2162125611
1.086883783340454	668055.6751820088
1.0909905433654785	470250.19129177375
1.0951062440872192	272541.9683407168
1.0992310047149658	140307.0059426658
1.10336434841156	65618.46185727615
1.1075061559677124	27371.671288544014
1.1116561889648438	10851.353733888616
1.115814208984375	3915.1421197085374
1.1199802160263062	2297.1755133931338
1.124153733253479	2332.8118148646977
1.1283347606658936	2760.5018298859113
1.1325229406356812	2998.745355643195
1.1367181539535522	5060.313403790417
1.1409201622009277	7986.346928461923
1.145128846168518	7106.631255180287
1.1493438482284546	4179.37103758505
1.1535650491714478	2322.255452699242
1.1577922105789185	1633.3388424156335
1.1620250940322876	1700.8115649166195
1.1662636995315552	2738.140988217992
1.170507550239563	6652.248244004325
1.174756646156311	14448.235060846793
1.1790107488632202	26460.985786274756
1.1832695007324219	40612.79876292225
1.1875330209732056	52064.808143486924
1.191800832748413	63907.46336453564
1.1960728168487549	80264.71197471116
1.2003488540649414	98543.98648916217
1.2046287059783936	119747.23401166187
1.2089121341705322	136748.50814388588
1.2131990194320679	148297.23905588003
1.2174891233444214	164537.45438371022
1.2217823266983032	194565.61741308853
1.2260783910751343	255289.22287438816
1.230377197265625	342094.21428606164
1.2346785068511963	436948.50858492573
1.238982081413269	552318.9691349916
1.2432878017425537	697379.8497302671
1.2475954294204712	839074.6389288509
1.2519049644470215	944968.3157646273
1.256216049194336	1072253.502790917
1.2605286836624146	1259468.7097467447
1.2648425102233887	1395446.967665953
1.2691574096679688	1358297.077316541
1.2734732627868652	1141847.628587125
1.2777899503707886	861878.1844710279
1.2821072340011597	609150.2734149783
1.2864248752593994	414201.71619354206
1.2907428741455078	306978.40021881834
1.2950609922409058	269304.3362227139
1.2993791103363037	246044.93224457884
1.303696870803833	203537.93476240322
1.3080145120620728	159229.2425392598
1.3123314380645752	117426.51640203803
1.3166478872299194	90165.97899057905
1.3209635019302368	89431.77666695714
1.3252781629562378	80999.8244259317
1.3295916318893433	49599.18233764408
1.3339040279388428	18310.448014117854
1.3382149934768677	4844.528889782938
1.3425244092941284	1562.1730463076967
1.3468321561813354	371.2451769485414
1.3511382341384888	117.97490727320138
1.3554422855377197	38.953440078611024
1.3597444295883179	15.608245418145373
1.3640443086624146	20.42644633768824
1.3683418035507202	30.841535994714793
1.3726370334625244	66.99144672484577
1.3769296407699585	113.27211588531358
1.381219506263733	94.27280423176074
1.3855066299438477	54.213724417126244
1.3897908926010132	59.69743448718687
1.3940720558166504	75.51915481197032
1.3983501195907593	87.26805397798373
1.4026249647140503	98.67338087781276
1.4068963527679443	108.76496842680955
1.4111642837524414	142.8186345504799
1.4154287576675415	191.02658597465594
1.419689416885376	215.94782599422456
1.4239463806152344	350.8135079431882
1.4281994104385376	762.7678830955394
1.4324485063552856	1050.8640990288718
1.436693549156189	1045.871446903259
1.440934419631958	1308.2907663402457
1.4451709985733032	2133.1901962865345
1.449403166770935	3511.4009551927584
1.453631043434143	4879.617060505116
1.4578542709350586	5541.950274372716
1.4620729684829712	4718.057098369657
1.4662868976593018	2886.6301352476175
1.4704961776733398	1431.6740096682195
1.4747005701065063	712.5650725368234
1.4788999557495117	627.4178183046547
1.4830944538116455	742.0382891656355
1.4872838258743286	760.4855348916834
1.491468071937561	699.5366159778297
1.4956470727920532	815.5001310997854
1.4998208284378052	1216.3349809673405
1.5039892196655273	1463.817264432959
1.5081522464752197	1176.0433774257683
1.5123097896575928	655.4962158941871
1.5164618492126465	631.666832294837
1.5206083059310913	1302.359224914716
1.5247491598129272	2117.9874961479327
1.5288842916488647	2930.6651122026824
1.5330137014389038	3812.8187262551755
1.5371372699737549	4414.457478120189
1.541254997253418	5152.268661471303
1.545366883277893	6286.694130178451
1.5494728088378906	8381.42963914143
1.5535727739334106	13863.501558006132
1.5576666593551636	23811.61729534702
1.561754584312439	40523.64760358052
1.5658363103866577	65887.4967554994
1.5699119567871094	90143.71210358913
1.5739814043045044	108881.61119066042
1.5780447721481323	133092.72063678465
1.582101821899414	162606.45810304326
1.5861525535583496	185950.433774607
1.5901970863342285	195473.7353972246
1.5942351818084717	191883.51102318222
1.5982669591903687	176069.86684775352
1.6022924184799194	146137.88845714566
1.606311559677124	111385.19187958394
1.6103241443634033	81688.29504282333
1.6143304109573364	53257.54260046644
1.6183301210403442	28924.412472400876
1.6223233938217163	17275.428605818353
1.6263102293014526	13827.16515404827
1.6302905082702637	13008.621590139664
1.634264349937439	14794.375934671645
1.638231635093689	18568.42650160792
1.6421923637390137	19652.14380841611
1.646146535873413	15840.048646251817
1.6500942707061768	15243.779664754762
1.6540353298187256	17947.41223660575
1.6579699516296387	20383.2972511847
1.661897897720337	21713.931135432424
1.6658192873001099	13451.719477943521
1.6697341203689575	4335.962047435315
1.6736423969268799	4267.046647816159
1.677544116973877	5395.437529749113
1.6814392805099487	4603.793318629305
1.6853278875350952	3968.5109399930716
1.6892099380493164	3304.3781031689077
1.6930854320526123	2213.565701153392
1.696954369544983	1426.1904118661146
1.7008168697357178	984.2304312584758
1.7046726942062378	971.0820123963373
1.708522081375122	1859.2728192426189
1.712364912033081	3622.8717481839353
1.7162011861801147	6550.651344926413
1.7200311422348022	8711.291454412958
1.723854422569275	7478.93592799292
1.7276713848114014	6011.846666012297
1.731481909751892	6511.332350535203
1.7352858781814575	8282.533776954833
1.7390835285186768	12052.678519229446
1.7428747415542603	16770.101008671718
1.7466596364974976	20090.141234127746
1.7504380941390991	20594.070394544386
1.7542102336883545	16903.28117580786
1.7579760551452637	11907.266873927847
1.7617355585098267	9525.929963783234
1.7654887437820435	9071.158426966973
1.7692357301712036	8436.472426121372
1.7729763984680176	7113.336671944036
1.776710867881775	7692.535871063987
1.7804391384124756	9463.987770989701
1.7841613292694092	8428.171445867116
1.7878772020339966	6084.5086156265925
1.7915871143341064	4225.482387020983
1.7952908277511597	3513.156781725211
1.7989884614944458	4120.145213795201
1.8026801347732544	3155.6452503659593
1.806365728378296	1961.9686905148653
1.8100452423095703	1839.1227348890861
1.8137187957763672	1523.8442488841263
1.817386507987976	1223.9267486442045
1.8210482597351074	1739.5081311780016
1.8247040510177612	2385.05306170981
1.828354001045227	1576.1724081520526
1.8319982290267944	566.9602094865619
1.8356364965438843	347.2812227869139
1.8392690420150757	448.0802875109336
1.8428958654403687	1144.5850659793764
1.8465168476104736	1641.1338416954868
1.8501322269439697	1587.8923408906803
1.8537418842315674	1456.7737593093455
1.8573459386825562	1126.565052171834
1.860944390296936	841.1211442402281
1.864537239074707	638.9780797648451
1.8681244850158691	356.099076429897
1.871706247329712	210.79981974098916
1.8752825260162354	701.9990292274422
1.8788533210754395	2094.3204043672727
1.8824186325073242	3096.9553680342447
1.8859784603118896	2889.466054695196
1.8895330429077148	2428.505771025788
1.8930821418762207	2725.728641053613
1.8966259956359863	2976.114212151546
1.9001644849777222	1817.5473399298214
1.9036977291107178	771.2104814541545
1.9072256088256836	774.3346081505188
1.9107483625411987	735.5616895033069
1.9142658710479736	541.36833682015
1.9177782535552979	557.7019395987036
1.9212853908538818	607.4119406743429
1.9247875213623047	526.5390045834286
1.9282845258712769	397.89482902095085
1.9317764043807983	318.2691680509717
1.9352631568908691	295.5745842205231
1.9387450218200684	270.49950699124395
1.942221760749817	320.33183199539627
1.9456936120986938	435.2624444876778
1.9491604566574097	463.74672353755363
1.952622413635254	457.74233153495123
1.956079363822937	673.5626667444595
1.959531545639038	1071.7944080817917
1.962978720664978	1275.2719592869216
1.966421127319336	1333.4475250163714
1.9698586463928223	1266.0056161567686
1.9732913970947266	1282.3972552494374
1.9767193794250488	1711.0406252552807
1.9801424741744995	1677.4995191380049
1.9835609197616577	1420.194567218057
1.9869745969772339	1828.084644706817
1.990383505821228	2389.261834551871
1.9937876462936401	3338.799788703732
1.9971871376037598	4741.838330505555
2.000581979751587	5214.008698187845
2.003972291946411	4612.0422076464065
2.007357597351074	4528.370541765348
2.0107386112213135	4694.586593945666
2.0141148567199707	4175.6278943638545
2.017486572265625	3374.3212005703053
2.0208535194396973	3154.9977316213035
2.0242159366607666	3998.9876149997244
2.027573823928833	4956.6445193740155
2.0309269428253174	5898.819491568846
2.034275770187378	6962.151737357086
2.0376198291778564	7377.608716574042
2.040959596633911	7731.802829366818
2.044294595718384	9171.835169130685
2.0476250648498535	10789.534229623903
2.0509510040283203	12047.630023712196
2.054272413253784	13487.874846968134
2.057589530944824	15149.228670007993
2.0609018802642822	16951.464892434735
2.0642096996307373	18622.523954173368
2.0675129890441895	20117.002416020598
2.0708119869232178	21577.492612418966
2.074106216430664	23186.097221766348
2.0773961544036865	24499.387605673433
2.080681324005127	25367.19879424786
2.0839622020721436	26586.918220462197
2.087238311767578	27773.873702067573
2.090510129928589	28826.939627967746
2.0937774181365967	29315.770112304526
2.0970399379730225	28977.704077107417
2.1002981662750244	28632.07356581068
2.1035518646240234	28844.95669382717
2.1068007946014404	28963.07522846967
2.1100454330444336	28312.149071779077
2.1132853031158447	27874.219902319423
2.116520881652832	27103.63754688238
2.1197516918182373	25942.733529008878
2.1229779720306396	25032.07023140148
2.12619948387146	24205.27496988918
2.1294167041778564	23595.949745930124
2.132629156112671	23168.527476329513
2.1358368396759033	22748.405677721075
2.139039993286133	21819.08183731526
2.1422386169433594	19416.351866029545
2.145432472229004	16879.39887986014
2.1486217975616455	15670.892238726972
2.151806354522705	14687.12606876994
2.1549863815307617	13326.000913162881
2.1581614017486572	12038.294839971133
2.16133189201355	10383.968219749293
2.1644976139068604	8815.30895630463
2.167658567428589	7771.654120920621
2.1708147525787354	7163.81632153363
2.173966407775879	7222.897353027477
2.1771130561828613	6848.076742972442
2.1802549362182617	6060.442177235422
2.183391809463501	5544.791328255222
2.1865241527557373	5264.343962974928
2.1896514892578125	4395.701007403483
2.1927738189697266	2753.660819537208
2.1958916187286377	1334.1826914891867
2.1990041732788086	517.8935838688793
2.2021119594573975	202.33523705501008
2.2052149772644043	321.1994985296888
2.208312749862671	690.2863013436495
2.2114057540893555	942.825133236485
2.214493751525879	953.3281528516193
2.217576742172241	911.4965865888405
2.2206547260284424	797.4828446880738
2.2237277030944824	649.5016133638541
2.2267956733703613	526.2097628909552
2.2298583984375	387.24313432724114
2.2329163551330566	349.0598296437274
2.235969066619873	349.9124230381666
2.2390167713165283	270.4271947001378
2.2420592308044434	217.58464225240553
2.2450966835021973	190.89979793764175
2.248128890991211	136.30688131185826
2.2511560916900635	105.83863226370495
2.254178285598755	92.74906424574026
2.257194995880127	78.49631568549533
2.260206699371338	80.01688185956627
2.2632133960723877	85.76107814014522
2.266214609146118	96.38248584837466
2.2692108154296875	126.10063791068313
2.2722020149230957	172.75747868606385
2.2751877307891846	182.9561270990665
2.278168201446533	170.94078423046412
2.2811436653137207	162.91910525749097
2.284113883972168	124.04371535584139
2.287078857421875	96.03721100821488
2.290038824081421	87.08997212654448
2.2929933071136475	74.21054405606284
2.295942783355713	70.31065234176853
2.298887014389038	77.82410892774537
2.301826238632202	93.1011978314335
2.304760217666626	147.04361245982943
2.3076889514923096	402.26844642509377
2.310612440109253	902.8071108536795
2.3135311603546143	1045.9094110079059
2.3164443969726562	543.6589003818104
2.319352865219116	114.2226639774726
2.322256088256836	67.47450592914238
2.3251543045043945	105.74203862920432
2.328047275543213	109.67341472380632
2.330935478210449	103.7834856066233
2.3338186740875244	113.48142147846971
2.3366971015930176	116.8812560863819
2.3395702838897705	113.91576065547731
2.3424389362335205	123.56240462355184
2.3453025817871094	113.3764178655038
2.348161458969116	99.93909499911173
2.351015567779541	125.64837723224534
2.353865146636963	164.57362559398595
2.3567099571228027	235.48821506553867
2.3595502376556396	394.6349997895287
2.3623859882354736	531.3524119661381
2.3652172088623047	488.9893533112597
2.368043899536133	312.457546105572
2.370866537094116	143.99199988828204
2.3736846446990967	102.07161837706563
2.3764986991882324	209.3695505404589
2.3793084621429443	318.2764616393942
2.3821144104003906	308.7926274560982
2.384916305541992	315.6333265971926
2.387714147567749	423.73554400392067
2.3905084133148193	478.2956294550927
2.393299102783203	433.2842444546969
2.3960859775543213	420.2635457788053
2.398869514465332	537.4102536769939
2.4016497135162354	713.5469413575119
2.4044265747070312	833.2532258810114
2.407200336456299	940.2040231886369
2.409970998764038	1426.8727644537166
2.4127390384674072	1994.6916138747433
2.415503978729248	1747.6676886633386
2.418266534805298	1180.285002323871
2.4210267066955566	1004.9921678596312
2.4237842559814453	860.1260230028147
2.426539897918701	852.2000798418344
2.429293394088745	1340.7353181515032
2.4320452213287354	1727.5466952697275
2.4347951412200928	1743.7616781979184
2.4375438690185547	2348.7098684875277
2.440291166305542	3329.4693666245525
2.443037271499634	3484.12609401041
2.445782423019409	3033.418752598525
2.4485268592834473	2825.3997649845196
2.451270818710327	3031.242695982955
2.454014539718628	3616.2194791235706
2.4567582607269287	4451.808352601758
2.4595019817352295	5212.0567784500645
2.4622461795806885	6066.466637817082
2.4649908542633057	7290.533842889457
2.4677364826202393	7463.335084409321
2.4704833030700684	6564.290830724711
2.473231554031372	6221.726656459609
2.4759814739227295	6774.154613030484
2.4787333011627197	6926.340839114559
2.481487512588501	6683.283653814948
