#wavelength	surface flux
0.6450077295303345	10929.818040576689
0.6472567915916443	17507.273713963175
0.6494921445846558	23541.010940541837
0.6517150402069092	28004.34358549417
0.6539263725280762	32892.74919857531
0.6561272740364075	38346.22504027819
0.6583186388015747	44394.97054362707
0.6605015397071838	51068.25757785127
0.6626768708229065	58302.57095647853
0.6648455858230591	65842.48115267986
0.6670085787773132	71239.7854957942
0.6691668033599854	69159.36585880953
0.6713210344314575	70239.83373508563
0.6734722256660461	88263.19329803502
0.6756211519241333	108732.12544219174
0.6777685880661011	121155.48673106282
0.6799154281616211	131087.17968605002
0.6820623278617859	140132.56538874673
0.6842101216316223	148259.71251293272
0.6863595843315125	155238.79715974332
0.688511312007904	160634.75863791074
0.6906660795211792	163556.23607080124
0.6928245425224304	164425.52209732682
0.6949873566627502	165441.35144627374
0.6971551775932312	166053.0199049527
0.6993286609649658	163960.08542900992
0.7015084028244019	159428.69758252183
0.7036949396133423	153645.3251906608
0.7058889269828796	146897.05071875008
0.7080909013748169	139146.27729747453
0.710301399230957	130483.69457945431
0.712520956993103	121007.1594229204
0.7147500514984131	110252.23188615812
0.7169892191886902	98513.85134617779
0.7192389369010925	88119.17039231033
0.7214996814727783	79278.66065567173
0.723771870136261	70325.67067177995
0.7260559797286987	61554.16548878201
0.7283523678779602	53635.760211450586
0.7306615710258484	46493.51676825293
0.7329838871955872	40188.069560068994
0.7353196740150452	34524.78096932791
0.7376693487167358	29201.94922739725
0.7400332689285278	24390.581680312014
0.7424117922782898	20177.696345885965
0.7448052167892456	16541.231728780287
0.7472138404846191	13441.398451121999
0.7496379613876343	10834.892818926372
0.7520779371261597	8682.08400601155
0.7545340061187744	6916.13738460406
0.7570064663887024	5451.220001903041
0.7594954967498779	4181.5241198402555
0.7620013952255249	2962.236203287038
0.7645244002342224	1744.4993313024847
0.7670646905899048	932.7568824906142
0.7696225643157959	1024.5910767907353
0.7721980810165405	2171.1320899036814
0.7747915983200073	3998.4517094954617
0.7774031162261963	5758.396037143176
0.7800329327583313	7729.392416915212
0.7826811671257019	11183.889301589703
0.7853479981422424	15986.334326494112
0.7880334854125977	21567.1900205008
0.7907378077507019	26986.87767081722
0.7934610247612	31058.31715068313
0.7962033748626709	40778.67978698068
0.7989648580551147	59710.81233578173
0.801745593547821	80687.60699862895
0.8045456409454346	102386.31781471644
0.8073651194572449	127063.72328353178
0.8102040886878967	154406.90409825114
0.8130625486373901	185810.07858450274
0.8159406185150146	225389.53181028267
0.8188382983207703	273894.3182734835
0.8217556476593018	327913.1449359936
0.8246926665306091	391299.4375107931
0.8276493549346924	465819.56300091295
0.8306257724761963	547020.0170105592
0.8336219191551208	637804.7913670966
0.8366377949714661	741515.6739061556
0.8396733403205872	859037.6724813117
0.8427285552024841	992038.9333132197
0.8458034992218018	1130622.5503946966
0.8488980531692505	1206355.1496691406
0.8520121574401855	1262151.6201534222
0.8551458716392517	1514999.9810047585
0.8582990765571594	1844464.1990733643
0.8614717125892639	2023678.1177593367
0.8646637797355652	2183329.3284921627
0.8678751587867737	2433842.404540601
0.8711057901382446	2717106.8004313144
0.8743556141853333	3011404.892766168
0.87762451171875	3299272.836582811
0.8809124231338501	3490941.6771585373
0.8842192888259888	3614920.165715423
0.8875449895858765	3738180.787359434
0.8908893465995789	3642758.2920359722
0.894252359867096	3489072.9935308313
0.8976338505744934	4131107.722956886
0.9010337591171265	5422578.70125359
0.9044519662857056	6571352.556957732
0.9078882932662964	7347588.645624474
0.9113426208496094	7825495.726617469
0.914814829826355	8219318.625595887
0.9183048605918884	8770968.309650796
0.9218124747276306	9201978.864984516
0.925337553024292	8119224.700300785
0.9288799166679382	5698474.174775904
0.9324395060539246	4576219.832480277
0.9360161423683167	5618862.251338681
0.9396095871925354	7336264.3397641005
0.943219780921936	8159648.709943376
0.9468464851379395	8080793.371746179
0.9504896402359009	8091629.804190108
0.9541489481925964	8121922.8592755925
0.9578243494033813	8021032.853115402
0.9615156054496765	8413328.55933221
0.9652225375175476	9784950.321140593
0.9689450263977051	11621889.93865269
0.9726828336715698	13039971.060283342
0.9764357805252075	14246149.64649529
0.9802037477493286	15565842.267412841
0.983986496925354	16857525.763334397
0.9877838492393494	18276312.51942323
0.9915955662727356	19730034.236449264
0.9954215884208679	20461049.912526824
0.9992615580558777	20200807.66246791
1.0031154155731201	20802396.986784466
1.0069829225540161	23068840.821745556
1.0108637809753418	25849791.06044878
1.0147579908370972	28705224.65690051
1.018665075302124	31475977.261143632
1.022585153579712	34029465.73392773
1.0265177488327026	36417611.502234906
1.0304628610610962	38927677.51212334
1.0344202518463135	41702818.50425614
1.0383895635604858	44493798.228327855
1.0423706769943237	46983262.57338563
1.0463634729385376	49066780.505669124
1.0503677129745483	50779917.268650405
1.0543830394744873	52375336.759645976
1.058409333229065	54018310.64442063
1.0624464750289917	55784285.320710495
1.0664942264556885	57553747.77625778
1.0705522298812866	59199557.28858915
1.0746204853057861	60990990.581240624
1.0786986351013184	62576489.06988955
1.0827864408493042	62756341.04960155
1.086883783340454	58847279.020827614
1.0909905433654785	49034344.636069976
1.0951062440872192	36582021.32589794
1.0992310047149658	26028430.52436501
1.10336434841156	18111527.41781614
1.1075061559677124	12324288.082274029
1.1116561889648438	8465995.591773918
1.115814208984375	6663127.5181036955
1.1199802160263062	6770409.796521598
1.124153733253479	8011486.093550963
1.1283347606658936	8708031.437940817
1.1325229406356812	7492352.8930747
1.1367181539535522	7361216.648742646
1.1409201622009277	9207453.458206665
1.145128846168518	10317217.836632343
1.1493438482284546	10380166.026211852
1.1535650491714478	9462545.408129094
1.1577922105789185	8505480.71069917
1.1620250940322876	8304910.33158571
1.1662636995315552	8413436.80809229
1.170507550239563	9404851.438558009
1.174756646156311	11072296.395092903
1.1790107488632202	13760264.109014008
1.1832695007324219	18295226.832036804
1.1875330209732056	23246206.89287796
1.191800832748413	28324555.512841832
1.1960728168487549	34019409.737260215
1.2003488540649414	39476662.12875819
1.2046287059783936	44779270.46846538
1.2089121341705322	49654557.6137261
1.2131990194320679	54042241.95418919
1.2174891233444214	58604414.83870493
1.2217823266983032	62876867.772119425
1.2260783910751343	67137708.14052995
1.230377197265625	71429802.34501566
1.2346785068511963	74382501.98293288
1.238982081413269	73341281.59360003
1.2432878017425537	69664504.10845874
1.2475954294204712	66876599.7800674
1.2519049644470215	64835254.64107402
1.256216049194336	72284348.37218876
1.2605286836624146	85760343.64693902
1.2648425102233887	91451108.97638795
1.2691574096679688	91380142.36127135
1.2734732627868652	89394590.84485199
1.2777899503707886	86565188.22402222
1.2821072340011597	82062789.68462889
1.2864248752593994	75733692.99801815
1.2907428741455078	70631797.64328387
1.2950609922409058	67953531.0373868
1.2993791103363037	65569478.72561977
1.303696870803833	62888197.86634397
1.3080145120620728	59846690.66383903
1.3123314380645752	54546452.977273755
1.3166478872299194	48867369.69155451
1.3209635019302368	43635565.00517268
1.3252781629562378	34470571.536294185
1.3295916318893433	21205963.01919941
1.3339040279388428	9440315.751806485
1.3382149934768677	3295967.7670323486
1.3425244092941284	1396105.2032358919
1.3468321561813354	827486.751600291
1.3511382341384888	556992.7560745042
1.3554422855377197	386643.3364959395
1.3597444295883179	357740.4308466278
1.3640443086624146	476792.3746015263
1.3683418035507202	594940.5103143881
1.3726370334625244	745416.3296412403
1.3769296407699585	983880.5435396871
1.381219506263733	982519.8818206844
1.3855066299438477	794246.6629591229
1.3897908926010132	721221.9883668962
1.3940720558166504	692166.6443020632
1.3983501195907593	684843.7047738868
1.4026249647140503	743526.8993504981
1.4068963527679443	763069.2793270642
1.4111642837524414	733709.7733627516
1.4154287576675415	739899.7580593147
1.419689416885376	743873.5319038535
1.4239463806152344	808007.351093784
1.4281994104385376	1046996.4847441989
1.4324485063552856	1265665.1642457112
1.436693549156189	1351503.8389930516
1.440934419631958	1491871.2778465291
1.4451709985733032	1799531.0368800731
1.449403166770935	2380465.096908284
1.453631043434143	3029615.0439064577
1.4578542709350586	3512351.351443461
1.4620729684829712	3713315.7693517967
1.4662868976593018	3614897.46062883
1.4704961776733398	3482659.276969515
1.4747005701065063	3650928.313717762
1.4788999557495117	4053016.8291765065
1.4830944538116455	4350636.34919123
1.4872838258743286	4618046.66782703
1.491468071937561	5055047.87290286
1.4956470727920532	5694753.741460658
1.4998208284378052	6491606.160580308
1.5039892196655273	7228326.669979845
1.5081522464752197	7797307.804876812
1.5123097896575928	8374676.465788143
1.5164618492126465	9209230.182741757
1.5206083059310913	10615432.0903784
1.5247491598129272	12224380.263891127
1.5288842916488647	13661242.758588806
1.5330137014389038	15195982.602301028
1.5371372699737549	16644080.336161872
1.541254997253418	17937840.48450889
1.545366883277893	19583008.831230316
1.5494728088378906	21149575.88815162
1.5535727739334106	22265674.179539964
1.5576666593551636	23804276.6210316
1.561754584312439	26444231.79284053
1.5658363103866577	29333646.552152656
1.5699119567871094	30991560.35495865
1.5739814043045044	31689512.159267083
1.5780447721481323	32561622.163154844
1.582101821899414	33432503.191695288
1.5861525535583496	33575012.610697545
1.5901970863342285	32808364.065076623
1.5942351818084717	31622032.62763403
1.5982669591903687	30162089.747068044
1.6022924184799194	27900606.12233486
1.606311559677124	25170647.9067929
1.6103241443634033	22534420.57493225
1.6143304109573364	19701001.216961086
1.6183301210403442	17095661.38325727
1.6223233938217163	15734617.498664426
1.6263102293014526	15376220.54326176
1.6302905082702637	15531188.648545673
1.634264349937439	16714617.84111083
1.638231635093689	18844546.88918918
1.6421923637390137	19878937.967570905
1.646146535873413	18953787.71296456
1.6500942707061768	18588319.27979264
1.6540353298187256	18177896.358607616
1.6579699516296387	17373029.98881694
1.661897897720337	16672748.640587842
1.6658192873001099	11142903.906503363
1.6697341203689575	5854666.365303803
1.6736423969268799	8002393.908985321
1.677544116973877	11408711.588513695
1.6814392805099487	11639118.123460827
1.6853278875350952	10552770.490662796
1.6892099380493164	9321542.701583417
1.6930854320526123	7978332.779911824
1.696954369544983	6788013.723042302
1.7008168697357178	6048373.508089652
1.7046726942062378	6117641.138028568
1.708522081375122	7121422.262587834
1.712364912033081	8120250.756625419
1.7162011861801147	8818051.864411479
1.7200311422348022	9316073.349215487
1.723854422569275	8919224.23974447
1.7276713848114014	8303584.208220273
1.731481909751892	7982029.119175985
1.7352858781814575	7700588.2837617835
1.7390835285186768	7678132.547747762
1.7428747415542603	7787868.713462761
1.7466596364974976	7714046.171388143
1.7504380941390991	7324943.28867428
1.7542102336883545	6430935.69609351
1.7579760551452637	5563575.131216656
1.7617355585098267	5169518.283741733
1.7654887437820435	4731559.755217451
1.7692357301712036	4139031.279477216
1.7729763984680176	3635346.3494073227
1.776710867881775	3349544.0830911277
1.7804391384124756	3236435.2386207418
1.7841613292694092	2906968.6820897385
1.7878772020339966	2556135.4665899635
1.7915871143341064	2244536.666072182
1.7952908277511597	2036085.676095171
1.7989884614944458	2046856.8171832054
1.8026801347732544	1741527.2055338726
1.806365728378296	1511149.7228066546
1.8100452423095703	1637443.6386063907
1.8137187957763672	1758391.5670939109
1.817386507987976	1637209.752291263
1.8210482597351074	1686777.0472456599
1.8247040510177612	1994641.4600644158
1.828354001045227	1760138.004392011
1.8319982290267944	1340523.5548540882
1.8356364965438843	1177895.0434015552
1.8392690420150757	1177333.9702903647
1.8428958654403687	1423966.7797341964
1.8465168476104736	1516622.4362203563
1.8501322269439697	1452919.8122744858
1.8537418842315674	1408145.3437069443
1.8573459386825562	1186822.4391237097
1.860944390296936	951636.4041863976
1.864537239074707	831337.8566316584
1.8681244850158691	755632.4257484564
1.871706247329712	838962.3701223893
1.8752825260162354	1256372.5738419136
1.8788533210754395	1947620.8792150992
1.8824186325073242	2429344.250023044
1.8859784603118896	2445705.6013527745
1.8895330429077148	2388503.3509873967
1.8930821418762207	2742173.73627033
1.8966259956359863	3005817.825576764
1.9001644849777222	2534927.145271305
1.9036977291107178	2125691.815787005
1.9072256088256836	2254368.729381846
1.9107483625411987	2196383.8212176827
1.9142658710479736	1963301.8755798403
1.9177782535552979	2021507.5541863018
1.9212853908538818	1947597.101712451
1.9247875213623047	1663103.3213769172
1.9282845258712769	1423402.9882469405
1.9317764043807983	1245970.1897294603
1.9352631568908691	1136962.951314442
1.9387450218200684	1033963.7237986205
1.942221760749817	1129723.729579024
1.9456936120986938	1317882.5231815632
1.9491604566574097	1398133.567597016
1.952622413635254	1399984.2943230495
1.956079363822937	1373958.9458792459
1.959531545639038	1471565.5181955823
1.962978720664978	1632345.6146678918
1.966421127319336	1842847.8029453969
1.9698586463928223	1966469.4018958847
1.9732913970947266	1960608.2540680198
1.9767193794250488	2134560.3090604553
1.9801424741744995	2321442.4840527307
1.9835609197616577	2544227.7737478176
1.9869745969772339	2812060.9684622516
1.990383505821228	2895839.7715814705
1.9937876462936401	3268851.6775603746
1.9971871376037598	3736965.7027123175
2.000581979751587	3989115.6869816603
2.003972291946411	4203011.02286129
2.007357597351074	4239813.014541544
2.0107386112213135	4469349.089524642
2.0141148567199707	4753599.988496902
2.017486572265625	4675521.840319535
2.0208535194396973	5063950.359238748
2.0242159366607666	5762149.074287915
2.027573823928833	5860776.803449872
2.0309269428253174	6030844.373200073
2.034275770187378	6626956.119281019
2.0376198291778564	6963310.392596354
2.040959596633911	7030260.787811753
2.044294595718384	7505911.050503757
2.0476250648498535	8201837.042176156
2.0509510040283203	8355538.433097112
2.054272413253784	8462051.591791956
2.057589530944824	9082545.440362062
2.0609018802642822	9453259.76787619
2.0642096996307373	9515514.357490152
2.0675129890441895	9753636.937944276
2.0708119869232178	9946154.883088116
2.074106216430664	10019897.259788148
2.0773961544036865	10083173.978195738
2.080681324005127	10218119.053972848
2.0839622020721436	10355647.625856206
2.087238311767578	10438842.12407806
2.090510129928589	10522177.904638832
2.0937774181365967	10500679.048685264
2.0970399379730225	10387895.674778486
2.1002981662750244	10200490.86924377
2.1035518646240234	9993574.17556742
2.1068007946014404	9822712.673567455
2.1100454330444336	9666968.785029842
2.1132853031158447	9611705.543571148
2.116520881652832	9422810.430082502
2.1197516918182373	9161867.406749893
2.1229779720306396	9069274.904103039
2.12619948387146	8953611.647472855
2.1294167041778564	8754518.717888637
2.132629156112671	8611620.148866745
2.1358368396759033	8436671.497576715
2.139039993286133	8060816.014033783
2.1422386169433594	7446447.678009936
2.145432472229004	6861300.939458715
2.1486217975616455	6628340.074205996
2.151806354522705	6545419.384508443
2.1549863815307617	6396576.599349854
2.1581614017486572	6136735.266956508
2.16133189201355	5756613.736958813
2.1644976139068604	5439215.23981494
2.167658567428589	5177979.093144539
2.1708147525787354	4963945.381982096
2.173966407775879	4767451.109920498
2.1771130561828613	4492890.50496904
2.1802549362182617	4237618.237536817
2.183391809463501	3947249.19147845
2.1865241527557373	3603739.0900410544
2.1896514892578125	3166605.3342235996
2.1927738189697266	2557085.0748114684
2.1958916187286377	1845826.5212471755
2.1990041732788086	1176179.800094486
2.2021119594573975	793907.3565494048
2.2052149772644043	771297.9008414428
2.208312749862671	959974.5769443356
2.2114057540893555	1197876.6907122915
2.214493751525879	1387290.5812157998
2.217576742172241	1502641.0976249548
2.2206547260284424	1519423.1094925902
2.2237277030944824	1443451.9392710172
2.2267956733703613	1298947.6276403144
2.2298583984375	1153058.8956448946
2.2329163551330566	1082650.6377547244
2.235969066619873	1045506.1619561645
2.2390167713165283	949457.1982987963
2.2420592308044434	839215.1866744742
2.2450966835021973	762863.1457503428
2.248128890991211	699079.2606319198
2.2511560916900635	661686.2288737082
2.254178285598755	640822.6994678042
2.257194995880127	630650.7541621993
2.260206699371338	634004.4243128987
2.2632133960723877	648889.4370074115
2.266214609146118	669495.5161852287
2.2692108154296875	678465.9538245092
2.2722020149230957	680474.312814577
2.2751877307891846	664204.7957925407
2.278168201446533	651503.6321009326
2.2811436653137207	625685.9091071853
2.284113883972168	553473.1909597454
2.287078857421875	501351.2821762998
2.290038824081421	465638.91840851743
2.2929933071136475	432842.8032659999
2.295942783355713	441659.3724374603
2.298887014389038	502061.539639674
2.301826238632202	580407.6189869916
2.304760217666626	702393.256283509
2.3076889514923096	972908.8317527692
2.310612440109253	1325855.801537026
2.3135311603546143	1377467.11259345
2.3164443969726562	896775.6458305315
2.319352865219116	417891.454772284
2.322256088256836	331133.1486698705
2.3251543045043945	362165.1180888932
2.328047275543213	372018.1921687854
2.330935478210449	396715.78516754677
2.3338186740875244	426031.26855408837
2.3366971015930176	446896.09480617446
2.3395702838897705	461227.3170536746
2.3424389362335205	464035.9888123493
2.3453025817871094	443374.3032113662
2.348161458969116	439883.4926166127
2.351015567779541	478856.8469324687
2.353865146636963	528946.7665463879
2.3567099571228027	590534.4532766634
2.3595502376556396	701939.1162190279
2.3623859882354736	824618.1582290861
2.3652172088623047	863930.1251172778
2.368043899536133	737421.2756283348
2.370866537094116	481174.71844656346
2.3736846446990967	363937.99163090624
2.3764986991882324	423508.4990212492
2.3793084621429443	461655.93933643616
2.3821144104003906	456450.11933876056
2.384916305541992	520349.5365037892
2.387714147567749	660848.7418693706
2.3905084133148193	728250.8156047405
2.393299102783203	716176.1635525656
2.3960859775543213	743878.6310292269
2.398869514465332	851108.713575396
2.4016497135162354	969835.1180477149
2.4044265747070312	1032869.8596795484
2.407200336456299	1036352.4900541264
2.409970998764038	1113574.308275986
2.4127390384674072	1257177.851561513
2.415503978729248	1209359.3431141076
2.418266534805298	1092009.8701809254
2.4210267066955566	1108809.987980249
2.4237842559814453	1069271.6167910616
2.426539897918701	1013893.6282633414
2.429293394088745	1157613.9386541697
2.4320452213287354	1317740.6946495867
2.4347951412200928	1271919.1241187942
2.4375438690185547	1326007.2254379021
2.440291166305542	1524666.6663326093
2.443037271499634	1519917.2301411717
2.445782423019409	1412781.204346511
2.4485268592834473	1396286.5879013725
2.451270818710327	1390570.6216182928
2.454014539718628	1431021.8282975242
2.4567582607269287	1601539.9930892177
2.4595019817352295	1677092.150685287
2.4622461795806885	1762663.8884150751
2.4649908542633057	1913973.747642313
2.4677364826202393	1754842.2402795255
2.4704833030700684	1503977.2056274298
2.473231554031372	1420386.6268272067
2.4759814739227295	1463055.9879168998
2.4787333011627197	1535548.9012693658
2.481487512588501	1578169.8689820296
