#wavelength	surface flux
0.6450077295303345	665408.2782201782
0.6472567915916443	1053031.3096477527
0.6494921445846558	1385725.8858414015
0.6517150402069092	1609688.4378510271
0.6539263725280762	1844031.709165546
0.6561272740364075	2090779.2289204523
0.6583186388015747	2351244.116130876
0.6605015397071838	2618267.3202508935
0.6626768708229065	2862550.5761587108
0.6648455858230591	3013218.1490089563
0.6670085787773132	2876043.1541445707
0.6691668033599854	2256458.1301031928
0.6713210344314575	1936803.52377322
0.6734722256660461	2759288.0301936343
0.6756211519241333	3879577.7792850696
0.6777685880661011	4524544.562506736
0.6799154281616211	4932092.122744759
0.6820623278617859	5317395.320475781
0.6842101216316223	5690405.414969303
0.6863595843315125	6014522.231045646
0.688511312007904	6320538.687124825
0.6906660795211792	6559093.295972298
0.6928245425224304	6680928.582132823
0.6949873566627502	6816510.9096531
0.6971551775932312	6977119.501297486
0.6993286609649658	7012774.787619279
0.7015084028244019	6930368.435239884
0.7036949396133423	6697951.4931372125
0.7058889269828796	6217168.286465058
0.7080909013748169	5709074.55319285
0.710301399230957	5371305.144277626
0.712520956993103	5104404.034096227
0.7147500514984131	4843102.2197537655
0.7169892191886902	4605274.197748771
0.7192389369010925	4373716.281202599
0.7214996814727783	4109514.249474661
0.723771870136261	3815513.908824532
0.7260559797286987	3500809.1246852167
0.7283523678779602	3169378.2208930827
0.7306615710258484	2833120.466807731
0.7329838871955872	2503567.5697146524
0.7353196740150452	2185931.143342094
0.7376693487167358	1883992.9041874516
0.7400332689285278	1602369.0521224262
0.7424117922782898	1342210.3498937848
0.7448052167892456	1103768.148997842
0.7472138404846191	887291.6963741765
0.7496379613876343	692954.8813617115
0.7520779371261597	521273.7051995259
0.7545340061187744	372921.7234291323
0.7570064663887024	248698.25005950226
0.7594954967498779	149651.3376543305
0.7620013952255249	76868.4415416742
0.7645244002342224	31083.416119107867
0.7670646905899048	11035.848506431443
0.7696225643157959	12503.008164504572
0.7721980810165405	39804.25175651017
0.7747915983200073	101973.62875234865
0.7774031162261963	186881.42679181235
0.7800329327583313	307499.30502965214
0.7826811671257019	521690.14313181944
0.7853479981422424	810593.7095039523
0.7880334854125977	1128575.947471753
0.7907378077507019	1413836.3624103789
0.7934610247612	1593387.9860727258
0.7962033748626709	2019876.4288333855
0.7989648580551147	2856543.6230927366
0.801745593547821	3713392.1737101767
0.8045456409454346	4515984.440580166
0.8073651194572449	5395510.024646687
0.8102040886878967	6371470.0481275935
0.8130625486373901	7439545.192269258
0.8159406185150146	8419764.687782012
0.8188382983207703	9382136.929990167
0.8217556476593018	11033085.061259393
0.8246926665306091	13221983.624986015
0.8276493549346924	15296536.47779549
0.8306257724761963	17381542.21640484
0.8336219191551208	19665178.576054282
0.8366377949714661	22157477.88899711
0.8396733403205872	24772172.887869067
0.8427285552024841	27124664.358294345
0.8458034992218018	28842332.458964713
0.8488980531692505	28973883.650411982
0.8520121574401855	28897527.29182513
0.8551458716392517	33573216.716846
0.8582990765571594	38104503.699614406
0.8614717125892639	34233504.930329226
0.8646637797355652	29319003.396361846
0.8678751587867737	30282036.939826235
0.8711057901382446	32594372.77754906
0.8743556141853333	35354927.1729604
0.87762451171875	39967050.54655943
0.8809124231338501	45035538.850433014
0.8842192888259888	50369649.797612175
0.8875449895858765	55113355.71710675
0.8908893465995789	56365350.87731722
0.894252359867096	56760235.701596275
0.8976338505744934	66105274.8841468
0.9010337591171265	80195983.82612376
0.9044519662857056	89971290.25932586
0.9078882932662964	98366790.38831465
0.9113426208496094	108319380.7226238
0.914814829826355	118870498.08011648
0.9183048605918884	128062066.47615981
0.9218124747276306	132757362.19551462
0.925337553024292	128710053.25530557
0.9288799166679382	119650374.4731321
0.9324395060539246	119463081.20878962
0.9360161423683167	131336389.72905363
0.9396095871925354	145410503.2119865
0.943219780921936	155295472.16835976
0.9468464851379395	161047041.42045948
0.9504896402359009	164684649.52171534
0.9541489481925964	165405356.19904134
0.9578243494033813	163964658.67854998
0.9615156054496765	165419714.5923099
0.9652225375175476	174157312.69007283
0.9689450263977051	187630751.95635793
0.9726828336715698	200139589.16989395
0.9764357805252075	213082197.0086727
0.9802037477493286	227936229.78448012
0.983986496925354	239207121.05027565
0.9877838492393494	228178860.43278363
0.9915955662727356	188698708.96709684
0.9954215884208679	153244598.26769057
0.9992615580558777	129048396.3588899
1.0031154155731201	114985400.44688696
1.0069829225540161	120959413.9507129
1.0108637809753418	135487277.05313474
1.0147579908370972	150439720.81613967
1.018665075302124	165337190.2709877
1.022585153579712	177858557.93921605
1.0265177488327026	184827029.57446164
1.0304628610610962	194848273.17928126
1.0344202518463135	213013979.663982
1.0383895635604858	230790472.35024792
1.0423706769943237	242508150.1798122
1.0463634729385376	248017150.2683242
1.0503677129745483	246249958.65034625
1.0543830394744873	242683264.28189242
1.058409333229065	246012706.4906915
1.0624464750289917	257899004.32706505
1.0664942264556885	275917676.11675835
1.0705522298812866	298172191.2987329
1.0746204853057861	322841846.4406878
1.0786986351013184	346257950.28649676
1.0827864408493042	366016889.2948976
1.086883783340454	377535133.77606
1.0909905433654785	373291873.61365956
1.0951062440872192	352217375.3018949
1.0992310047149658	320877332.3576712
1.10336434841156	285868831.9984077
1.1075061559677124	253679647.85539997
1.1116561889648438	231219852.82659218
1.115814208984375	225137565.0214539
1.1199802160263062	234383372.57192767
1.124153733253479	254592161.15654
1.1283347606658936	261634861.4651556
1.1325229406356812	225766802.62474623
1.1367181539535522	178238947.60318828
1.1409201622009277	175037666.91408414
1.145128846168518	222871822.95537105
1.1493438482284546	270447976.442709
1.1535650491714478	280502248.019168
1.1577922105789185	271879887.67794716
1.1620250940322876	251903273.18760306
1.1662636995315552	207981804.28088677
1.170507550239563	165565514.89216226
1.174756646156311	142507351.51604316
1.1790107488632202	144086736.84895194
1.1832695007324219	187236360.72994
1.1875330209732056	244090756.10696757
1.191800832748413	282637067.2731675
1.1960728168487549	304898809.6503709
1.2003488540649414	322354552.4899769
1.2046287059783936	344928211.66375357
1.2089121341705322	368623317.6623279
1.2131990194320679	390856393.5300758
1.2174891233444214	412265409.1441492
1.2217823266983032	429154488.28193724
1.2260783910751343	446589008.5396311
1.230377197265625	459226789.41008645
1.2346785068511963	453272370.42140245
1.238982081413269	410406790.862229
1.2432878017425537	351452390.663187
1.2475954294204712	317214847.93826187
1.2519049644470215	299435615.7211121
1.256216049194336	346904928.39806354
1.2605286836624146	442518203.700216
1.2648425102233887	497726872.80721635
1.2691574096679688	522377560.43654263
1.2734732627868652	535438523.14502984
1.2777899503707886	542918684.3555015
1.2821072340011597	545334849.3460287
1.2864248752593994	537648248.1055061
1.2907428741455078	530341658.10747516
1.2950609922409058	531557984.8355084
1.2993791103363037	535514755.76472783
1.303696870803833	536560912.6754533
1.3080145120620728	530828510.823241
1.3123314380645752	518970496.9552973
1.3166478872299194	502228762.0856815
1.3209635019302368	470693527.79243684
1.3252781629562378	408576460.6581615
1.3295916318893433	303539406.6343551
1.3339040279388428	174743947.80880755
1.3382149934768677	83568422.05442396
1.3425244092941284	50986544.923370704
1.3468321561813354	41964347.98659557
1.3511382341384888	35595500.15830145
1.3554422855377197	31463184.57285116
1.3597444295883179	33246362.7727591
1.3640443086624146	40535971.74945732
1.3683418035507202	46417559.443624444
1.3726370334625244	51105186.17118653
1.3769296407699585	58328126.344177835
1.381219506263733	59185000.528670266
1.3855066299438477	53295003.44216973
1.3897908926010132	48220150.62811511
1.3940720558166504	43752986.11108634
1.3983501195907593	42052648.81700098
1.4026249647140503	44141929.14450541
1.4068963527679443	43871769.92385619
1.4111642837524414	40175034.95639247
1.4154287576675415	38478776.46419713
1.419689416885376	38121510.350641884
1.4239463806152344	37986836.83173478
1.4281994104385376	40648895.182622634
1.4324485063552856	44316021.76884806
1.436693549156189	46752600.314552434
1.440934419631958	49190282.614770755
1.4451709985733032	52840631.98855724
1.449403166770935	59829035.16541611
1.453631043434143	67908346.94674684
1.4578542709350586	74077276.10947086
1.4620729684829712	77394018.27638824
1.4662868976593018	77981775.8151021
1.4704961776733398	79539954.85023576
1.4747005701065063	84158694.3801523
1.4788999557495117	89277099.47141178
1.4830944538116455	92996475.79356845
1.4872838258743286	96624000.98429617
1.491468071937561	101010091.44274336
1.4956470727920532	106325859.27979277
1.4998208284378052	112659419.4084194
1.5039892196655273	119929824.87715584
1.5081522464752197	127223328.19429679
1.5123097896575928	134649493.01329347
1.5164618492126465	141567632.98668003
1.5206083059310913	149931766.5238062
1.5247491598129272	158585505.6688192
1.5288842916488647	165443372.65928572
1.5330137014389038	174114229.4629821
1.5371372699737549	182999857.84881106
1.541254997253418	189897409.3884726
1.545366883277893	198018036.47929266
1.5494728088378906	205823809.25221708
1.5535727739334106	210296201.00231442
1.5576666593551636	213976169.5457848
1.561754584312439	221717196.64484286
1.5658363103866577	232547584.60851568
1.5699119567871094	240536059.90891543
1.5739814043045044	245204287.0761794
1.5780447721481323	248622258.91855514
1.582101821899414	252292532.82967272
1.5861525535583496	256074743.125475
1.5901970863342285	258238888.54772225
1.5942351818084717	259430570.30513337
1.5982669591903687	259740574.34979612
1.6022924184799194	257856814.2504564
1.606311559677124	254982786.36383298
1.6103241443634033	252295937.1007305
1.6143304109573364	249194113.63192517
1.6183301210403442	245586923.56503895
1.6223233938217163	243276291.18740836
1.6263102293014526	242233288.12377587
1.6302905082702637	241621661.1787178
1.634264349937439	242774872.91166458
1.638231635093689	245844994.46254882
1.6421923637390137	247436460.91945347
1.646146535873413	246892637.90384915
1.6500942707061768	246459173.80802688
1.6540353298187256	243729682.68321034
1.6579699516296387	240203529.5728102
1.661897897720337	229004067.0593518
1.6658192873001099	193064801.56275362
1.6697341203689575	171927059.2653368
1.6736423969268799	195036535.42204744
1.677544116973877	217981398.73670858
1.6814392805099487	219896856.22429195
1.6853278875350952	212653598.05600888
1.6892099380493164	202975659.4907633
1.6930854320526123	193417636.83556628
1.696954369544983	184582890.98070148
1.7008168697357178	178662194.02427718
1.7046726942062378	175833963.20760632
1.708522081375122	173143698.2484603
1.712364912033081	167570898.2316058
1.7162011861801147	160504817.479641
1.7200311422348022	155608646.26209456
1.723854422569275	150102021.50478378
1.7276713848114014	142076050.52551737
1.731481909751892	133671822.05199543
1.7352858781814575	125558834.13579585
1.7390835285186768	118186016.67065534
1.7428747415542603	112081036.37767969
1.7466596364974976	106346671.12605812
1.7504380941390991	100145281.87520552
1.7542102336883545	91967713.42388096
1.7579760551452637	85000095.54132453
1.7617355585098267	81946758.87092546
1.7654887437820435	77201734.25908168
1.7692357301712036	69962813.36792326
1.7729763984680176	64041802.020384885
1.776710867881775	59607288.9251003
1.7804391384124756	56114768.09027113
1.7841613292694092	51726828.28013341
1.7878772020339966	48881995.94781257
1.7915871143341064	47238057.65813834
1.7952908277511597	45304226.38552642
1.7989884614944458	43570615.46693994
1.8026801347732544	39681428.90030084
1.806365728378296	37999981.32183199
1.8100452423095703	39761748.23682708
1.8137187957763672	41743612.33976256
1.817386507987976	39910584.93602075
1.8210482597351074	38870227.203757614
1.8247040510177612	42547711.33443337
1.828354001045227	41948849.674109526
1.8319982290267944	38539921.219509184
1.8356364965438843	37041293.528918184
1.8392690420150757	36664050.19571485
1.8428958654403687	36737386.12762533
1.8465168476104736	35034036.20220532
1.8501322269439697	33712439.71025428
1.8537418842315674	32327857.88824827
1.8573459386825562	28229506.416436885
1.860944390296936	25276548.560037937
1.864537239074707	25555207.73320303
1.8681244850158691	27040224.95853147
1.871706247329712	29190064.884401307
1.8752825260162354	32894113.41405584
1.8788533210754395	38443388.51542776
1.8824186325073242	43571780.96413425
1.8859784603118896	45513335.55177444
1.8895330429077148	45566913.61173399
1.8930821418762207	48102872.330681175
1.8966259956359863	51370962.030531175
1.9001644849777222	50699357.89554794
1.9036977291107178	49039550.25730108
1.9072256088256836	50461196.92361107
1.9107483625411987	50937530.74104746
1.9142658710479736	49605929.76791105
1.9177782535552979	49372201.03545603
1.9212853908538818	47094851.22739152
1.9247875213623047	44220333.32091036
1.9282845258712769	42389248.463264585
1.9317764043807983	39869085.26064349
1.9352631568908691	36986741.97296082
1.9387450218200684	33379780.198351167
1.942221760749817	33346194.653174177
1.9456936120986938	36559414.16307885
1.9491604566574097	38275938.255822465
1.952622413635254	37719224.049174085
1.956079363822937	35798363.0765497
1.959531545639038	35661082.476730704
1.962978720664978	36978332.515761256
1.966421127319336	39433466.35481768
1.9698586463928223	41136123.27236696
1.9732913970947266	39794047.59829512
1.9767193794250488	39637176.319257185
1.9801424741744995	41147255.76925655
1.9835609197616577	43534333.982482865
1.9869745969772339	45493541.724928446
1.990383505821228	44317665.57102275
1.9937876462936401	45772911.34741669
1.9971871376037598	48736610.093928136
2.000581979751587	50568880.82008791
2.003972291946411	53482040.420652226
2.007357597351074	53333482.20334364
2.0107386112213135	53538061.435359724
2.0141148567199707	57024169.65159996
2.017486572265625	58613164.13031951
2.0208535194396973	61760829.66612006
2.0242159366607666	65392117.227381274
2.027573823928833	64356331.67562245
2.0309269428253174	65330468.62623783
2.034275770187378	69692019.02589776
2.0376198291778564	71947735.15182236
2.040959596633911	72475233.57503027
2.044294595718384	74079984.18908118
2.0476250648498535	76704410.57239562
2.0509510040283203	77637842.80767375
2.054272413253784	78457128.54703075
2.057589530944824	82143614.17725012
2.0609018802642822	83626245.40125714
2.0642096996307373	83061500.94390588
2.0675129890441895	85020856.40068063
2.0708119869232178	86262785.74078412
2.074106216430664	85893738.9517318
2.0773961544036865	86532214.53591841
2.080681324005127	87703864.85303345
2.0839622020721436	88297198.46016824
2.087238311767578	88860361.47940189
2.090510129928589	89809554.11891428
2.0937774181365967	90256455.7655739
2.0970399379730225	90196834.62080826
2.1002981662750244	90020558.7709117
2.1035518646240234	89653581.97407769
2.1068007946014404	89260914.71209168
2.1100454330444336	89203831.54451816
2.1132853031158447	89784520.00636245
2.116520881652832	89536878.9573509
2.1197516918182373	88909894.64177102
2.1229779720306396	89227715.44484408
2.12619948387146	89060464.30145636
2.1294167041778564	88078895.02316763
2.132629156112671	87761350.59651347
2.1358368396759033	87466180.49152362
2.139039993286133	85994501.89879794
2.1422386169433594	84271945.48188595
2.145432472229004	83089935.38052957
2.1486217975616455	82188472.3336879
2.151806354522705	81485238.37018201
2.1549863815307617	81164542.72790653
2.1581614017486572	80495008.71003975
2.16133189201355	79281440.45862427
2.1644976139068604	78208979.28859685
2.167658567428589	77044183.2212635
2.1708147525787354	75561703.59689204
2.173966407775879	73697610.5925929
2.1771130561828613	71696140.11108331
2.1802549362182617	70179491.95623983
2.183391809463501	68355770.2675423
2.1865241527557373	65782910.94645833
2.1896514892578125	63029078.44552749
2.1927738189697266	59663895.14392019
2.1958916187286377	54485387.9956381
2.1990041732788086	47840336.50573653
2.2021119594573975	41633011.05289792
2.2052149772644043	37950962.1658095
2.208312749862671	38210912.385495216
2.2114057540893555	41287768.627397224
2.214493751525879	44881910.63750312
2.217576742172241	46996245.462228626
2.2206547260284424	47630578.24438529
2.2237277030944824	47534120.06380436
2.2267956733703613	45894973.02698663
2.2298583984375	44047303.65507697
2.2329163551330566	43053866.243146114
2.235969066619873	42141468.57056206
2.2390167713165283	40879421.50630826
2.2420592308044434	38971061.43261977
2.2450966835021973	37327556.35455647
2.248128890991211	36740280.72439689
2.2511560916900635	36521838.52794876
2.254178285598755	36266689.182335176
2.257194995880127	36187471.146467805
2.260206699371338	35971772.6012242
2.2632133960723877	35537188.49430103
2.266214609146118	35130427.66330372
2.2692108154296875	34676122.88863822
2.2722020149230957	34267256.221647255
2.2751877307891846	33903544.7890272
2.278168201446533	33131815.339476377
2.2811436653137207	31693721.177564565
2.284113883972168	30176380.73979533
2.287078857421875	29104227.60433745
2.290038824081421	27492776.25996455
2.2929933071136475	25690866.556234185
2.295942783355713	25263762.264774818
2.298887014389038	26443644.087509368
2.301826238632202	28360431.091358826
2.304760217666626	30656781.526708093
2.3076889514923096	33774021.62159797
2.310612440109253	36400136.5319673
2.3135311603546143	35388352.38181022
2.3164443969726562	29012595.115330946
2.319352865219116	22759797.642197568
2.322256088256836	20695176.36330885
2.3251543045043945	19838694.367125202
2.328047275543213	19376916.04269917
2.330935478210449	19736246.082471415
2.3338186740875244	20335223.317705773
2.3366971015930176	20955406.99050263
2.3395702838897705	21467846.143771604
2.3424389362335205	21760901.299451686
2.3453025817871094	21983326.921608634
2.348161458969116	22446374.36063258
2.351015567779541	23112881.393483363
2.353865146636963	24296851.719472222
2.3567099571228027	25554605.331464045
2.3595502376556396	26825686.8792003
2.3623859882354736	28593083.481744133
2.3652172088623047	29625879.975349497
2.368043899536133	27362614.344703484
2.370866537094116	21997009.432582747
2.3736846446990967	19740154.00619291
2.3764986991882324	20719898.002071235
2.3793084621429443	20268351.944503758
2.3821144104003906	19130333.44496059
2.384916305541992	19956860.49674252
2.387714147567749	22705985.478380572
2.3905084133148193	24388675.765629936
2.393299102783203	24699971.508006692
2.3960859775543213	25603955.171989933
2.398869514465332	27114686.78540058
2.4016497135162354	27893767.026707504
2.4044265747070312	28127438.595490407
2.407200336456299	27878317.70758795
2.409970998764038	27933352.858356144
2.4127390384674072	28822432.60069317
2.415503978729248	28456916.624457777
2.418266534805298	27593251.62183531
2.4210267066955566	27953459.16405035
2.4237842559814453	27738280.624434296
2.426539897918701	26658797.03007902
2.429293394088745	27018811.854716007
2.4320452213287354	27863239.441830423
2.4347951412200928	26644151.995419554
2.4375438690185547	26572565.377580523
2.440291166305542	27983245.366025377
2.443037271499634	26809361.465888944
2.445782423019409	25185854.57958472
2.4485268592834473	25265483.022084046
2.451270818710327	24533084.883447576
2.454014539718628	23797484.65409531
2.4567582607269287	25890194.771551818
2.4595019817352295	26247071.673824847
2.4622461795806885	25983279.923844155
2.4649908542633057	26850108.800298374
2.4677364826202393	24268572.36255535
2.4704833030700684	21578626.710926596
2.473231554031372	20643769.23026809
2.4759814739227295	20875068.08583406
2.4787333011627197	21743329.10754282
2.481487512588501	21991585.42554006
