#wavelength	surface flux
0.6450077295303345	485696.7249816664
0.6472567915916443	749808.8007253073
0.6494921445846558	943314.7588562914
0.6517150402069092	1038336.5291579358
0.6539263725280762	1132071.1126214864
0.6561272740364075	1230225.2986137224
0.6583186388015747	1332466.1274424444
0.6605015397071838	1438060.566785003
0.6626768708229065	1543831.9159903699
0.6648455858230591	1637221.9756216886
0.6670085787773132	1642998.8527336046
0.6691668033599854	1420866.1891456537
0.6713210344314575	1264289.6721146244
0.6734722256660461	1620048.8932561574
0.6756211519241333	2129007.7256223354
0.6777685880661011	2412357.9571981835
0.6799154281616211	2596645.313624678
0.6820623278617859	2762061.4306079247
0.6842101216316223	2921783.918631481
0.6863595843315125	3072729.299916682
0.688511312007904	3209940.2917405474
0.6906660795211792	3352875.4997171583
0.6928245425224304	3512314.7626117654
0.6949873566627502	3674286.629191526
0.6971551775932312	3829444.512383209
0.6993286609649658	3971904.265804124
0.7015084028244019	4101802.7672037613
0.7036949396133423	4222017.601029515
0.7058889269828796	4331020.395798061
0.7080909013748169	4426475.175447173
0.710301399230957	4508258.586809252
0.712520956993103	4572036.375086479
0.7147500514984131	4604476.576711242
0.7169892191886902	4607007.364519976
0.7192389369010925	4609206.8352304
0.7214996814727783	4607522.882727834
0.723771870136261	4573845.429687355
0.7260559797286987	4509471.804435834
0.7283523678779602	4418261.735909903
0.7306615710258484	4299135.07300327
0.7329838871955872	4160594.4806214254
0.7353196740150452	3999864.203303144
0.7376693487167358	3811329.5751779834
0.7400332689285278	3600662.2007218916
0.7424117922782898	3368572.982301895
0.7448052167892456	3115044.672258357
0.7472138404846191	2842580.5177932116
0.7496379613876343	2552884.2406766196
0.7520779371261597	2248160.20766794
0.7545340061187744	1932116.346855129
0.7570064663887024	1607482.1139575646
0.7594954967498779	1275923.5343833184
0.7620013952255249	933190.9675432147
0.7645244002342224	588758.3238294288
0.7670646905899048	351025.25677683105
0.7696225643157959	346234.9877923919
0.7721980810165405	600497.1023705106
0.7747915983200073	966537.4336583633
0.7774031162261963	1080001.262695945
0.7800329327583313	1045675.6682378097
0.7826811671257019	1642669.82623811
0.7853479981422424	2760939.0438820515
0.7880334854125977	3619404.7131164204
0.7907378077507019	3754117.7036060146
0.7934610247612	3019588.616983102
0.7962033748626709	3139062.6235373323
0.7989648580551147	5227291.766815571
0.801745593547821	7491222.108380476
0.8045456409454346	8978043.391613873
0.8073651194572449	10187238.816439286
0.8102040886878967	11334089.742511556
0.8130625486373901	12500059.898433667
0.8159406185150146	13655578.357232627
0.8188382983207703	14804898.535599945
0.8217556476593018	16288637.760949366
0.8246926665306091	18117749.090865433
0.8276493549346924	19912781.096393634
0.8306257724761963	21621253.472768325
0.8336219191551208	23369661.56107439
0.8366377949714661	25197092.142684534
0.8396733403205872	27093881.96716757
0.8427285552024841	29013921.983000614
0.8458034992218018	30439273.73437759
0.8488980531692505	28944780.40322539
0.8520121574401855	26010962.794983
0.8551458716392517	29910296.926668517
0.8582990765571594	37193689.051063865
0.8614717125892639	38309109.80229108
0.8646637797355652	36542364.0419088
0.8678751587867737	37660290.261528894
0.8711057901382446	40528374.448213145
0.8743556141853333	45255979.73617966
0.87762451171875	50948511.442644194
0.8809124231338501	53199807.77861854
0.8842192888259888	54487365.851527914
0.8875449895858765	57846951.2466648
0.8908893465995789	56617189.25850447
0.894252359867096	51605294.56228655
0.8976338505744934	57210021.34957889
0.9010337591171265	67753995.73085974
0.9044519662857056	72320567.6746496
0.9078882932662964	75561920.61458288
0.9113426208496094	79883185.25225233
0.914814829826355	84429620.7457797
0.9183048605918884	87812029.23369606
0.9218124747276306	88923436.77406329
0.925337553024292	85687571.4646834
0.9288799166679382	79531306.48311968
0.9324395060539246	79732166.83754376
0.9360161423683167	88413091.55619645
0.9396095871925354	98009585.76127675
0.943219780921936	103179756.76916999
0.9468464851379395	105536018.23063084
0.9504896402359009	109134274.62041172
0.9541489481925964	112474839.58840184
0.9578243494033813	113481313.34646198
0.9615156054496765	113251688.95765084
0.9652225375175476	117512603.05010489
0.9689450263977051	126447511.49024531
0.9726828336715698	134134062.22752123
0.9764357805252075	141030470.95159572
0.9802037477493286	147474007.99373022
0.983986496925354	152571289.91513854
0.9877838492393494	156263002.06050712
0.9915955662727356	157342650.18788123
0.9954215884208679	160316748.5585359
0.9992615580558777	166340568.10901427
1.0031154155731201	170809657.27071235
1.0069829225540161	174665601.46363574
1.0108637809753418	179612447.9389224
1.0147579908370972	183429870.58003032
1.018665075302124	186071999.60413477
1.022585153579712	188637521.24856716
1.0265177488327026	191230483.86136526
1.0304628610610962	195524168.13283637
1.0344202518463135	200967245.52396885
1.0383895635604858	205172305.55521744
1.0423706769943237	207331365.15998465
1.0463634729385376	207500305.182874
1.0503677129745483	204489209.63101745
1.0543830394744873	201656219.67534894
1.058409333229065	204397589.50584775
1.0624464750289917	212433912.1000373
1.0664942264556885	220080596.40816492
1.0705522298812866	224031880.13717404
1.0746204853057861	225654230.64082867
1.0786986351013184	227001238.85169747
1.0827864408493042	231688276.40033785
1.086883783340454	248944972.89727283
1.0909905433654785	280544434.82435185
1.0951062440872192	293620293.4799264
1.0992310047149658	273899727.97047013
1.10336434841156	244388557.80720285
1.1075061559677124	214164076.92155132
1.1116561889648438	186575612.3809707
1.115814208984375	171669945.24167854
1.1199802160263062	173207737.44911364
1.124153733253479	187803650.62430283
1.1283347606658936	195669353.22957814
1.1325229406356812	172041432.28999445
1.1367181539535522	146790516.6989142
1.1409201622009277	152641054.81358302
1.145128846168518	176274819.04386365
1.1493438482284546	194148951.8087371
1.1535650491714478	191971516.21877432
1.1577922105789185	181432740.84574124
1.1620250940322876	170202142.69827345
1.1662636995315552	149235836.71562442
1.170507550239563	130224498.45681988
1.174756646156311	124359481.42921892
1.1790107488632202	136621694.34323174
1.1832695007324219	177448324.9545692
1.1875330209732056	221116868.89425614
1.191800832748413	242855034.49074772
1.1960728168487549	251088972.37018335
1.2003488540649414	258128022.57408166
1.2046287059783936	267946589.35277304
1.2089121341705322	278505231.9573285
1.2131990194320679	291028545.40380865
1.2174891233444214	300829929.88032377
1.2217823266983032	299608820.04735327
1.2260783910751343	295358956.1866441
1.230377197265625	297537835.9915256
1.2346785068511963	298649052.8808462
1.238982081413269	284202077.2778469
1.2432878017425537	265670102.42262268
1.2475954294204712	258347465.80588317
1.2519049644470215	254530047.26732093
1.256216049194336	274681170.4666116
1.2605286836624146	310293086.9186392
1.2648425102233887	332471531.5366848
1.2691574096679688	353110979.2626073
1.2734732627868652	369403952.86258966
1.2777899503707886	378731062.5840112
1.2821072340011597	387617305.92560995
1.2864248752593994	392714572.6184565
1.2907428741455078	393892816.4390546
1.2950609922409058	391332012.5223556
1.2993791103363037	389253806.985914
1.303696870803833	390392477.49469227
1.3080145120620728	387709341.3952758
1.3123314380645752	384137189.41014844
1.3166478872299194	380075477.7516097
1.3209635019302368	365726135.566046
1.3252781629562378	333662875.9834441
1.3295916318893433	268135121.52642068
1.3339040279388428	164851098.34382278
1.3382149934768677	70603078.04423076
1.3425244092941284	28355441.927966688
1.3468321561813354	18909663.714058124
1.3511382341384888	13881729.98007786
1.3554422855377197	10541304.70488176
1.3597444295883179	12811856.009289177
1.3640443086624146	19677651.439041454
1.3683418035507202	25377210.230967317
1.3726370334625244	32081815.98565253
1.3769296407699585	40601177.018643156
1.381219506263733	38492153.66816348
1.3855066299438477	27711254.893600855
1.3897908926010132	20242984.275398895
1.3940720558166504	17150646.99929675
1.3983501195907593	18648196.100945067
1.4026249647140503	24415243.01452528
1.4068963527679443	26567744.061201762
1.4111642837524414	23240098.01474647
1.4154287576675415	21013189.435500912
1.419689416885376	19960794.004701816
1.4239463806152344	20892596.57035804
1.4281994104385376	25699467.383060277
1.4324485063552856	29120804.387563672
1.436693549156189	30091777.185373425
1.440934419631958	32866441.29435837
1.4451709985733032	37618454.98515799
1.449403166770935	43747729.21543803
1.453631043434143	50773908.277954146
1.4578542709350586	58391133.455836326
1.4620729684829712	62729478.2820199
1.4662868976593018	62997980.83633471
1.4704961776733398	65571355.41034282
1.4747005701065063	70268768.13286543
1.4788999557495117	72461944.01339759
1.4830944538116455	73631031.20609714
1.4872838258743286	76297572.67785749
1.491468071937561	79967933.82689658
1.4956470727920532	86097988.75731935
1.4998208284378052	93450117.20326813
1.5039892196655273	98258003.4955829
1.5081522464752197	101439957.61736262
1.5123097896575928	105015961.96699598
1.5164618492126465	110759938.15690722
1.5206083059310913	117816832.4609037
1.5247491598129272	122878213.28368936
1.5288842916488647	127455415.38263747
1.5330137014389038	129933103.31185102
1.5371372699737549	129841334.67312081
1.541254997253418	131052740.23399585
1.545366883277893	133216510.65572095
1.5494728088378906	133554716.32872736
1.5535727739334106	134384180.38567382
1.5576666593551636	136572322.8987335
1.561754584312439	136188770.6132143
1.5658363103866577	135476352.5744992
1.5699119567871094	138560556.72030097
1.5739814043045044	144104125.420581
1.5780447721481323	148453516.57088056
1.582101821899414	150445192.1549485
1.5861525535583496	151511254.37065166
1.5901970863342285	149877414.2066499
1.5942351818084717	146503943.44412878
1.5982669591903687	146514308.09452653
1.6022924184799194	148524281.8960597
1.606311559677124	149594806.53566974
1.6103241443634033	149148289.21955103
1.6143304109573364	144713349.09323898
1.6183301210403442	128149739.58939037
1.6223233938217163	99205768.07208695
1.6263102293014526	75531489.01519534
1.6302905082702637	65272602.71900961
1.634264349937439	64773376.508715026
1.638231635093689	76244830.5764491
1.6421923637390137	90982099.12058145
1.646146535873413	93613005.14181605
1.6500942707061768	89641012.39439532
1.6540353298187256	88701749.20911111
1.6579699516296387	94419833.2637638
1.661897897720337	95782563.64911535
1.6658192873001099	72513928.16795741
1.6697341203689575	62054859.55500973
1.6736423969268799	84085086.40689957
1.677544116973877	94858217.05857848
1.6814392805099487	85936113.1203165
1.6853278875350952	75637627.35298179
1.6892099380493164	69757158.02376194
1.6930854320526123	65754633.87621906
1.696954369544983	56896806.543240145
1.7008168697357178	42937823.993209764
1.7046726942062378	36735921.99438149
1.708522081375122	46383859.90972976
1.712364912033081	62685023.24397021
1.7162011861801147	73018700.36026622
1.7200311422348022	70913702.25034489
1.723854422569275	57335440.966543354
1.7276713848114014	44096299.759670585
1.731481909751892	40187673.70493466
1.7352858781814575	42557671.94677772
1.7390835285186768	46164165.85959264
1.7428747415542603	48594901.733179696
1.7466596364974976	48494499.576106474
1.7504380941390991	46982459.49484429
1.7542102336883545	44537364.04334632
1.7579760551452637	41147962.141793534
1.7617355585098267	37384239.12710639
1.7654887437820435	33103953.889618568
1.7692357301712036	29495170.341074977
1.7729763984680176	26937324.41439833
1.776710867881775	26001165.196743347
1.7804391384124756	25892237.856102217
1.7841613292694092	22957313.17195682
1.7878772020339966	19326636.0888996
1.7915871143341064	17161967.864514716
1.7952908277511597	16940529.59869946
1.7989884614944458	17957160.24293066
1.8026801347732544	16032000.846041454
1.806365728378296	14687468.084696073
1.8100452423095703	16385556.370883012
1.8137187957763672	17228069.226404987
1.817386507987976	15848449.783311768
1.8210482597351074	17273678.968036596
1.8247040510177612	21301176.381107986
1.828354001045227	19786968.90612334
1.8319982290267944	16857807.572267994
1.8356364965438843	16253706.515057696
1.8392690420150757	15532996.30641622
1.8428958654403687	16075517.636265898
1.8465168476104736	16188717.187833771
1.8501322269439697	15661376.318798626
1.8537418842315674	15052757.075146237
1.8573459386825562	13380509.471841
1.860944390296936	12033438.071094919
1.864537239074707	11658929.07345796
1.8681244850158691	11570100.702702425
1.871706247329712	12648170.697954698
1.8752825260162354	16075636.90079566
1.8788533210754395	20886690.6878863
1.8824186325073242	23932162.96374098
1.8859784603118896	23647061.050788924
1.8895330429077148	23245731.041698422
1.8930821418762207	25808981.876462497
1.8966259956359863	27287319.37713446
1.9001644849777222	24917892.52880777
1.9036977291107178	23496470.71927957
1.9072256088256836	24632715.704731412
1.9107483625411987	24681813.369343568
1.9142658710479736	23961609.132359527
1.9177782535552979	24385228.42938178
1.9212853908538818	23099537.383196287
1.9247875213623047	20613947.715998035
1.9282845258712769	18963003.97994822
1.9317764043807983	17979023.55560145
1.9352631568908691	17542804.32480459
1.9387450218200684	16053273.500513168
1.942221760749817	16013520.29825219
1.9456936120986938	17813979.703488026
1.9491604566574097	19123958.3402592
1.952622413635254	19050369.022874027
1.956079363822937	17526588.00712505
1.959531545639038	17545617.95439652
1.962978720664978	19059364.972076446
1.966421127319336	21202868.260195084
1.9698586463928223	22108125.784808997
1.9732913970947266	21342336.586979143
1.9767193794250488	22443161.022203438
1.9801424741744995	24250597.989584774
1.9835609197616577	26358692.212666664
1.9869745969772339	27451478.915312536
1.990383505821228	25850092.42079444
1.9937876462936401	27171319.881574463
1.9971871376037598	29494833.284800798
2.000581979751587	30441414.314826988
2.003972291946411	32574053.43030498
2.007357597351074	32984368.56021186
2.0107386112213135	33968612.18597685
2.0141148567199707	36754050.909590244
2.017486572265625	37024861.58800934
2.0208535194396973	37444800.64678447
2.0242159366607666	38783324.71010771
2.027573823928833	38647778.915089
2.0309269428253174	39662881.798233435
2.034275770187378	41503614.183658116
2.0376198291778564	41615684.094055295
2.040959596633911	41158333.16620186
2.044294595718384	41862485.89967668
2.0476250648498535	42965231.19133452
2.0509510040283203	43072755.08748294
2.054272413253784	43355189.94516167
2.057589530944824	45184083.70025126
2.0609018802642822	46434175.82984928
2.0642096996307373	46170645.18979416
2.0675129890441895	46662930.052902564
2.0708119869232178	47355484.922584854
2.074106216430664	47200167.76892354
2.0773961544036865	47356127.27086132
2.080681324005127	47457796.18744264
2.0839622020721436	47210735.36819234
2.087238311767578	47327990.672915354
2.090510129928589	47928258.21192097
2.0937774181365967	48497611.733194314
2.0970399379730225	48565859.5149179
2.1002981662750244	48387341.10924817
2.1035518646240234	48388706.67562175
2.1068007946014404	48528185.61892204
2.1100454330444336	48413359.88709214
2.1132853031158447	48290643.8556126
2.116520881652832	48042436.15770477
2.1197516918182373	47876187.772174545
2.1229779720306396	48251208.215887666
2.12619948387146	48425251.92282608
2.1294167041778564	48067797.34254312
2.132629156112671	47833554.51335607
2.1358368396759033	47852482.281358585
2.139039993286133	47491277.88698773
2.1422386169433594	46427901.12400591
2.145432472229004	45355949.34530262
2.1486217975616455	44289129.37581831
2.151806354522705	43191846.14466254
2.1549863815307617	43332191.55075316
2.1581614017486572	43893045.018179975
2.16133189201355	43515088.43640413
2.1644976139068604	43486981.142352834
2.167658567428589	44086074.65555039
2.1708147525787354	44295946.23288305
2.173966407775879	44321066.35897274
2.1771130561828613	44409304.78966326
2.1802549362182617	44607988.22416981
2.183391809463501	44697231.564903654
2.1865241527557373	44871763.40103053
2.1896514892578125	45177239.58163188
2.1927738189697266	44703714.584198125
2.1958916187286377	39599719.65790418
2.1990041732788086	28541546.65472293
2.2021119594573975	21801148.895421207
2.2052149772644043	26611798.068381358
2.208312749862671	35949598.875518315
2.2114057540893555	40655233.023730405
2.214493751525879	38612364.160002775
2.217576742172241	32287176.658491887
2.2206547260284424	26208529.152795937
2.2237277030944824	22827289.781818412
2.2267956733703613	19547197.164509468
2.2298583984375	16588872.480100812
2.2329163551330566	16312996.821161898
2.235969066619873	17904597.829466835
2.2390167713165283	18521596.265900943
2.2420592308044434	17009167.380613223
2.2450966835021973	15030731.894677386
2.248128890991211	14204300.63719151
2.2511560916900635	14338835.425970506
2.254178285598755	14430273.778089348
2.257194995880127	15491311.142425451
2.260206699371338	17257372.6940597
2.2632133960723877	17665809.144731972
2.266214609146118	17505305.518060494
2.2692108154296875	18358171.98743177
2.2722020149230957	20304549.508466862
2.2751877307891846	21498470.243035994
2.278168201446533	22422168.862063445
2.2811436653137207	22156066.285317447
2.284113883972168	18733991.875550468
2.287078857421875	15202156.99453749
2.290038824081421	13255892.141368108
2.2929933071136475	12181174.679018073
2.295942783355713	11728001.465140844
2.298887014389038	12573369.02241249
2.301826238632202	14521875.621353272
2.304760217666626	17788385.309502516
2.3076889514923096	23070055.206282716
2.310612440109253	29355682.72617205
2.3135311603546143	30193586.15213292
2.3164443969726562	20311702.9360678
2.319352865219116	11923798.803975265
2.322256088256836	14221170.14436361
2.3251543045043945	19125987.221716862
2.328047275543213	21190590.953909453
2.330935478210449	19516481.94748108
2.3338186740875244	15090564.53751263
2.3366971015930176	11339784.497320738
2.3395702838897705	10146786.659364926
2.3424389362335205	10204761.435804058
2.3453025817871094	9560775.896384284
2.348161458969116	9502117.580745475
2.351015567779541	10796344.243810821
2.353865146636963	12747359.38786926
2.3567099571228027	16358854.296082487
2.3595502376556396	20993728.13677937
2.3623859882354736	23567030.356288504
2.3652172088623047	22268623.39363107
2.368043899536133	16316261.202731092
2.370866537094116	9302662.672848538
2.3736846446990967	7527623.02168035
2.3764986991882324	11074765.062338544
2.3793084621429443	16377484.929291068
2.3821144104003906	18970183.69112681
2.384916305541992	18387429.508991357
2.387714147567749	19142155.03674847
2.3905084133148193	20758340.338336147
2.393299102783203	18905915.02757746
2.3960859775543213	14048977.381552031
2.398869514465332	10744655.41962212
2.4016497135162354	10477737.604480868
2.4044265747070312	11303074.771202777
2.407200336456299	12202703.872347124
2.409970998764038	13293308.580503918
2.4127390384674072	14406956.6070879
2.415503978729248	13660535.949131949
2.418266534805298	11840354.16629299
2.4210267066955566	11507270.036975008
2.4237842559814453	11009507.007211288
2.426539897918701	10286100.45735695
2.429293394088745	12480503.592793897
2.4320452213287354	15403646.848340856
2.4347951412200928	14190413.219843073
2.4375438690185547	13343765.570805166
2.440291166305542	15376045.886862123
2.443037271499634	15167693.885673014
2.445782423019409	13568756.686295671
2.4485268592834473	13838200.439536732
2.451270818710327	14126602.79341222
2.454014539718628	13388459.51341546
2.4567582607269287	13379518.739955975
2.4595019817352295	13767658.594440097
2.4622461795806885	15344996.716893809
2.4649908542633057	16288744.088197807
2.4677364826202393	13994767.969909048
2.4704833030700684	12556220.806791384
2.473231554031372	12744125.163118007
2.4759814739227295	12770290.90151398
