#wavelength	surface flux
0.6450077295303345	175608.62734253204
0.6472567915916443	269496.51127376844
0.6494921445846558	335466.74420470395
0.6517150402069092	364599.0732150924
0.6539263725280762	392619.2280742976
0.6561272740364075	421698.22442441765
0.6583186388015747	451929.5117726353
0.6605015397071838	483286.1877209318
0.6626768708229065	515005.1159614389
0.6648455858230591	544434.206882395
0.6670085787773132	552259.1164361773
0.6691668033599854	497294.0950520845
0.6713210344314575	458337.43981511565
0.6734722256660461	559387.1495142843
0.6756211519241333	697715.0831330894
0.6777685880661011	771581.0314164135
0.6799154281616211	821343.3993602224
0.6820623278617859	867861.0017390029
0.6842101216316223	913885.2457601837
0.6863595843315125	959752.0447636384
0.688511312007904	1004856.7203532982
0.6906660795211792	1047270.9029935629
0.6928245425224304	1089169.3256916003
0.6949873566627502	1137177.5726346702
0.6971551775932312	1188541.1625283796
0.6993286609649658	1235897.2610326542
0.7015084028244019	1280030.375547736
0.7036949396133423	1323769.4460122783
0.7058889269828796	1366873.7218167852
0.7080909013748169	1408184.0207769712
0.710301399230957	1446812.3965740092
0.712520956993103	1481281.6200875933
0.7147500514984131	1504044.0960121045
0.7169892191886902	1514485.809984634
0.7192389369010925	1533281.8398654608
0.7214996814727783	1560814.7774296226
0.723771870136261	1576293.8701764497
0.7260559797286987	1580494.8554811594
0.7283523678779602	1578751.5873671838
0.7306615710258484	1569433.0527841838
0.7329838871955872	1557339.9683600778
0.7353196740150452	1539182.3218042778
0.7376693487167358	1508696.2950924078
0.7400332689285278	1468932.8255797015
0.7424117922782898	1419850.5202750075
0.7448052167892456	1358912.2473102526
0.7472138404846191	1284775.6650588585
0.7496379613876343	1196244.344149856
0.7520779371261597	1091861.5276927932
0.7545340061187744	969575.0339658948
0.7570064663887024	827537.7342149881
0.7594954967498779	665838.0757866487
0.7620013952255249	484162.0758999818
0.7645244002342224	295800.7630688753
0.7670646905899048	165199.61661559867
0.7696225643157959	145406.43294061342
0.7721980810165405	201011.93295356477
0.7747915983200073	218555.42406454464
0.7774031162261963	133836.88502363596
0.7800329327583313	53088.637393617435
0.7826811671257019	115927.31176881722
0.7853479981422424	341744.9915804224
0.7880334854125977	550551.2169594791
0.7907378077507019	491825.8711698962
0.7934610247612	242928.1609944477
0.7962033748626709	219453.878080311
0.7989648580551147	712010.4689416748
0.801745593547821	1568966.9488983862
0.8045456409454346	2416641.360892094
0.8073651194572449	3082086.5747748762
0.8102040886878967	3598601.3357223775
0.8130625486373901	4043228.8420896195
0.8159406185150146	4500528.510411455
0.8188382983207703	4978633.897950146
0.8217556476593018	5422927.931039328
0.8246926665306091	5878915.950972357
0.8276493549346924	6366550.696873382
0.8306257724761963	6827514.419894641
0.8336219191551208	7280984.011299618
0.8366377949714661	7742181.540845306
0.8396733403205872	8193260.619830268
0.8427285552024841	8582301.561627656
0.8458034992218018	8545789.637039417
0.8488980531692505	7067572.91626754
0.8520121574401855	5156675.096746585
0.8551458716392517	6374294.287833574
0.8582990765571594	9584115.964984154
0.8614717125892639	11256649.685084786
0.8646637797355652	11869513.289890638
0.8678751587867737	12675643.354557104
0.8711057901382446	13612288.19811216
0.8743556141853333	14426473.683441725
0.87762451171875	15246178.88039091
0.8809124231338501	16041531.583391342
0.8842192888259888	16659635.461854838
0.8875449895858765	16618742.080732377
0.8908893465995789	14240101.506709779
0.894252359867096	10987272.922677267
0.8976338505744934	12645518.532632053
0.9010337591171265	17500443.3575774
0.9044519662857056	20245126.716471124
0.9078882932662964	21399180.49711395
0.9113426208496094	22227786.527107853
0.914814829826355	22952694.88409205
0.9183048605918884	23759494.742333252
0.9218124747276306	24374350.19257144
0.925337553024292	23032506.40367813
0.9288799166679382	19651809.8588902
0.9324395060539246	18081251.771835368
0.9360161423683167	20170067.742523726
0.9396095871925354	23229764.32155351
0.943219780921936	24347884.31885136
0.9468464851379395	24081418.446674414
0.9504896402359009	24414567.263621446
0.9541489481925964	24952399.089452304
0.9578243494033813	25170841.48402352
0.9615156054496765	25788179.111229192
0.9652225375175476	27595934.570585728
0.9689450263977051	30085336.159216795
0.9726828336715698	31948522.228815444
0.9764357805252075	33285839.05066616
0.9802037477493286	34593118.19682004
0.983986496925354	35880109.81245549
0.9877838492393494	37163022.74733896
0.9915955662727356	38245093.88027969
0.9954215884208679	39207558.68597471
0.9992615580558777	40150749.46368471
1.0031154155731201	40807128.84819297
1.0069829225540161	41220181.0841833
1.0108637809753418	41528708.38204996
1.0147579908370972	41671884.42206082
1.018665075302124	41695323.32969484
1.022585153579712	41727466.60712009
1.0265177488327026	41667351.795708805
1.0304628610610962	41488887.455581315
1.0344202518463135	41517295.52572907
1.0383895635604858	41606175.93883828
1.0423706769943237	41408216.447124705
1.0463634729385376	41157406.007676534
1.0503677129745483	41059112.64116153
1.0543830394744873	40983357.65932538
1.058409333229065	40772686.26846236
1.0624464750289917	40455081.07877296
1.0664942264556885	40152638.267899446
1.0705522298812866	39903204.924062416
1.0746204853057861	39702487.41831957
1.0786986351013184	39546306.03973992
1.0827864408493042	39463012.83837826
1.086883783340454	40179618.18333155
1.0909905433654785	42061052.10565979
1.0951062440872192	42813821.786658816
1.0992310047149658	40840267.035494074
1.10336434841156	36956273.8475668
1.1075061559677124	31832679.91191488
1.1116561889648438	26377607.313596167
1.115814208984375	22480384.84531474
1.1199802160263062	21890929.08718924
1.124153733253479	24756450.524863422
1.1283347606658936	27274053.640554924
1.1325229406356812	25530052.361580845
1.1367181539535522	25804473.86955557
1.1409201622009277	29903040.24009078
1.145128846168518	30815243.8095394
1.1493438482284546	29526295.691697147
1.1535650491714478	28516649.36614084
1.1577922105789185	28205929.5661327
1.1620250940322876	29395484.321078707
1.1662636995315552	31203209.352591455
1.170507550239563	32727577.70211874
1.174756646156311	33831563.607979596
1.1790107488632202	36136263.567549996
1.1832695007324219	39877953.63171435
1.1875330209732056	42298469.735720165
1.191800832748413	43698113.90164614
1.1960728168487549	45432810.37175178
1.2003488540649414	46426644.67965586
1.2046287059783936	46248664.83026577
1.2089121341705322	46405445.26020558
1.2131990194320679	47758279.995330185
1.2174891233444214	49372534.528323784
1.2217823266983032	50864443.55164128
1.2260783910751343	52663325.578553535
1.230377197265625	54843086.36508543
1.2346785068511963	56997542.500182964
1.238982081413269	58872537.66157985
1.2432878017425537	60689621.147282936
1.2475954294204712	62196932.86603281
1.2519049644470215	63745790.69977399
1.256216049194336	66536907.2617683
1.2605286836624146	69732039.19727977
1.2648425102233887	72784972.73425807
1.2691574096679688	76378327.64446034
1.2734732627868652	79725881.12608296
1.2777899503707886	82547270.99860907
1.2821072340011597	84967486.59868044
1.2864248752593994	86440279.80619007
1.2907428741455078	86922792.45555498
1.2950609922409058	86867476.73523858
1.2993791103363037	87213330.36207215
1.303696870803833	87723639.57484315
1.3080145120620728	87017536.66512169
1.3123314380645752	86221342.65183692
1.3166478872299194	86605063.04717772
1.3209635019302368	85373430.99873345
1.3252781629562378	80006317.09472471
1.3295916318893433	66620634.076072864
1.3339040279388428	43284488.64087884
1.3382149934768677	20037096.21940607
1.3425244092941284	7674208.509440392
1.3468321561813354	3992382.5182951214
1.3511382341384888	2274417.395789981
1.3554422855377197	1222830.8123892716
1.3597444295883179	1399050.0103234167
1.3640443086624146	2470321.645906839
1.3683418035507202	3504835.633229842
1.3726370334625244	5064899.067089166
1.3769296407699585	7124971.154254188
1.381219506263733	6476637.045929011
1.3855066299438477	3848342.180713985
1.3897908926010132	2454901.0055386866
1.3940720558166504	2295338.1475053644
1.3983501195907593	3109403.378526661
1.4026249647140503	4739258.003233638
1.4068963527679443	5471651.012455025
1.4111642837524414	4836646.214549193
1.4154287576675415	4307810.862658697
1.419689416885376	3920996.026979568
1.4239463806152344	4308483.7038539285
1.4281994104385376	6213181.150797931
1.4324485063552856	7516347.709844153
1.436693549156189	7747078.532842856
1.440934419631958	8550025.69583624
1.4451709985733032	10440236.479426103
1.449403166770935	13322435.886524785
1.453631043434143	16176804.377165057
1.4578542709350586	18433989.379565254
1.4620729684829712	19794045.658311754
1.4662868976593018	19841548.822641846
1.4704961776733398	19622736.170987975
1.4747005701065063	20349563.146072906
1.4788999557495117	21311509.31568549
1.4830944538116455	22099958.831156414
1.4872838258743286	22879620.83037856
1.491468071937561	24195847.546363886
1.4956470727920532	26368500.39598268
1.4998208284378052	28248914.545965
1.5039892196655273	29020207.570712186
1.5081522464752197	29728991.4106772
1.5123097896575928	31088373.04167607
1.5164618492126465	31946123.594988137
1.5206083059310913	33136526.056060642
1.5247491598129272	34622055.27352007
1.5288842916488647	35232858.24937344
1.5330137014389038	36307337.91592874
1.5371372699737549	37936696.3476251
1.541254997253418	38218747.1723097
1.545366883277893	37299758.945782565
1.5494728088378906	36759276.3583122
1.5535727739334106	37100708.2258882
1.5576666593551636	37423666.642814115
1.561754584312439	37276446.07269457
1.5658363103866577	36995895.022303574
1.5699119567871094	37158809.15223674
1.5739814043045044	37903106.00592484
1.5780447721481323	38252847.85559468
1.582101821899414	37599956.18245613
1.5861525535583496	36612546.73495563
1.5901970863342285	35911707.749947384
1.5942351818084717	35500295.29020241
1.5982669591903687	35482216.151723586
1.6022924184799194	35358379.86848007
1.606311559677124	34592621.61433083
1.6103241443634033	33300135.66331897
1.6143304109573364	30427773.2079457
1.6183301210403442	23171799.99708304
1.6223233938217163	13579112.58736769
1.6263102293014526	7988707.327042309
1.6302905082702637	6434258.520400411
1.634264349937439	6046794.146978178
1.638231635093689	7926165.128863492
1.6421923637390137	11318682.215543529
1.646146535873413	11833658.475722658
1.6500942707061768	10636270.259325959
1.6540353298187256	11017150.743991083
1.6579699516296387	12984056.024215339
1.661897897720337	13896872.30799408
1.6658192873001099	9787839.721426925
1.6697341203689575	6730721.455986824
1.6736423969268799	9681088.472030006
1.677544116973877	11842079.087755574
1.6814392805099487	9664956.47861966
1.6853278875350952	6586605.142161594
1.6892099380493164	5216771.861902095
1.6930854320526123	4912809.8280374175
1.696954369544983	4009112.820822396
1.7008168697357178	2299440.2499119295
1.7046726942062378	1486722.012003989
1.708522081375122	2604058.695170019
1.712364912033081	5317143.062342889
1.7162011861801147	7861605.863368621
1.7200311422348022	7330872.118353102
1.723854422569275	4348695.592308867
1.7276713848114014	2337393.22714484
1.731481909751892	2059101.5490329275
1.7352858781814575	2583969.769779949
1.7390835285186768	3457580.0803154083
1.7428747415542603	4298074.282557851
1.7466596364974976	4901115.04120127
1.7504380941390991	5429478.858607793
1.7542102336883545	5765460.242969429
1.7579760551452637	5507009.209819768
1.7617355585098267	4494266.671105714
1.7654887437820435	3576999.731748509
1.7692357301712036	3230949.4583001346
1.7729763984680176	2907892.288701023
1.776710867881775	3014855.413584894
1.7804391384124756	3435152.769512937
1.7841613292694092	2973378.2001359444
1.7878772020339966	2074943.7721311995
1.7915871143341064	1551723.242327874
1.7952908277511597	1697559.2805334686
1.7989884614944458	2140615.7986090337
1.8026801347732544	1836013.2235591647
1.806365728378296	1432477.6286812348
1.8100452423095703	1480380.7310574092
1.8137187957763672	1497662.3123633163
1.817386507987976	1540408.1923415265
1.8210482597351074	2139579.633038524
1.8247040510177612	2880336.114383092
1.828354001045227	2475029.9130758047
1.8319982290267944	1838827.8574554257
1.8356364965438843	1685469.8324981085
1.8392690420150757	1575709.4427413198
1.8428958654403687	1867426.093078658
1.8465168476104736	2115933.8770577097
1.8501322269439697	2083202.8881309775
1.8537418842315674	1932232.415674625
1.8573459386825562	1627002.2023507836
1.860944390296936	1430927.2051474256
1.864537239074707	1329757.132326239
1.8681244850158691	1162898.654690384
1.871706247329712	1216483.448256788
1.8752825260162354	1832387.8549170464
1.8788533210754395	2770923.0241579376
1.8824186325073242	3299685.2460047114
1.8859784603118896	3204283.0887325723
1.8895330429077148	3087253.0369886975
1.8930821418762207	3355736.8332211473
1.8966259956359863	3314231.706727356
1.9001644849777222	2640123.6846783524
1.9036977291107178	2407799.9318630714
1.9072256088256836	2740332.0203375616
1.9107483625411987	2692649.120477001
1.9142658710479736	2507535.42957535
1.9177782535552979	2750645.8799544084
1.9212853908538818	2772816.2337335474
1.9247875213623047	2414084.899941614
1.9282845258712769	2070454.988159681
1.9317764043807983	1904399.6275619033
1.9352631568908691	1825643.884030732
1.9387450218200684	1653457.6250697756
1.942221760749817	1860724.989997975
1.9456936120986938	2225471.994840109
1.9491604566574097	2476578.4396985625
1.952622413635254	2537415.3387105563
1.956079363822937	2334322.212697955
1.959531545639038	2435589.5885532675
1.962978720664978	2732970.218079882
1.966421127319336	3129209.649710869
1.9698586463928223	3369205.086533646
1.9732913970947266	3291627.0064340574
1.9767193794250488	3490060.479845765
1.9801424741744995	3881995.3473874037
1.9835609197616577	4385425.160737079
1.9869745969772339	4638558.827987463
1.990383505821228	4406458.771609431
1.9937876462936401	4574927.27097
1.9971871376037598	4908125.483188258
2.000581979751587	5090235.061288992
2.003972291946411	5358622.784709185
2.007357597351074	5529615.076503731
2.0107386112213135	5798211.722776175
2.0141148567199707	5882054.186860998
2.017486572265625	5643855.488011663
2.0208535194396973	5690128.693208904
2.0242159366607666	5953762.353028203
2.027573823928833	5988132.8789628
2.0309269428253174	5981780.369652108
2.034275770187378	6200190.481480495
2.0376198291778564	6368969.329035014
2.040959596633911	6348135.360731598
2.044294595718384	6336638.458372311
2.0476250648498535	6330674.303463372
2.0509510040283203	6238712.686553031
2.054272413253784	6264354.450701021
2.057589530944824	6449743.484007509
2.0609018802642822	6526424.23665487
2.0642096996307373	6506895.802857971
2.0675129890441895	6526001.009263999
2.0708119869232178	6552422.166136893
2.074106216430664	6568632.587934193
2.0773961544036865	6566098.667361743
2.080681324005127	6495028.508843805
2.0839622020721436	6440186.562031349
2.087238311767578	6474118.9689067295
2.090510129928589	6523261.249330802
2.0937774181365967	6556506.220346296
2.0970399379730225	6557111.289546885
2.1002981662750244	6521880.828154443
2.1035518646240234	6475639.574638699
2.1068007946014404	6462105.352893428
2.1100454330444336	6471000.42656232
2.1132853031158447	6468137.873685952
2.116520881652832	6446110.595332676
2.1197516918182373	6426180.196572824
2.1229779720306396	6439682.168711703
2.12619948387146	6450475.225303055
2.1294167041778564	6430618.535424198
2.132629156112671	6409917.40939811
2.1358368396759033	6401797.852999608
2.139039993286133	6296574.835270645
2.1422386169433594	6002691.60205398
2.145432472229004	5701215.078123276
2.1486217975616455	5412495.32453
2.151806354522705	5165961.376244083
2.1549863815307617	5208430.938124154
2.1581614017486572	5370875.946083341
2.16133189201355	5383540.622370959
2.1644976139068604	5402585.780074869
2.167658567428589	5481690.652017021
2.1708147525787354	5547528.500567097
2.173966407775879	5628939.875541707
2.1771130561828613	5688192.82130184
2.1802549362182617	5741972.01724865
2.183391809463501	5783064.925926153
2.1865241527557373	5889759.299272792
2.1896514892578125	6018249.921732851
2.1927738189697266	5942353.543805242
2.1958916187286377	4968397.021533958
2.1990041732788086	2997265.647001294
2.2021119594573975	1841710.4613838722
2.2052149772644043	2590591.5374699994
2.208312749862671	4154354.2024665205
2.2114057540893555	4966731.623798925
2.214493751525879	4500241.9997635335
2.217576742172241	3380014.243787737
2.2206547260284424	2466697.760977077
2.2237277030944824	1970370.3982297513
2.2267956733703613	1588439.4676389357
2.2298583984375	1322206.182752296
2.2329163551330566	1282111.8952552807
2.235969066619873	1426472.144253868
2.2390167713165283	1497238.5877543415
2.2420592308044434	1330993.253798056
2.2450966835021973	1126983.2354850254
2.248128890991211	1030918.4701050115
2.2511560916900635	1010183.641153262
2.254178285598755	1020861.4033730901
2.257194995880127	1186462.1766289384
2.260206699371338	1413541.3407339551
2.2632133960723877	1466123.7225606448
2.266214609146118	1441576.436615411
2.2692108154296875	1530762.0060067351
2.2722020149230957	1786695.9463540271
2.2751877307891846	1926304.1699031012
2.278168201446533	2032717.1916249765
2.2811436653137207	2010504.0332233445
2.284113883972168	1575726.2289352475
2.287078857421875	1157393.1909872415
2.290038824081421	963630.6794328225
2.2929933071136475	859079.8060319519
2.295942783355713	798969.6906924077
2.298887014389038	843852.4696535481
2.301826238632202	991945.4559708628
2.304760217666626	1327548.9915773596
2.3076889514923096	2116644.8220817945
2.310612440109253	3432971.2665755516
2.3135311603546143	4006010.61063279
2.3164443969726562	2602013.2279185858
2.319352865219116	1102582.438740672
2.322256088256836	1131403.8422485902
2.3251543045043945	1713865.3901908787
2.328047275543213	2014709.640275912
2.330935478210449	1788373.9433989339
2.3338186740875244	1253400.5300483098
2.3366971015930176	853812.6629736673
2.3395702838897705	736877.8565691556
2.3424389362335205	760339.2075981391
2.3453025817871094	699689.3405981937
2.348161458969116	686565.514998914
2.351015567779541	822796.8643819422
2.353865146636963	1018791.212495913
2.3567099571228027	1459448.0264410267
2.3595502376556396	2117357.2952865367
2.3623859882354736	2441468.990384456
2.3652172088623047	2171862.68428757
2.368043899536133	1443378.8223752743
2.370866537094116	713068.833580209
2.3736846446990967	545685.1572485976
2.3764986991882324	962719.4462691279
2.3793084621429443	1635222.9146802688
2.3821144104003906	1989468.887438867
2.384916305541992	1933613.8086303805
2.387714147567749	2005008.9855294412
2.3905084133148193	2165064.7439917545
2.393299102783203	1898363.8690933867
2.3960859775543213	1278984.6196519593
2.398869514465332	886963.6599477892
2.4016497135162354	866326.37878935
2.4044265747070312	969823.1568144651
2.407200336456299	1084929.1887769739
2.409970998764038	1245068.5118918708
2.4127390384674072	1422343.6140443478
2.415503978729248	1337137.1478752173
2.418266534805298	1097640.3776713482
2.4210267066955566	1043912.4546739624
2.4237842559814453	964034.2805679529
2.426539897918701	888347.7089963426
2.429293394088745	1248876.2788437973
2.4320452213287354	1678910.0884509725
2.4347951412200928	1494705.2977079311
2.4375438690185547	1349129.2628930963
2.440291166305542	1641313.6865439704
2.443037271499634	1695219.9502459748
2.445782423019409	1526321.8887775848
2.4485268592834473	1539388.1178698167
2.451270818710327	1682807.0014590304
2.454014539718628	1745140.6642174083
2.4567582607269287	1700457.9516472532
2.4595019817352295	1800358.26445999
2.4622461795806885	2151197.332648069
2.4649908542633057	2331469.613883609
2.4677364826202393	2122181.882347306
2.4704833030700684	2047940.602678854
2.473231554031372	2173062.2992375055
2.4759814739227295	2163230.3819297003
2.4787333011627197	2070189.5137706634
2.481487512588501	2182140.8071561777
2.4842441082000732	2775203.96695751
