#wavelength (micron)	surface_flux (erg / (cm2 micron s))
0.7011666666666666	977182.895441411
0.7023352777777778	1038235.3414813107
0.7035058365740741	1057605.8963384237
0.7046783463016977	1078438.891081151
0.7058528102122005	1101712.3059729761
0.7070292315625542	1124425.271204975
0.7082076136151585	1144782.98290989
0.7093879596378504	1165306.5928040314
0.7105702729039134	1184974.4804691074
0.7117545566920868	1204128.5623896285
0.7129408142865735	1221012.1042810944
0.7141290489770512	1237061.6539618867
0.7153192640586796	1246607.6202854523
0.7165114628321108	1242388.6958187076
0.7177056486034976	1232579.47537928
0.7189018246845036	1238369.3998012315
0.7200999943923111	1245671.8698549839
0.7213001610496316	1240510.8209643937
0.7225023279847144	1231065.2516466272
0.7237064985313556	1212457.7836146366
0.7249126760289079	1192892.2051812047
0.7261208638222895	1172712.9066433366
0.7273310652619932	1146893.278965873
0.7285432837040966	1114429.3681256806
0.72975752251027	1078153.1778037127
0.7309737850477873	1047099.3012807975
0.7321920746895336	1017189.3373017401
0.7334123948140163	991265.0920228123
0.7346347488053729	960071.4266076579
0.7358591400533818	925761.7696377196
0.7370855719534709	891529.4167356049
0.7383140479067267	860306.9561797857
0.7395445713199046	827692.2907485297
0.7407771456054377	795155.3661842359
0.7420117741814469	759912.6581681613
0.7432484604717493	728353.4303153113
0.744487207905869	725142.3388633267
0.7457280199190454	689313.4122723594
0.7469708999522439	624178.3959476231
0.7482158514521644	587681.7907006048
0.7494628778712513	549828.9596502623
0.7507119826677034	511958.3032279162
0.7519631693054829	474285.3945007988
0.7532164412543255	439018.443217727
0.7544718019897494	404194.9669500469
0.7557292549930656	368693.73175985285
0.7569888037513873	332751.1727052814
0.7582504517576398	297865.57466257515
0.7595142025105692	264521.56479067524
0.7607800595147535	225486.88529613134
0.7620480262806114	167261.51361352942
0.7633181063244125	94416.87026026257
0.7645903031682866	35487.025459327204
0.7658646203402337	8519.6939809801
0.7671410613741342	4038.1701301574294
0.7684196298097576	7938.957957216685
0.7697003291927741	6569.045244531221
0.770983163074762	13218.652794910411
0.77226813501322	37053.02512517477
0.7735552485715754	158130.09975877593
0.7748445073191947	136104.87763315957
0.7761359148313933	193061.65860068484
0.7774294746894457	261842.39588809517
0.7787251904805949	312577.3091125888
0.7800230657980626	281509.74156713753
0.7813231042410594	406360.3372120954
0.7826253094147945	585907.135996698
0.7839296849304858	689422.5698914796
0.7852362344053699	791245.6415599423
0.7865449614627122	897499.510929637
0.7878558697318168	1008389.9308127214
0.7891689628480365	1127306.8697135693
0.7904842444527834	1251452.1434921063
0.791801718193538	1377552.733277723
0.7931213877238606	1430244.569314227
0.7944432567034004	1127449.7289199317
0.795767328797906	1264464.4989532873
0.7970936076792359	1908710.448640749
0.7984220970253681	2181494.487962507
0.7997528005204104	2386092.8343291623
0.801085721854611	2588513.528510673
0.8024208647243688	2795729.388513226
0.8037582328322427	3002822.324531903
0.8050978298869632	3220205.309052892
0.8064396596034414	3449205.8591500125
0.8077837257027807	3681971.1562928744
0.8091300319122853	3922445.0681666904
0.8104785819654725	4188663.4111164324
0.8118293796020817	4454294.690799523
0.8131824285680851	4679267.0020132
0.8145377326156986	4949400.411923541
0.8158952955033916	5342877.98819228
0.8172551209958971	5630965.132732776
0.8186172128642236	5784552.265465988
0.819981574885664	6052251.129318299
0.8213482108438068	6571212.520543677
0.8227171245285466	6905991.753401521
0.8240883197360943	7169270.876356023
0.8254618002689877	7675098.401872831
0.8268375699361028	8144147.283220324
0.828215632552663	8548610.216869975
0.8295959919402508	8875724.08793225
0.830978651926818	9482238.400299152
0.832363616346696	10007887.179541323
0.8337508890406071	10461176.719161633
0.8351404738556749	10939377.86935718
0.8365323746454344	11422938.889082836
0.8379265952698435	11925862.838360293
0.8393231395952933	12480549.34196919
0.8407220114946187	13090080.394907169
0.8421232148471098	13644359.286457917
0.8435267535385217	14212255.9834178
0.8449326314610859	14777412.569753673
0.8463408525135211	15369479.991581643
0.8477514206010437	15996532.08167172
0.8491643396353787	16496407.30330111
0.8505796135347711	16405796.574942196
0.8519972462239958	13349845.17827847
0.8534172416343692	15128523.497942422
0.8548396037037598	19205611.55067383
0.8562643363765994	20358599.70658524
0.8576914436038937	21183547.954347093
0.8591209293432337	22073881.395600613
0.8605527975588058	22041228.94235422
0.8619870522214037	21029547.1258148
0.8634236973084395	21464001.42620324
0.8648627368039535	22681393.114690833
0.8663041746986269	23595253.48487226
0.8677480149897913	23992305.419526316
0.8691942616814409	24963733.89827132
0.8706429187842434	25862616.732343886
0.8720939903155505	26085116.493412845
0.8735474802994098	27168746.806796197
0.8750033927665755	28451735.731827922
0.8764617317545198	29766501.1618047
0.8779225013074441	29912025.53274791
0.8793857054762898	30169389.3015659
0.8808513483187503	31848797.123618003
0.8823194338992816	34514359.18140216
0.8837899662891138	35626867.26338926
0.8852629495662623	36393397.875088766
0.8867383878155394	38325242.708470896
0.8882162851285654	39202111.18134833
0.8896966456037797	39362433.305205904
0.8911794733464526	39937770.40045776
0.8926647724686968	39937211.940262906
0.894152547089478	32214303.863315873
0.8956428013346271	34585332.82359076
0.8971355393368516	45022922.417651586
0.8986307652357465	48728963.74686438
0.9001284831778059	49922350.043057285
0.9016286973164357	51298345.94925908
0.9031314118119631	53524001.85523055
0.9046366308316498	55275855.14520094
0.9061443585497025	55044420.42788469
0.9076545991472854	57375543.74022736
0.9091673568125309	60899710.937036134
0.9106826357405519	63646880.51761605
0.9122004401334528	65938067.83361198
0.9137207742003418	65601609.142676316
0.9152436421573426	66857868.769257955
0.9167690482276047	68953396.42427522
0.9182969966413176	70104731.17255698
0.9198274916357196	73169907.408623
0.9213605374551126	75789281.31564026
0.9228961383508711	78581363.21834557
0.924434298581456	79530829.990813
0.9259750224124251	76702448.27538182
0.9275183141164459	64729921.77174142
0.9290641779733066	53435665.04765312
0.9306126182699289	57221282.4748724
0.9321636393003788	59674284.65782718
0.9337172453658794	66681131.9900178
0.9352734407748227	77359188.7850929
0.9368322298427807	84800405.5824636
0.9383936168925188	87729300.52136093
0.9399576062540064	88255116.03384322
0.9415242022644297	92603988.239562
0.9430934092682037	90549856.73207773
0.9446652316169841	86507640.11697084
0.9462396736696792	90124147.70505886
0.947816739792462	99459924.66612576
0.9493964343587827	104492908.28157996
0.9509787617493808	94889009.7974385
0.9525637263522965	100586423.43705314
0.9541513325628838	111567213.74112813
0.9557415847838219	115769034.89444977
0.9573344874251283	116676747.39565933
0.9589300449041701	113844957.71941967
0.9605282616456772	108294228.26749155
0.9621291420817533	106932292.4455868
0.9637326906518895	121640078.71316513
0.9653389118029762	124415100.93267535
0.9669478099893144	117382722.93852583
0.96855938967263	125923128.98324287
0.9701736553220844	132386706.72424978
0.971790611414288	131513432.27412264
0.9734102624333119	135159943.01095024
0.9750326128707006	142839439.60294154
0.9766576672254852	147508845.1712558
0.9782854300041944	135719954.50622922
0.9799159057208682	140575730.23006895
0.9815490988970695	154229006.50937524
0.9831850140618982	148749181.58118746
0.9848236557520013	151188213.0831781
0.986465028511588	157690742.59507605
0.9881091368924407	151342587.4294569
0.9897559854539281	123447431.37743914
0.991405578763018	90949237.12307334
0.9930579213942898	91867993.12301752
0.994713017929947	105911123.15039243
0.9963708729598303	109389639.08205843
0.9980314910814301	104164376.2781375
0.9996948768998991	89721364.49444766
1.0013610350280657	86085463.39083764
1.0030299700864458	104726677.4169611
1.0047016867032565	108846379.04963838
1.0063761895144285	110717157.6888997
1.0080534831636194	121855051.8388198
1.0097335723022256	124988431.96931328
1.011416461589396	125284591.89462925
1.013102155692045	125902669.178042
1.014790659284865	130740556.4346853
1.01648197705034	127161591.58776405
1.018176113678757	127810812.24878813
1.0198730738682218	133454457.03821641
1.021572862324669	142769787.0822283
1.0232754837618767	148398890.6965383
1.0249809429014798	148145671.18976542
1.0266892444729823	134885656.8431873
1.0284003932137706	138205836.9208277
1.030114393869127	144874747.68158087
1.0318312511922423	149893568.98898396
1.0335509699442293	157135935.0338856
1.0352735548941365	166656992.91208538
1.0369990108189602	176924245.83241236
1.0387273425036585	174283167.82601473
1.0404585547411644	180802685.64749733
1.0421926523323999	173303898.95694807
1.0439296400862872	173639163.36561054
1.0456695228197646	191468373.45357347
1.0474123053577973	180165041.75556254
1.0491579925333938	182774173.98018086
1.0509065891876161	180243079.39999303
1.0526581001695956	181528935.58649218
1.0544125303365448	194093463.10569376
1.0561698845537726	189600290.37021777
1.0579301676946955	192971502.0544613
1.0596933846408534	194552092.69596907
1.0614595402819214	194718926.53325346
1.0632286395157247	207179570.18906063
1.065000687248251	209298584.2856154
1.0667756883936648	198901812.97203687
1.068553647874321	208341385.91227883
1.070334570620778	220375083.27343643
1.072118461571813	231680301.7446566
1.0739053256744326	237119977.55681276
1.07569516788389	237408405.0277114
1.0774879931636965	242526953.1441121
1.079283806485636	247742898.4787839
1.0810826128297788	243198793.47173372
1.0828844171844951	259954835.75415894
1.0846892245464692	262804775.25156668
1.0864970399207134	254360257.42332914
1.0883078683205814	268701621.6242698
1.0901217147677824	264977709.40450427
1.0919385842923954	242124165.1994947
1.0937584819328827	250477103.84338126
1.0955814127361043	241250971.39829051
1.0974073817573313	225071008.599329
1.09923639406026	226051702.4267164
1.1010684547170273	214154695.7898959
1.1029035688082225	209903723.507793
1.1047417414229028	189731599.09570622
1.1065829776586076	170906410.79127404
1.108427282621372	175009000.3472417
1.110274661425741	154450232.95524082
1.112125119194784	155569524.24725357
1.1139786610601086	175603571.05981025
1.1158352921618757	179985952.2206119
1.117695017648812	164263883.8818621
1.1195578426782267	160489957.18906638
1.1214237724160239	173624666.749129
1.1232928120367172	187888546.42325494
1.1251649667234453	201090086.2302097
1.1270402416679843	201847906.14949897
1.1289186420707642	207089796.22258574
1.1308001731408823	183293070.22776565
1.1326848400961171	143121077.41734537
1.1345726481629441	112409471.28275289
1.136463602576549	141292049.64051756
1.1383577085808434	141969272.8531196
1.1402549714284782	131961541.38465935
1.1421553963808588	142308051.37188646
1.1440589887081603	166035507.4068143
1.1459657536893408	187825715.7439361
1.1478756966121564	202395606.404404
1.1497888227731765	230456974.54485416
1.1517051374777987	219878984.7968186
1.1536246460402617	194155061.32287365
1.155547353783662	183347526.712664
1.1574732660399685	186387586.47504374
1.1594023881500348	186534393.48692325
1.1613347254636184	157462810.78811523
1.163270283339391	166693802.23659843
1.1652090671449569	162252843.26186058
1.1671510822568651	138115236.41997758
1.1690963340606266	103035821.07699029
1.1710448279507277	117172787.25861037
1.1729965693306457	136790049.8777093
1.1749515636128636	122887752.89624897
1.176909816218885	80798663.47868074
1.17887133257925	93335345.3894265
1.1808361181335487	143488299.2053365
1.182804178330438	156825185.3736398
1.1847755186276552	181618244.30640948
1.1867501444920348	236582026.9327644
1.1887280613995215	260209274.9865542
1.1907092748351875	252774196.15677726
1.1926937902932462	255827170.64540175
1.1946816132770681	242432928.87372792
1.1966727492991969	247809466.63917583
1.1986672038813622	247096559.08923492
1.2006649825544977	251213290.4314959
1.2026660908587554	267569258.45395
1.20467053434352	286665628.49834746
1.206678318567426	293058083.14757055
1.2086894490983717	289959455.38945854
1.2107039315135357	296486024.6907373
1.2127217713993916	308003458.2414842
1.214742974351724	328644914.4428871
1.2167675459756435	335050679.82826483
1.218795491885603	342094096.615555
1.2208268177054122	330920456.2615844
1.2228615290682547	328107071.8948515
1.2248996316167018	356033063.13959026
1.2269411310027298	377329165.0122745
1.2289860328877344	377343806.4545746
1.2310343429425474	370831776.2778511
1.2330860668474517	363951406.81754893
1.2351412102921975	359859067.56199044
1.2371997789760178	359081786.0014772
1.2392617786076445	337892687.33273613
1.241327214905324	294936104.7545219
1.243396093596833	261745184.95914048
1.2454684204194943	288527451.54648226
1.2475442011201936	320079059.501709
1.249623441455394	304452194.2977788
1.251706147191153	251770102.33123097
1.2537923241031383	254995420.95167592
1.2558819779766437	327633993.16311437
1.2579751146066047	370243463.4123934
1.2600717397976158	388922543.48748237
1.262171859363945	394287541.8217668
1.2642754791295518	382415999.9204418
1.266382604928101	404793135.01857525
1.2684932426029811	427083285.40539837
1.2706073980073196	425280355.84732914
1.2727250770039986	426000882.3904077
1.274846285465672	407396966.601099
1.2769710292747813	411592742.28543323
1.2790993143235727	416268148.33673185
1.2812311465141122	417783901.9795265
1.2833665317583023	421992919.4119006
1.2855054759778997	400164496.4867195
1.2876479851045295	383027979.0298796
1.2897940650797037	374680744.93578666
1.2919437218548366	371414012.4009467
1.2940969613912614	381406488.3190009
1.2962537896602468	397130001.3443608
1.298414212643014	388247757.2512843
1.3005782363307525	362139150.58791775
1.302745866724637	355351417.03414285
1.304917109835845	354288233.86046803
1.3070919716855713	373549273.7991567
1.3092704583050472	382918960.65507853
1.3114525757355557	387035909.51444095
1.3136383300284484	364848077.23507404
1.3158277272451624	341508320.9057408
1.3180207734572378	342833886.9869139
1.3202174747463333	340538890.7890651
1.3224178372042439	339520102.07927155
1.3246218669329177	306497410.04893005
1.3268295700444726	278324193.7974647
1.3290409526612135	254782187.5701819
1.3312560209156488	183694048.29595935
1.3334747809505083	114178631.2393905
1.3356972389187591	65765765.97909656
1.3379234009836238	43427316.43832352
1.3401532733185966	43999023.131400906
1.342386862107461	32376616.696840275
1.344624173544307	31432103.191113543
1.3468652138335475	28730412.71148135
1.3491099891899365	29284218.55245938
1.3513585058385866	17063505.208622437
1.3536107700149842	15941347.28589548
1.3558667879650093	21931143.095979862
1.358126565944951	20549981.666697584
1.360390110221526	18792077.628256656
1.3626574270718954	27335994.844675012
1.3649285227836818	33731887.721403435
1.367203403654988	31516078.729725305
1.369482075994413	29900861.910258725
1.3717645461210706	24604564.142941266
1.3740508203646056	22463511.972925972
1.3763409050652133	29998735.213060066
1.3786348065736556	40001653.26312165
1.3809325312512784	49944841.05533401
1.3832340854700305	39186656.01649981
1.3855394756124806	33473312.492791187
1.3878487080718347	37854071.4884574
1.3901617892519544	39520134.761963785
1.3924787255673745	37778431.36994698
1.3947995234433201	31749546.758678973
1.3971241893157258	21009192.00630918
1.399452729631252	28865395.45495554
1.401785150847304	31750136.105135795
1.40412145943205	26359657.55986161
1.4064616618644366	25436112.804088064
1.4088057646342107	26288541.409707602
1.4111537742419344	27620661.670263313
1.4135056971990045	38243262.79555716
1.4158615400276693	34118209.800273165
1.418221309261049	26545786.58327231
1.4205850114431506	26759905.342682358
1.4229526531288894	19653707.75749333
1.425324240884104	20627145.05409733
1.4276997812855778	27924022.103512783
1.4300792809210539	33181154.13703617
1.4324627463892556	29713311.012044683
1.4348501842999046	22198939.471600316
1.4372416012737377	28464932.59702016
1.4396370039425272	30115922.918243423
1.442036398949098	32091280.498805974
1.4444397929473467	25393432.449867506
1.4468471926022592	26241606.197890468
1.4492586045899296	37077204.42089951
1.4516740355975797	46716338.50986771
1.4540934923235755	45975450.36095526
1.4565169814774481	45943435.87188823
1.4589445097799105	63300860.521380216
1.4613760839628773	49879051.05320525
1.4638117107694821	55876929.72729214
1.466251396954098	84806670.82348348
1.4686951492823548	76017091.02039638
1.471142974531159	80636515.36088406
1.4735948794887108	73933951.42338054
1.4760508709545253	65208932.330316804
1.4785109557394496	71153587.90817687
1.4809751406656821	67835624.62082516
1.4834434325667916	53555581.23084294
1.4859158382877364	51897036.338009894
1.4883923646848827	62155247.98571124
1.490873018626024	77740187.63232812
1.493357806990401	83023808.740926
1.4958467366687183	78403626.3598313
1.4983398145631663	86805913.43742765
1.5008370475874384	83630936.93586822
1.5033384426667507	97529026.21496265
1.505844006737862	110851509.57912974
1.5083537467490917	93304382.49341093
1.5108676696603405	86399526.36635336
1.5133857824431078	108504012.15749863
1.5159080920805128	114382898.72574697
1.518434605567314	106157621.6657532
1.5209653299099262	100230666.04843745
1.5235002721264426	111833284.37322457
1.5260394392466536	121368610.59332031
1.5285828383120648	134192997.63596846
1.5311304763759181	142244809.77036542
1.5336823605032115	142371699.07012966
1.5362384977707166	144743288.93166906
1.5387988952670015	138176534.36903378
1.5413635600924465	147335447.048993
1.5439324993592671	157811979.59319457
1.5465057201915329	171535489.1473518
1.5490832297251855	167837695.3995118
1.5516650351080608	162081345.49626097
1.5542511434999076	167244467.76237088
1.5568415620724074	164364105.52455428
1.559436298009195	160745517.5826268
1.5620353585058768	172148797.86806697
1.5646387507700532	185933237.1488481
1.567246482021337	196751586.4482736
1.5698585594913725	194205173.02345595
1.5724749904238582	185076461.7684898
1.5750957820745648	191342207.70467114
1.5777209417113556	195746443.4934696
1.5803504766142082	199004952.13737702
1.5829843940752317	198412043.42642486
1.5856227013986908	200770867.9452771
1.5882654059010217	201987661.9710752
1.5909125149108567	196925342.20837158
1.5935640357690417	192521422.25662526
1.5962199758286568	188911002.3682482
1.598880342455038	187706696.58100864
1.6015451430257963	182969445.82608187
1.6042143849308395	178194640.59579265
1.6068880755723909	176492122.7968933
1.6095662223650118	172700097.09475315
1.6122488327356201	160573408.30664036
1.614935914123513	156873797.4270254
1.6176274739803853	146879406.9579777
1.6203235197703527	136664511.4918101
1.62302405896997	143932586.99326715
1.6257290990682536	133882042.45037208
1.6284386475667005	130008420.82949026
1.6311527119793119	127307142.4937639
1.6338712998326108	136104665.82545003
1.6365944186656651	141879241.99312523
1.6393220760301082	143314152.83901954
1.642054279490158	146577495.25418106
1.644791036622642	147530961.74641666
1.6475323550170131	144058096.20335257
1.6502782422753748	143075793.99315172
1.6530287060125004	147118647.74232543
1.6557837538558546	142357244.34295395
1.6585433934456146	143031143.56377584
1.6613076324346907	142282175.15321183
1.6640764784887485	136385352.7289632
1.66684993928623	113504227.06204773
1.6696280225183737	101230024.89529313
1.6724107358892377	111076736.82063222
1.6751980871157197	114293963.23817867
1.6779900839275794	118881474.52426083
1.6807867340674587	122996584.06196433
1.6835880452909044	130075730.44216478
1.6863940253663894	127889548.36101143
1.6892046820753335	118567294.35548954
1.6920200232121256	118278118.31441164
1.694840056584146	115536035.09578964
1.6976647900117863	107859916.44590983
1.700494231328473	107578380.3801977
1.703328388380687	107421978.189123
1.706167269027988	111304298.97298725
