#wavelength (micron)	surface_flux (erg / (cm2 micron s))
0.7011666666666666	265334.7338870116
0.7023352777777778	282628.0583258321
0.7035058365740741	287930.9839801647
0.7046783463016977	293471.50908997003
0.7058528102122005	300542.59680664155
0.7070292315625542	306911.4259974956
0.7082076136151585	311958.81736481853
0.7093879596378504	317757.1779004827
0.7105702729039134	323296.71834483056
0.7117545566920868	328410.2209594128
0.7129408142865735	332798.64030729234
0.7141290489770512	337122.2553866161
0.7153192640586796	337888.9537119052
0.7165114628321108	332309.617864633
0.7177056486034976	324357.6426468029
0.7189018246845036	325893.6359601852
0.7200999943923111	330209.2180129624
0.7213001610496316	329712.7087518597
0.7225023279847144	327398.4984130405
0.7237064985313556	321058.05444643844
0.7249126760289079	315257.4963304513
0.7261208638222895	309697.4420208137
0.7273310652619932	301513.49904746475
0.7285432837040966	290740.6459282725
0.72975752251027	278508.5614199151
0.7309737850477873	269564.39136504504
0.7321920746895336	261869.32799911048
0.7334123948140163	256620.953611604
0.7346347488053729	248073.06566291116
0.7358591400533818	237333.1749402947
0.7370855719534709	226858.40370946244
0.7383140479067267	218431.9125620747
0.7395445713199046	209519.24410762312
0.7407771456054377	201043.34937544874
0.7420117741814469	191195.55808117558
0.7432484604717493	181190.5277044987
0.744487207905869	172139.7137582064
0.7457280199190454	162827.07686829544
0.7469708999522439	153225.14094413782
0.7482158514521644	142756.93615120798
0.7494628778712513	134263.11778793426
0.7507119826677034	133964.92016420013
0.7519631693054829	119273.90058143136
0.7532164412543255	103476.29909103927
0.7544718019897494	94063.70811749167
0.7557292549930656	84614.42690687298
0.7569888037513873	75533.49805242092
0.7582504517576398	67346.48909162935
0.7595142025105692	60111.26680782815
0.7607800595147535	51682.367961499054
0.7620480262806114	38762.46309582697
0.7633181063244125	22817.067971943867
0.7645903031682866	10019.4014385202
0.7658646203402337	3238.63796175055
0.7671410613741342	1798.564327848055
0.7684196298097576	3473.8460432502243
0.7697003291927741	2870.9289320538633
0.770983163074762	4708.26268310668
0.77226813501322	12286.318813469938
0.7735552485715754	21947.494924084032
0.7748445073191947	32800.47857726413
0.7761359148313933	46530.578370995325
0.7774294746894457	-1654.049201900665
0.7787251904805949	76210.39944059122
0.7800230657980626	67773.12947970201
0.7813231042410594	99448.77200676796
0.7826253094147945	145649.85799151746
0.7839296849304858	174320.01009498662
0.7852362344053699	203449.2611972189
0.7865449614627122	234279.20385661884
0.7878558697318168	266502.6001229264
0.7891689628480365	302832.95875569107
0.7904842444527834	341244.2096938343
0.791801718193538	381162.94501089427
0.7931213877238606	399376.0181286126
0.7944432567034004	313720.08621937205
0.795767328797906	357357.18707815657
0.7970936076792359	551937.3975204761
0.7984220970253681	639344.2278546713
0.7997528005204104	706869.7922709049
0.801085721854611	774118.0181056006
0.8024208647243688	844425.2259637106
0.8037582328322427	913977.3972046177
0.8050978298869632	987899.5931494384
0.8064396596034414	1066092.4959049714
0.8077837257027807	1144294.8678477625
0.8091300319122853	1221578.7717942419
0.8104785819654725	1311179.5496016308
0.8118293796020817	1398898.4163422277
0.8131824285680851	1460661.8555329659
0.8145377326156986	1549647.464833546
0.8158952955033916	1714272.9640567577
0.8172551209958971	1833155.3008112318
0.8186172128642236	1930089.570190261
0.819981574885664	2030432.7488726685
0.8213482108438068	2165352.755157518
0.8227171245285466	2242104.5429776674
0.8240883197360943	2307816.906158943
0.8254618002689877	2514855.20784827
0.8268375699361028	2699885.3215347757
0.828215632552663	2847866.445008934
0.8295959919402508	2940902.3834854877
0.830978651926818	3198848.3499971707
0.832363616346696	3406389.4097198644
0.8337508890406071	3563218.112575701
0.8351404738556749	3732214.6152383424
0.8365323746454344	3904087.1948794127
0.8379265952698435	4084246.4475777573
0.8393231395952933	4287542.972360749
0.8407220114946187	4515778.8542610025
0.8421232148471098	4712581.8198434
0.8435267535385217	4921082.81667802
0.8449326314610859	5135259.988395829
0.8463408525135211	5357939.671162194
0.8477514206010437	5587651.360791854
0.8491643396353787	5756885.565808555
0.8505796135347711	5804463.233041422
0.8519972462239958	4829676.1214797795
0.8534172416343692	5469888.378767059
0.8548396037037598	6889458.609085841
0.8562643363765994	7312399.704797332
0.8576914436038937	7657968.967802993
0.8591209293432337	7994244.001921307
0.8605527975588058	8191085.903422545
0.8619870522214037	8248367.155153841
0.8634236973084395	8541327.105984252
0.8648627368039535	8961451.358555287
0.8663041746986269	9316543.219027825
0.8677480149897913	9592150.913157359
0.8691942616814409	10027622.358074142
0.8706429187842434	10478912.606046842
0.8720939903155505	10730457.392556833
0.8735474802994098	11148582.623857547
0.8750033927665755	11606099.701519743
0.8764617317545198	12078676.169133529
0.8779225013074441	12311074.753206331
0.8793857054762898	12550466.23852866
0.8808513483187503	13122431.788815137
0.8823194338992816	13889157.43110544
0.8837899662891138	14340299.82224245
0.8852629495662623	14664325.14168603
0.8867383878155394	15223961.9076298
0.8882162851285654	15527378.100309847
0.8896966456037797	15573763.45024035
0.8911794733464526	15686317.457947733
0.8926647724686968	15501710.968920374
0.894152547089478	12572398.793807106
0.8956428013346271	13543000.130708154
0.8971355393368516	17444665.310150534
0.8986307652357465	18341915.314463235
0.9001284831778059	18780995.741404667
0.9016286973164357	20071285.966426313
0.9031314118119631	21389754.76632072
0.9046366308316498	22331883.485193036
0.9061443585497025	22754936.620198254
0.9076545991472854	23539830.986206234
0.9091673568125309	24462712.790270254
0.9106826357405519	25133926.590755675
0.9122004401334528	26201406.904051594
0.9137207742003418	26739553.497443885
0.9152436421573426	27222122.661890678
0.9167690482276047	27290021.624197084
0.9182969966413176	27780285.058836017
0.9198274916357196	29687521.160346657
0.9213605374551126	31246068.383600466
0.9228961383508711	32133349.58620681
0.924434298581456	32252357.444043882
0.9259750224124251	30689257.575841602
0.9275183141164459	24081661.59481075
0.9290641779733066	17429197.862021383
0.9306126182699289	18866617.814130116
0.9321636393003788	20432963.330975138
0.9337172453658794	24214338.793312967
0.9352734407748227	29263933.234976254
0.9368322298427807	32997486.18268206
0.9383936168925188	34401326.210266076
0.9399576062540064	35068728.92332018
0.9415242022644297	37039762.94863394
0.9430934092682037	34908519.19494158
0.9446652316169841	32821436.364440713
0.9462396736696792	34967006.75049994
0.947816739792462	39060981.4205739
0.9493964343587827	40613719.66351303
0.9509787617493808	34877772.83563234
0.9525637263522965	37856779.51220708
0.9541513325628838	44374830.213874705
0.9557415847838219	47696613.078580156
0.9573344874251283	46345266.89206153
0.9589300449041701	44094409.24567654
0.9605282616456772	43201836.8258471
0.9621291420817533	41534867.078841224
0.9637326906518895	48570079.99293546
0.9653389118029762	51039377.11736376
0.9669478099893144	46756587.751241975
0.96855938967263	50692817.2163968
0.9701736553220844	54475255.65371448
0.971790611414288	55491552.981824696
0.9734102624333119	57125221.12510291
0.9750326128707006	60913133.47206906
0.9766576672254852	64161835.12374007
0.9782854300041944	58330784.96675047
0.9799159057208682	60504797.37556412
0.9815490988970695	67749764.58009039
0.9831850140618982	65547877.22706776
0.9848236557520013	67580085.62697196
0.986465028511588	71735299.31770338
0.9881091368924407	69076134.88914908
0.9897559854539281	62546345.17502183
0.991405578763018	54110900.29427348
0.9930579213942898	55186450.275541484
0.994713017929947	60939731.70786307
0.9963708729598303	62613568.744313665
0.9980314910814301	60445330.14857957
0.9996948768998991	50434726.79439613
1.0013610350280657	47220106.59439363
1.0030299700864458	59943894.09605639
1.0047016867032565	63230370.90314881
1.0063761895144285	65033022.59514237
1.0080534831636194	70139222.31998298
1.0097335723022256	71937860.71491247
1.011416461589396	73517310.0538263
1.013102155692045	74967643.1527603
1.014790659284865	77603502.04007545
1.01648197705034	76458932.81393872
1.018176113678757	77602586.51470731
1.0198730738682218	81681380.3891708
1.021572862324669	86303765.22648804
1.0232754837618767	89082504.18155715
1.0249809429014798	89042905.28987774
1.0266892444729823	84696487.66463925
1.0284003932137706	87359508.90340173
1.030114393869127	91359996.1231389
1.0318312511922423	94354259.2945741
1.0335509699442293	98440543.81835592
1.0352735548941365	103277418.7561232
1.0369990108189602	108462829.58804628
1.0387273425036585	108424141.34211862
1.0404585547411644	112352401.16175352
1.0421926523323999	109179554.00665309
1.0439296400862872	109989742.8509913
1.0456695228197646	118875299.73828752
1.0474123053577973	113873581.73704685
1.0491579925333938	115205360.95216084
1.0509065891876161	115167795.27811332
1.0526581001695956	115129934.03839314
1.0544125303365448	120975834.51477648
1.0561698845537726	119951843.35712059
1.0579301676946955	121884890.40380976
1.0596933846408534	124149348.34828225
1.0614595402819214	125184540.47435042
1.0632286395157247	130565934.25023997
1.065000687248251	132525104.95788561
1.0667756883936648	128865856.34683423
1.068553647874321	133905696.11854814
1.070334570620778	138815728.1358858
1.072118461571813	143616223.87233493
1.0739053256744326	147984441.2045013
1.07569516788389	148642611.0134744
1.0774879931636965	150547058.77662185
1.079283806485636	152659129.4856226
1.0810826128297788	151250307.49908835
1.0828844171844951	160046052.67531297
1.0846892245464692	161712166.82764214
1.0864970399207134	156703447.84772
1.0883078683205814	159552872.3324389
1.0901217147677824	155238918.26932445
1.0919385842923954	141768438.4128268
1.0937584819328827	137237841.83361882
1.0955814127361043	125930992.17751701
1.0974073817573313	117237399.6682348
1.09923639406026	115581510.25699317
1.1010684547170273	104423140.09255214
1.1029035688082225	101714292.72199634
1.1047417414229028	87966170.40224491
1.1065829776586076	73950296.03940505
1.108427282621372	76080875.82400708
1.110274661425741	63304722.8160056
1.112125119194784	62990738.48391633
1.1139786610601086	71764006.07603504
1.1158352921618757	73394992.14456949
1.117695017648812	63730577.066735156
1.1195578426782267	62809389.04624828
1.1214237724160239	72005469.13102536
1.1232928120367172	77316045.12072171
1.1251649667234453	83964581.030315
1.1270402416679843	85486022.75506835
1.1289186420707642	91635331.85577275
1.1308001731408823	74796854.10409562
1.1326848400961171	51807125.251086704
1.1345726481629441	37825605.56201581
1.136463602576549	54657797.65469917
1.1383577085808434	58688195.8002983
1.1402549714284782	56971230.741684236
1.1421553963808588	59295228.13990601
1.1440589887081603	65897667.04147609
1.1459657536893408	75836056.46635984
1.1478756966121564	80194845.08889636
1.1497888227731765	89867430.7834203
1.1517051374777987	83881295.58103816
1.1536246460402617	70559478.13920689
1.155547353783662	63203926.8804704
1.1574732660399685	63809468.351742715
1.1594023881500348	64370467.77756243
1.1613347254636184	53691567.304024346
1.163270283339391	63599078.72664794
1.1652090671449569	64214137.07009268
1.1671510822568651	57317803.2003397
1.1690963340606266	45842084.04138312
1.1710448279507277	48269656.83407299
1.1729965693306457	49473077.90021141
1.1749515636128636	46188521.290809095
1.176909816218885	33717026.38052876
1.17887133257925	41260445.419924855
1.1808361181335487	62244035.37391013
1.182804178330438	64635433.9506641
1.1847755186276552	76901863.74703385
1.1867501444920348	103640750.67669997
1.1887280613995215	113248206.68588917
1.1907092748351875	108697275.24908882
1.1926937902932462	116214947.6799004
1.1946816132770681	119954685.59090705
1.1966727492991969	127699403.18891236
1.1986672038813622	131118548.79253776
1.2006649825544977	138992556.45545933
1.2026660908587554	148389678.69506904
1.20467053434352	155466760.1848499
1.206678318567426	156716144.39660367
1.2086894490983717	156393769.4647574
1.2107039315135357	168226127.32065213
1.2127217713993916	175395344.9519136
1.214742974351724	184675855.22062936
1.2167675459756435	187091323.26173908
1.218795491885603	194916957.85982934
1.2208268177054122	196750537.1859562
1.2228615290682547	193604095.55821767
1.2248996316167018	207731925.82392785
1.2269411310027298	220260235.07967675
1.2289860328877344	223336896.74994516
1.2310343429425474	225537259.9749981
1.2330860668474517	224256870.15100905
1.2351412102921975	220422316.6678946
1.2371997789760178	221538099.61606112
1.2392617786076445	213238188.3590182
1.241327214905324	191039035.188664
1.243396093596833	169494626.156002
1.2454684204194943	184723641.51230735
1.2475442011201936	204012198.4143788
1.249623441455394	195190548.97492507
1.251706147191153	163574121.35064134
1.2537923241031383	165873855.6515275
1.2558819779766437	213197161.39859185
1.2579751146066047	241512800.8013871
1.2600717397976158	253959840.75052273
1.262171859363945	257844222.0330481
1.2642754791295518	250107033.02521688
1.266382604928101	260304359.0887675
1.2684932426029811	273702942.3021554
1.2706073980073196	275139123.6077503
1.2727250770039986	272002564.4072076
1.274846285465672	258201520.85845855
1.2769710292747813	262321381.35161558
1.2790993143235727	262980709.4131379
1.2812311465141122	258659626.99904597
1.2833665317583023	259984670.1157871
1.2855054759778997	246869147.11059
1.2876479851045295	233921151.72103572
1.2897940650797037	225656675.23401555
1.2919437218548366	223238989.50467718
1.2940969613912614	231296287.7288362
1.2962537896602468	241579119.1172449
1.298414212643014	230020230.07924116
1.3005782363307525	204982129.7934499
1.302745866724637	191842473.82356542
1.304917109835845	191619402.26510447
1.3070919716855713	210426920.21745566
1.3092704583050472	216156378.63047665
1.3114525757355557	212467423.40082327
1.3136383300284484	194572088.95303
1.3158277272451624	171985995.08019423
1.3180207734572378	173055389.78518188
1.3202174747463333	176131391.36948127
1.3224178372042439	178487560.01177847
1.3246218669329177	152986336.99240363
1.3268295700444726	134421887.71981725
1.3290409526612135	115941028.25257586
1.3312560209156488	76196485.72833343
1.3334747809505083	44318556.27424915
1.3356972389187591	26085430.722386003
1.3379234009836238	16241881.044553457
1.3401532733185966	16727605.597157888
1.342386862107461	11735908.563468246
1.344624173544307	10750215.797876734
1.3468652138335475	9556795.338962685
1.3491099891899365	9215749.95706422
1.3513585058385866	4818032.888976148
1.3536107700149842	4333375.2561011305
1.3558667879650093	6039742.258801992
1.358126565944951	5179301.202553279
1.360390110221526	4657112.773943326
1.3626574270718954	7059559.776273763
1.3649285227836818	9101083.11322595
1.367203403654988	8471479.533732055
1.369482075994413	8406459.600321725
1.3717645461210706	6494405.862636725
1.3740508203646056	5611318.797774143
1.3763409050652133	8205205.755253363
1.3786348065736556	11807245.224231932
1.3809325312512784	15174446.106964825
1.3832340854700305	11632805.375521107
1.3855394756124806	9493743.40066892
1.3878487080718347	11098419.28868698
1.3901617892519544	11866458.17754259
1.3924787255673745	11605502.853529429
1.3947995234433201	10099670.353292609
1.3971241893157258	6416463.323324026
1.399452729631252	8832965.467426652
1.401785150847304	8960922.416901251
1.40412145943205	7188775.326416279
1.4064616618644366	7660176.006291444
1.4088057646342107	7713943.10300367
1.4111537742419344	8090731.525964586
1.4135056971990045	12743266.053329296
1.4158615400276693	11263429.769619247
1.418221309261049	8309374.944714797
1.4205850114431506	8427905.061593372
1.4229526531288894	6133614.027690228
1.425324240884104	6458205.96117148
1.4276997812855778	9482494.872241063
1.4300792809210539	11744149.493485698
1.4324627463892556	9965622.60268895
1.4348501842999046	7244233.142556085
1.4372416012737377	9415516.483024888
1.4396370039425272	10036426.19060509
1.442036398949098	11051536.291646047
1.4444397929473467	8192855.122682495
1.4468471926022592	8763240.191893125
1.4492586045899296	13521376.292476114
1.4516740355975797	17688022.417257108
1.4540934923235755	17656824.748652082
1.4565169814774481	17455674.760141373
1.4589445097799105	25439058.124458853
1.4613760839628773	19858564.882801224
1.4638117107694821	23270854.264839508
1.466251396954098	36247570.493195266
1.4686951492823548	32011380.684808943
1.471142974531159	34861253.78991021
1.4735948794887108	32259971.223507818
1.4760508709545253	27545368.144557644
1.4785109557394496	29799434.005389724
1.4809751406656821	28304681.906658143
1.4834434325667916	22458200.883435618
1.4859158382877364	21343460.927724507
1.4883923646848827	26359496.096398633
1.490873018626024	34586985.506587215
1.493357806990401	37727595.59880868
1.4958467366687183	35410938.51814487
1.4983398145631663	38177284.049665585
1.5008370475874384	37193554.783139646
1.5033384426667507	45525756.07455372
1.505844006737862	52736764.18945131
1.5083537467490917	42823724.161105864
1.5108676696603405	38722202.3980926
1.5133857824431078	49660274.77782516
1.5159080920805128	52869067.752378665
1.518434605567314	49984158.50089171
1.5209653299099262	45428748.70949661
1.5235002721264426	52170246.98487201
1.5260394392466536	59232688.25016642
1.5285828383120648	67593612.99114119
1.5311304763759181	72292271.01882794
1.5336823605032115	72107770.07634224
1.5362384977707166	73292782.2897617
1.5387988952670015	69664910.05139914
1.5413635600924465	75341651.50696279
1.5439324993592671	81453117.8365324
1.5465057201915329	91184678.62831168
1.5490832297251855	89324315.03693084
1.5516650351080608	85405647.26395811
1.5542511434999076	88360148.34926839
1.5568415620724074	86697202.00792536
1.559436298009195	84815257.36834252
1.5620353585058768	91559429.2659122
1.5646387507700532	100628164.7528666
1.567246482021337	108084772.52528831
1.5698585594913725	106267503.98391786
1.5724749904238582	99871017.34286061
1.5750957820745648	103528287.61369166
1.5777209417113556	106439458.00332187
1.5803504766142082	108920697.18251146
1.5829843940752317	111118699.13795199
1.5856227013986908	114167974.92045556
1.5882654059010217	113674711.41550182
1.5909125149108567	109625212.81551304
1.5935640357690417	106504294.15831311
1.5962199758286568	102886341.14305903
1.598880342455038	100200051.23249651
1.6015451430257963	94315369.84722993
1.6042143849308395	88832439.28790659
1.6068880755723909	85056056.04085958
1.6095662223650118	80505362.96809599
1.6122488327356201	71897072.26988636
1.614935914123513	69193318.6256895
1.6176274739803853	62171764.54589125
1.6203235197703527	53375687.4440524
1.62302405896997	56784301.98564363
1.6257290990682536	51891866.66140328
1.6284386475667005	49157388.66640645
1.6311527119793119	47203689.18686482
1.6338712998326108	51387863.13270705
1.6365944186656651	54716881.87183807
1.6393220760301082	56523415.22153945
1.642054279490158	59618791.653874956
1.644791036622642	59185032.868433215
1.6475323550170131	56355632.14811965
1.6502782422753748	55204173.89296581
1.6530287060125004	58697513.37956262
1.6557837538558546	56374189.95636199
1.6585433934456146	58108145.726558745
1.6613076324346907	59208077.21832637
1.6640764784887485	53777348.31947224
1.66684993928623	36717047.344912484
1.6696280225183737	29959297.33692977
1.6724107358892377	35186570.406079374
1.6751980871157197	38078043.21000532
1.6779900839275794	41428828.059599444
1.6807867340674587	44119870.54154119
1.6835880452909044	50218586.39992095
1.6863940253663894	49795651.673145026
1.6892046820753335	44059198.58187648
1.6920200232121256	43371145.661757655
1.694840056584146	41672164.33006079
1.6976647900117863	36370397.71759959
1.700494231328473	35819251.62265791
1.703328388380687	36085241.71237895
1.706167269027988	39987591.17305643
1.709010881143035	44021365.67156019
