#wavelength (micron)	surface_flux (erg / (cm2 micron s))
0.7011666666666666	709375.1567309762
0.7023352777777778	754904.1487817881
0.7035058365740741	769190.5241073989
0.7046783463016977	783730.3958959556
0.7058528102122005	801408.0100870566
0.7070292315625542	818056.7812011637
0.7082076136151585	831632.824622687
0.7093879596378504	846749.6624097276
0.7105702729039134	861082.3840859559
0.7117545566920868	875303.6910025048
0.7129408142865735	887349.2218953489
0.7141290489770512	898578.1820386047
0.7153192640586796	901729.336992484
0.7165114628321108	889659.2963679767
0.7177056486034976	871797.5129823772
0.7189018246845036	879004.1488856964
0.7200999943923111	891997.3752533953
0.7213001610496316	889958.6585971401
0.7225023279847144	886029.7541731736
0.7237064985313556	871455.2972460659
0.7249126760289079	857191.9718130352
0.7261208638222895	844201.784337009
0.7273310652619932	824569.1010811832
0.7285432837040966	797194.4124921133
0.72975752251027	764773.2804360887
0.7309737850477873	741647.1990079212
0.7321920746895336	724226.5434289963
0.7334123948140163	710988.5720321679
0.7346347488053729	689778.9171646478
0.7358591400533818	663737.340301366
0.7370855719534709	637116.8167496743
0.7383140479067267	616548.5529762703
0.7395445713199046	593233.3887624197
0.7407771456054377	571135.995722005
0.7420117741814469	544193.0040020322
0.7432484604717493	518806.69938520464
0.744487207905869	498007.8183865316
0.7457280199190454	474399.2465545404
0.7469708999522439	450037.66966562346
0.7482158514521644	422719.574178488
0.7494628778712513	396030.67160817975
0.7507119826677034	370176.6802359707
0.7519631693054829	343346.35446162865
0.7532164412543255	318469.9043299231
0.7544718019897494	293670.4707158185
0.7557292549930656	268224.23748163844
0.7569888037513873	242723.8358448029
0.7582504517576398	218207.41270488084
0.7595142025105692	195045.21829864374
0.7607800595147535	168114.56749445427
0.7620480262806114	126993.6732198301
0.7633181063244125	73688.18409039915
0.7645903031682866	28906.771484436416
0.7658646203402337	7260.199840517771
0.7671410613741342	3423.292761497362
0.7684196298097576	6955.3566486414375
0.7697003291927741	5690.771679045791
0.770983163074762	14855.305832804612
0.77226813501322	16489.631906175062
0.7735552485715754	72334.53151917405
0.7748445073191947	111750.91229417767
0.7761359148313933	154988.59198364598
0.7774294746894457	205516.2965391422
0.7787251904805949	241093.29925766893
0.7800230657980626	215345.82435781727
0.7813231042410594	307169.6239428736
0.7826253094147945	440283.5754613518
0.7839296849304858	516771.66520989535
0.7852362344053699	592311.0690639047
0.7865449614627122	671016.3016121234
0.7878558697318168	752890.4983519446
0.7891689628480365	841628.9907909321
0.7904842444527834	934118.809055663
0.791801718193538	1029357.4840654852
0.7931213877238606	1069253.3265823445
0.7944432567034004	843868.8729715479
0.795767328797906	946796.3170872581
0.7970936076792359	1428640.3489230068
0.7984220970253681	1634110.1520688147
0.7997528005204104	1788693.3542355055
0.801085721854611	1944692.2846335215
0.8024208647243688	2104316.03453833
0.8037582328322427	2257204.814602488
0.8050978298869632	2421552.976480203
0.8064396596034414	2597563.163510592
0.8077837257027807	2767256.816395871
0.8091300319122853	2946018.2320399936
0.8104785819654725	3152758.3101487756
0.8118293796020817	3345973.409338358
0.8131824285680851	3486867.672986369
0.8145377326156986	3673330.976395264
0.8158952955033916	4058777.1433707406
0.8172551209958971	4298883.748051852
0.8186172128642236	4389226.897175934
0.819981574885664	4585873.286911536
0.8213482108438068	5001987.1172056645
0.8227171245285466	5181974.782399624
0.8240883197360943	5265698.222872951
0.8254618002689877	5766396.850924614
0.8268375699361028	6204637.6163591985
0.828215632552663	6516241.119533459
0.8295959919402508	6683633.511447369
0.830978651926818	7358792.720257864
0.832363616346696	7848614.633414307
0.8337508890406071	8215774.253233966
0.8351404738556749	8593922.033355966
0.8365323746454344	8968340.005930293
0.8379265952698435	9363913.714761367
0.8393231395952933	9826107.017074523
0.8407220114946187	10365628.638295434
0.8421232148471098	10785091.832398994
0.8435267535385217	11188056.064110223
0.8449326314610859	11560042.463880662
0.8463408525135211	11984241.507883728
0.8477514206010437	12492898.721698334
0.8491643396353787	12766290.862964107
0.8505796135347711	12884332.548416719
0.8519972462239958	10511451.817253802
0.8534172416343692	11948067.649135455
0.8548396037037598	15218714.919805964
0.8562643363765994	16182023.016531846
0.8576914436038937	16839913.714656424
0.8591209293432337	17617042.943514504
0.8605527975588058	17355649.45040889
0.8619870522214037	16408381.033299608
0.8634236973084395	16957017.691852763
0.8648627368039535	17873132.447355647
0.8663041746986269	18433666.32843498
0.8677480149897913	18536245.678354908
0.8691942616814409	19268823.88234208
0.8706429187842434	19975677.046812207
0.8720939903155505	20021029.886643007
0.8735474802994098	20722504.37056403
0.8750033927665755	21542402.733120024
0.8764617317545198	22624022.02974827
0.8779225013074441	22400678.749874808
0.8793857054762898	22628891.007173415
0.8808513483187503	23873023.61570811
0.8823194338992816	26851943.61106335
0.8837899662891138	27581380.475278944
0.8852629495662623	27729975.666570593
0.8867383878155394	29773595.651633743
0.8882162851285654	30321406.46574912
0.8896966456037797	30187231.77564556
0.8911794733464526	30334815.60024227
0.8926647724686968	30748434.026310444
0.894152547089478	24843085.425432023
0.8956428013346271	25847490.6690652
0.8971355393368516	33972451.29028001
0.8986307652357465	37588690.00487366
0.9001284831778059	38460152.97418187
0.9016286973164357	39928352.30365299
0.9031314118119631	42066956.84146826
0.9046366308316498	43347317.81616689
0.9061443585497025	41780566.100250155
0.9076545991472854	44377730.55843756
0.9091673568125309	48104888.48160675
0.9106826357405519	49873739.90240726
0.9122004401334528	51957419.2201234
0.9137207742003418	51027067.50435977
0.9152436421573426	51061979.63528569
0.9167690482276047	51520646.187939696
0.9182969966413176	51992975.62029923
0.9198274916357196	55069742.991496146
0.9213605374551126	57484282.09619333
0.9228961383508711	59831186.94013739
0.924434298581456	59506914.7771198
0.9259750224124251	55005903.502571985
0.9275183141164459	43550230.04918403
0.9290641779733066	33331659.99347449
0.9306126182699289	36387676.27497861
0.9321636393003788	37523905.46094665
0.9337172453658794	43822918.223114885
0.9352734407748227	53804918.98515423
0.9368322298427807	59673543.85014049
0.9383936168925188	60212940.01373196
0.9399576062540064	58306987.98993115
0.9415242022644297	61450721.230987184
0.9430934092682037	59090390.48427356
0.9446652316169841	57610340.400823295
0.9462396736696792	61933279.83631176
0.947816739792462	68878071.5527816
0.9493964343587827	73619854.48299392
0.9509787617493808	60606435.99961837
0.9525637263522965	63747195.99664565
0.9541513325628838	75855325.67911412
0.9557415847838219	81808384.61525264
0.9573344874251283	80065401.84785855
0.9589300449041701	74032123.77532996
0.9605282616456772	67690051.4315515
0.9621291420817533	65857140.60919996
0.9637326906518895	80674922.63046575
0.9653389118029762	84359456.91866992
0.9669478099893144	74363127.34129077
0.96855938967263	80940578.52901402
0.9701736553220844	85963720.08998013
0.971790611414288	85172470.50982782
0.9734102624333119	87391790.1586108
0.9750326128707006	93876873.82886185
0.9766576672254852	99717080.28540133
0.9782854300041944	86764304.89469717
0.9799159057208682	90415864.78347853
0.9815490988970695	104881889.39903441
0.9831850140618982	97382833.10867156
0.9848236557520013	97353312.04653345
0.986465028511588	102826276.0772223
0.9881091368924407	102106121.70391335
0.9897559854539281	85645883.08377923
0.991405578763018	65459794.99045751
0.9930579213942898	65979763.1755426
0.994713017929947	77639200.61576709
0.9963708729598303	80624646.44529364
0.9980314910814301	76341442.33738294
0.9996948768998991	65412875.6588306
1.0013610350280657	63725322.65876916
1.0030299700864458	75336665.44057846
1.0047016867032565	77575827.16053283
1.0063761895144285	81902818.70814031
1.0080534831636194	91260974.86871216
1.0097335723022256	91827835.30888091
1.011416461589396	91436632.99541822
1.013102155692045	94820037.18790068
1.014790659284865	100065053.33682536
1.01648197705034	93311300.89993896
1.018176113678757	91691792.10429618
1.0198730738682218	98008776.43395661
1.021572862324669	109227366.57101348
1.0232754837618767	114808000.77102177
1.0249809429014798	112221713.32384337
1.0266892444729823	97917734.65751326
1.0284003932137706	100767351.24889189
1.030114393869127	107565268.57705604
1.0318312511922423	110128578.4818443
1.0335509699442293	116237817.86033618
1.0352735548941365	128758907.70208476
1.0369990108189602	138458032.2114681
1.0387273425036585	134840431.5712065
1.0404585547411644	139507625.43620235
1.0421926523323999	131602093.44531758
1.0439296400862872	126789151.29470514
1.0456695228197646	140196189.2438824
1.0474123053577973	133733436.54880042
1.0491579925333938	132465810.53662467
1.0509065891876161	128252700.1434
1.0526581001695956	132755512.18014944
1.0544125303365448	145157308.58754328
1.0561698845537726	142291490.98727074
1.0579301676946955	141067343.26090902
1.0596933846408534	141834336.98647735
1.0614595402819214	145448820.90486807
1.0632286395157247	154143060.8801034
1.065000687248251	154612072.6485509
1.0667756883936648	146554848.0000841
1.068553647874321	155106251.23124313
1.070334570620778	164858263.12802896
1.072118461571813	173398170.2704211
1.0739053256744326	181499577.50718385
1.07569516788389	180162067.19299453
1.0774879931636965	179699659.1044541
1.079283806485636	186585451.60965014
1.0810826128297788	185324543.4459558
1.0828844171844951	195237327.55291313
1.0846892245464692	198449054.76384366
1.0864970399207134	194008248.3839631
1.0883078683205814	197648868.09778658
1.0901217147677824	190950698.60215098
1.0919385842923954	170952143.57193014
1.0937584819328827	177611220.7792766
1.0955814127361043	166906952.69106317
1.0974073817573313	151658385.34566808
1.09923639406026	150498795.479096
1.1010684547170273	143603319.58276486
1.1029035688082225	140331236.5288612
1.1047417414229028	118701040.40253346
1.1065829776586076	107666164.10729909
1.108427282621372	113606387.4938729
1.110274661425741	101297176.12726781
1.112125119194784	101056181.34008692
1.1139786610601086	108278061.97336508
1.1158352921618757	109605216.80510266
1.117695017648812	97240869.97271273
1.1195578426782267	91290695.84260298
1.1214237724160239	103931748.9566622
1.1232928120367172	113078010.8947813
1.1251649667234453	124320074.74257496
1.1270402416679843	122063437.26703498
1.1289186420707642	120783543.68275422
1.1308001731408823	100176969.62958707
1.1326848400961171	76996676.9592176
1.1345726481629441	63689132.02562008
1.136463602576549	86288945.99596785
1.1383577085808434	81722250.41042
1.1402549714284782	71041091.68204646
1.1421553963808588	80016709.51839285
1.1440589887081603	102180866.19041426
1.1459657536893408	113850288.51590556
1.1478756966121564	120096916.77973026
1.1497888227731765	143698448.7264996
1.1517051374777987	129102486.36774981
1.1536246460402617	115407319.01751141
1.155547353783662	106054237.26041758
1.1574732660399685	96598149.8717003
1.1594023881500348	100315373.11386065
1.1613347254636184	87739535.02250086
1.163270283339391	104404789.83043571
1.1652090671449569	101388478.32072577
1.1671510822568651	86099258.58681935
1.1690963340606266	64978634.42199466
1.1710448279507277	68958945.78668995
1.1729965693306457	76613168.92309056
1.1749515636128636	76332373.23435979
1.176909816218885	50773207.99093731
1.17887133257925	58377705.87581476
1.1808361181335487	87584083.96406415
1.182804178330438	87805739.91023792
1.1847755186276552	105712685.5199629
1.1867501444920348	148546042.97629154
1.1887280613995215	160598535.18698764
1.1907092748351875	150878642.67953166
1.1926937902932462	158568197.50088927
1.1946816132770681	153383515.6434262
1.1966727492991969	153917928.02478135
1.1986672038813622	152053926.6213001
1.2006649825544977	163381872.41069382
1.2026660908587554	181137359.95174626
1.20467053434352	189559084.14148143
1.206678318567426	188554856.43033117
1.2086894490983717	189622163.9675136
1.2107039315135357	201626331.95751247
1.2127217713993916	209543025.11201295
1.214742974351724	226058955.11763203
1.2167675459756435	225145186.87122577
1.218795491885603	234634993.60209373
1.2208268177054122	231943014.4919883
1.2228615290682547	223670749.19753295
1.2248996316167018	248516128.01073605
1.2269411310027298	272686612.0786072
1.2289860328877344	272177942.79090685
1.2310343429425474	266998462.52525192
1.2330860668474517	267522728.01667172
1.2351412102921975	266824868.63212556
1.2371997789760178	268654639.9099419
1.2392617786076445	254390447.3933275
1.241327214905324	218455743.0194279
1.243396093596833	181175464.7914176
1.2454684204194943	204210708.75249693
1.2475442011201936	236691472.58607095
1.249623441455394	228386632.8067043
1.251706147191153	176923319.44220683
1.2537923241031383	178429462.91235638
1.2558819779766437	248934928.02612177
1.2579751146066047	280446937.5414329
1.2600717397976158	291412234.44509405
1.262171859363945	293369240.32754487
1.2642754791295518	275179719.408397
1.266382604928101	291109498.77433056
1.2684932426029811	314811012.9103926
1.2706073980073196	315165338.81998247
1.2727250770039986	313842538.2309074
1.274846285465672	294333644.7095503
1.2769710292747813	293722355.11615974
1.2790993143235727	302229791.8395307
1.2812311465141122	305190560.3650789
1.2833665317583023	313954533.55584854
1.2855054759778997	290015071.1265528
1.2876479851045295	271241194.0090962
1.2897940650797037	252787583.7981038
1.2919437218548366	246828281.39520147
1.2940969613912614	265024200.57755446
1.2962537896602468	285809762.32574207
1.298414212643014	268433216.03339133
1.3005782363307525	236532936.86983863
1.302745866724637	219533982.40033725
1.304917109835845	217877750.91545838
1.3070919716855713	254553535.93870115
1.3092704583050472	269632661.18864375
1.3114525757355557	268444106.33748686
1.3136383300284484	242966582.40120474
1.3158277272451624	210278050.44931653
1.3180207734572378	214588733.19910684
1.3202174747463333	223988223.77812046
1.3224178372042439	235999241.29350924
1.3246218669329177	212733764.10131696
1.3268295700444726	185695808.2861557
1.3290409526612135	156726062.9926557
1.3312560209156488	112325863.94842917
1.3334747809505083	70468864.23153564
1.3356972389187591	42695742.45424865
1.3379234009836238	31555914.93409537
1.3401532733185966	33222423.279799405
1.342386862107461	22427178.017105587
1.344624173544307	22447986.824641768
1.3468652138335475	20695830.651292827
1.3491099891899365	18558342.211193006
1.3513585058385866	9983386.877826493
1.3536107700149842	11009594.041627344
1.3558667879650093	14285356.726107547
1.358126565944951	11826129.764459452
1.360390110221526	12279594.730666535
1.3626574270718954	18385603.73900458
1.3649285227836818	21612237.405797448
1.367203403654988	19911893.383612093
1.369482075994413	19614779.442390114
1.3717645461210706	15209283.486347804
1.3740508203646056	12442848.696246922
1.3763409050652133	14683350.75534046
1.3786348065736556	20044667.344879325
1.3809325312512784	31168261.929818533
1.3832340854700305	25141542.082114782
1.3855394756124806	19469427.461571466
1.3878487080718347	20269489.467272222
1.3901617892519544	22628779.06449132
1.3924787255673745	23407444.649531826
1.3947995234433201	21475023.707097612
1.3971241893157258	13660914.606852446
1.399452729631252	18076952.406623963
1.401785150847304	19770580.506324273
1.40412145943205	13455877.45458034
1.4064616618644366	12820038.282369597
1.4088057646342107	14902167.5534926
1.4111537742419344	17474946.784535203
1.4135056971990045	26446468.347245045
1.4158615400276693	21261743.235901445
1.418221309261049	14815324.70058619
1.4205850114431506	14995299.323300077
1.4229526531288894	10253888.862770293
1.425324240884104	12688006.833540741
1.4276997812855778	18484921.621143416
1.4300792809210539	20493183.69057446
1.4324627463892556	16263339.971909726
1.4348501842999046	10740854.19455087
1.4372416012737377	15578137.624826206
1.4396370039425272	17748130.742919195
1.442036398949098	17967485.07926046
1.4444397929473467	11788155.303538293
1.4468471926022592	12572061.281646712
1.4492586045899296	21109349.003538363
1.4516740355975797	26597620.37618844
1.4540934923235755	25462172.92411172
1.4565169814774481	26450372.03283142
1.4589445097799105	36868477.73100915
1.4613760839628773	29213993.294572063
1.4638117107694821	36676865.01506967
1.466251396954098	56682685.351296015
1.4686951492823548	50419607.97238609
1.471142974531159	52325982.42861214
1.4735948794887108	45901030.48122724
1.4760508709545253	39207455.11791508
1.4785109557394496	44629693.69057435
1.4809751406656821	42868404.55886086
1.4834434325667916	32572642.92074294
1.4859158382877364	31948981.10886092
1.4883923646848827	39192472.01959432
1.490873018626024	49381047.74305091
1.493357806990401	52774372.421405375
1.4958467366687183	48805719.62352359
1.4983398145631663	52574061.06011723
1.5008370475874384	48932739.23002978
1.5033384426667507	63906361.83284477
1.505844006737862	75058384.30418515
1.5083537467490917	59186942.496419765
1.5108676696603405	51484230.93949583
1.5133857824431078	66788484.485704646
1.5159080920805128	72839225.50390548
1.518434605567314	69776312.48752438
1.5209653299099262	56617507.16755343
1.5235002721264426	65140792.21009435
1.5260394392466536	73467393.99726467
1.5285828383120648	84148080.00553304
1.5311304763759181	96848365.76673931
1.5336823605032115	94376672.98391448
1.5362384977707166	93584685.77417019
1.5387988952670015	83803823.96368636
1.5413635600924465	89127482.72847272
1.5439324993592671	103109056.3095241
1.5465057201915329	116984416.6655293
1.5490832297251855	113076302.58815365
1.5516650351080608	106695411.01953466
1.5542511434999076	106682050.28648247
1.5568415620724074	101044461.77756494
1.559436298009195	94327360.10970849
1.5620353585058768	105746481.6603053
1.5646387507700532	128428439.15008804
1.567246482021337	138597466.38989455
1.5698585594913725	133973227.27412403
1.5724749904238582	121769083.43051913
1.5750957820745648	128656171.8185761
1.5777209417113556	133505228.88466159
1.5803504766142082	139876689.3223941
1.5829843940752317	142247388.83044004
1.5856227013986908	146392397.81838757
1.5882654059010217	147690697.70048133
1.5909125149108567	145824791.46440735
1.5935640357690417	142225388.32230413
1.5962199758286568	137363553.2845481
1.598880342455038	138334191.23064852
1.6015451430257963	134034673.33728717
1.6042143849308395	131952028.36966589
1.6068880755723909	131526091.39395964
1.6095662223650118	130057544.99746528
1.6122488327356201	117330040.72852103
1.614935914123513	112726809.38199234
1.6176274739803853	101645218.042813
1.6203235197703527	92701732.47576372
1.62302405896997	103593868.03990442
1.6257290990682536	94626127.16367844
1.6284386475667005	90239502.70652026
1.6311527119793119	88408705.37797055
1.6338712998326108	95390520.30783401
1.6365944186656651	103737146.26086429
1.6393220760301082	105650783.90718536
1.642054279490158	108016405.44521143
1.644791036622642	112666523.04556105
1.6475323550170131	109144783.79218864
1.6502782422753748	104646189.80056058
1.6530287060125004	108050464.6770541
1.6557837538558546	103180585.82145348
1.6585433934456146	104041079.05047308
1.6613076324346907	102126843.12358543
1.6640764784887485	98259777.10144034
1.66684993928623	82579794.5058712
1.6696280225183737	68948778.41405293
1.6724107358892377	76642009.86726895
1.6751980871157197	78826168.97320671
1.6779900839275794	81087279.35516371
1.6807867340674587	85451609.1379944
1.6835880452909044	96266224.85426179
1.6863940253663894	96325489.1321132
1.6892046820753335	84263563.06426235
1.6920200232121256	85027104.24008875
1.694840056584146	83112693.34795138
1.6976647900117863	72054322.12942883
1.700494231328473	72322756.62969805
1.703328388380687	71415230.5619971
1.706167269027988	75656525.24837653
1.709010881143035	78876210.823972
