#wavelength (micron)	surface_flux (erg / (cm2 micron s))
0.7011666666666666	556251.2548647352
0.7023352777777778	591804.7725559749
0.7035058365740741	602999.3922024284
0.7046783463016977	614833.213673803
0.7058528102122005	628930.5149481144
0.7070292315625542	642092.980758772
0.7082076136151585	653238.927485239
0.7093879596378504	665294.8778862078
0.7105702729039134	676822.5708461492
0.7117545566920868	687720.0049679944
0.7129408142865735	697413.824421316
0.7141290489770512	706646.2692450819
0.7153192640586796	710271.3154214184
0.7165114628321108	703500.1448987433
0.7177056486034976	692565.7634746927
0.7189018246845036	696282.7242199657
0.7200999943923111	703395.2687062696
0.7213001610496316	701447.4016229212
0.7225023279847144	696778.4055325874
0.7237064985313556	685322.2047049629
0.7249126760289079	674029.5721957113
0.7261208638222895	662878.7738179596
0.7273310652619932	647372.9480646916
0.7285432837040966	627089.2081031923
0.72975752251027	603986.7541255059
0.7309737850477873	586004.6155861206
0.7321920746895336	569988.6870464291
0.7334123948140163	557398.4604464772
0.7346347488053729	539895.3432374314
0.7358591400533818	519254.1762848639
0.7370855719534709	498674.8325832329
0.7383140479067267	481213.8755102235
0.7395445713199046	462567.20848250826
0.7407771456054377	444441.25213997654
0.7420117741814469	424097.4876492975
0.7432484604717493	403541.8224670176
0.744487207905869	384688.3185583258
0.7457280199190454	365454.09324086906
0.7469708999522439	345613.2590085078
0.7482158514521644	323925.43050667655
0.7494628778712513	302310.18020404986
0.7507119826677034	281044.6921290134
0.7519631693054829	259403.93368858448
0.7532164412543255	239170.04722934315
0.7544718019897494	219021.01268033677
0.7557292549930656	198517.56378600924
0.7569888037513873	178202.9984982448
0.7582504517576398	159110.5617326794
0.7595142025105692	141451.71891753137
0.7607800595147535	120884.25736618678
0.7620480262806114	89820.47831731239
0.7633181063244125	51024.89252322821
0.7645903031682866	19971.693178078178
0.7658646203402337	5370.364512684499
0.7671410613741342	2745.1758729576327
0.7684196298097576	5353.952818648805
0.7697003291927741	4424.9420058775495
0.770983163074762	8090.0069364168385
0.77226813501322	24486.741211115423
0.7735552485715754	50144.490831126925
0.7748445073191947	-98367.60824054702
0.7761359148313933	112709.71963283655
0.7774294746894457	143816.16602324593
0.7787251904805949	171917.37195576946
0.7800230657980626	155058.5108215664
0.7813231042410594	225813.14807192518
0.7826253094147945	328323.9194196346
0.7839296849304858	389098.09627148963
0.7852362344053699	449566.9867525729
0.7865449614627122	512919.95879973145
0.7878558697318168	579005.4897481134
0.7891689628480365	651105.7201880225
0.7904842444527834	726649.9070391313
0.791801718193538	804111.9953805886
0.7931213877238606	837595.0330886912
0.7944432567034004	658929.3035427562
0.795767328797906	742929.9930986356
0.7970936076792359	1131241.7838916986
0.7984220970253681	1298876.3375802778
0.7997528005204104	1425722.0046648015
0.801085721854611	1551694.5719188135
0.8024208647243688	1681229.686074074
0.8037582328322427	1809443.6798139215
0.8050978298869632	1945042.2961916174
0.8064396596034414	2087852.4649475948
0.8077837257027807	2231154.5253829714
0.8091300319122853	2376737.8515346474
0.8104785819654725	2541437.4483435163
0.8118293796020817	2702860.992356836
0.8131824285680851	2827713.222659877
0.8145377326156986	2989719.6160817044
0.8158952955033916	3266050.6629979745
0.8172551209958971	3462974.645578762
0.8186172128642236	3592551.9155155155
0.819981574885664	3764280.414712415
0.8213482108438068	4048145.5483342507
0.8227171245285466	4213555.668549292
0.8240883197360943	4340882.486274963
0.8254618002689877	4689713.446688698
0.8268375699361028	5004822.169876422
0.828215632552663	5259565.557719753
0.8295959919402508	5435670.21771172
0.830978651926818	5867416.502388953
0.832363616346696	6217431.760231607
0.8337508890406071	6498252.09050377
0.8351404738556749	6794924.137328618
0.8365323746454344	7093790.384709783
0.8379265952698435	7407612.80822956
0.8393231395952933	7758274.205789814
0.8407220114946187	8149479.012183166
0.8421232148471098	8491924.454524364
0.8435267535385217	8850236.150779355
0.8449326314610859	9212792.447304042
0.8463408525135211	9590184.900458777
0.8477514206010437	9983612.006302223
0.8491643396353787	10271832.273108218
0.8505796135347711	10295243.36139092
0.8519972462239958	8462681.981039794
0.8534172416343692	9583169.055264592
0.8548396037037598	12127660.633166479
0.8562643363765994	12863003.345589299
0.8576914436038937	13422062.112055616
0.8591209293432337	13995351.227347044
0.8605527975588058	14098055.46239831
0.8619870522214037	13754331.60275288
0.8634236973084395	14167083.675968
0.8648627368039535	14920092.843947295
0.8663041746986269	15476961.930367839
0.8677480149897913	15794790.803794172
0.8691942616814409	16501903.591665123
0.8706429187842434	17213444.23464659
0.8720939903155505	17441974.035380956
0.8735474802994098	18122732.997924753
0.8750033927665755	18903337.989689693
0.8764617317545198	19733385.189668845
0.8779225013074441	19880007.042832833
0.8793857054762898	20096757.542504475
0.8808513483187503	21147997.968972225
0.8823194338992816	22828897.874284122
0.8837899662891138	23567795.433619585
0.8852629495662623	24038478.85553036
0.8867383878155394	25297638.758798253
0.8882162851285654	25890051.230736632
0.8896966456037797	25937347.487120077
0.8911794733464526	26188139.67461142
0.8926647724686968	26084462.088933133
0.894152547089478	21005883.58856578
0.8956428013346271	22527921.590790518
0.8971355393368516	29293134.306269027
0.8986307652357465	31451360.105938867
0.9001284831778059	32189145.008687876
0.9016286973164357	33653452.1573263
0.9031314118119631	35565669.204899915
0.9046366308316498	36909835.73875909
0.9061443585497025	36971972.17062307
0.9076545991472854	38505819.52096503
0.9091673568125309	40619954.91599793
0.9106826357405519	42063923.56077121
0.9122004401334528	43696179.28413595
0.9137207742003418	43886654.93786036
0.9152436421573426	44648790.78634454
0.9167690482276047	45399803.473843284
0.9182969966413176	46083465.2925372
0.9198274916357196	48749731.2982691
0.9213605374551126	50986969.41115464
0.9228961383508711	52767040.833349474
0.924434298581456	53149814.22447847
0.9259750224124251	50606184.663099736
0.9275183141164459	40944401.66259571
0.9290641779733066	31644835.10811365
0.9306126182699289	34242622.424697645
0.9321636393003788	36062479.49544335
0.9337172453658794	41627652.528871074
0.9352734407748227	49825800.16225046
0.9368322298427807	55404506.39100771
0.9383936168925188	57285003.85898579
0.9399576062540064	57532283.137795605
0.9415242022644297	60575810.771403484
0.9430934092682037	58165893.00087552
0.9446652316169841	55230495.86856885
0.9462396736696792	58196362.664452255
0.947816739792462	64885637.1123723
0.9493964343587827	68186976.33150382
0.9509787617493808	59379456.00735288
0.9525637263522965	63544218.66587236
0.9541513325628838	73066163.38541968
0.9557415847838219	77487086.64666162
0.9573344874251283	76543458.37618986
0.9589300449041701	73174516.54535803
0.9605282616456772	69877165.56387985
0.9621291420817533	67969573.88845246
0.9637326906518895	79324550.87963767
0.9653389118029762	82192395.4404144
0.9669478099893144	75555958.82215889
0.96855938967263	81652186.8789831
0.9701736553220844	86881846.45657511
0.971790611414288	87210473.72494672
0.9734102624333119	89750345.97445482
0.9750326128707006	95525182.53243782
0.9766576672254852	99840433.47286418
0.9782854300041944	90427018.47723867
0.9799159057208682	93967106.89191853
0.9815490988970695	104965054.20354752
0.9831850140618982	100656436.01471141
0.9848236557520013	102794492.3473728
0.986465028511588	108367698.88993578
0.9881091368924407	104550244.8116776
0.9897559854539281	89052718.02317695
0.991405578763018	70049616.1185838
0.9930579213942898	71082179.34562346
0.994713017929947	81017870.95486575
0.9963708729598303	83533931.24987559
0.9980314910814301	79869504.78524837
0.9996948768998991	67748461.72075456
1.0013610350280657	64506064.530684225
1.0030299700864458	79508947.64079519
1.0047016867032565	83123148.6392819
1.0063761895144285	85437958.46949443
1.0080534831636194	93524213.84973258
1.0097335723022256	95534305.9247981
1.011416461589396	96475821.70877828
1.013102155692045	97897376.97161473
1.014790659284865	101985215.20002732
1.01648197705034	98948193.93644848
1.018176113678757	99524078.84211041
1.0198730738682218	104690138.5967006
1.021572862324669	112361987.85689355
1.0232754837618767	116754229.98115349
1.0249809429014798	116125797.80772609
1.0266892444729823	106605192.57548335
1.0284003932137706	109591844.64622653
1.030114393869127	115055541.68957281
1.0318312511922423	118926369.4480477
1.0335509699442293	124949368.71763113
1.0352735548941365	132661780.37908366
1.0369990108189602	140390755.10240963
1.0387273425036585	138929936.97239968
1.0404585547411644	144097762.28234956
1.0421926523323999	138259330.4009092
1.0439296400862872	137641674.26080334
1.0456695228197646	150904466.17518464
1.0474123053577973	143202150.9105462
1.0491579925333938	144313868.96456105
1.0509065891876161	142643151.6790575
1.0526581001695956	143690140.26968315
1.0544125303365448	153116562.13755268
1.0561698845537726	150670452.97644874
1.0579301676946955	152345617.1829514
1.0596933846408534	153935542.4640071
1.0614595402819214	155257596.89195913
1.0632286395157247	163956085.01011857
1.065000687248251	165818478.8035607
1.0667756883936648	158953248.19313982
1.068553647874321	166298339.1060703
1.070334570620778	174885878.7486567
1.072118461571813	183023438.3567524
1.0739053256744326	188610181.3363629
1.07569516788389	188579456.47473028
1.0774879931636965	191316712.87162223
1.079283806485636	195705107.6811448
1.0810826128297788	193292297.93384442
1.0828844171844951	205210318.48421407
1.0846892245464692	207797344.46327928
1.0864970399207134	201589161.38342637
1.0883078683205814	208886435.7980712
1.0901217147677824	204255904.7171046
1.0919385842923954	185597640.51270255
1.0937584819328827	187505037.4841886
1.0955814127361043	176808963.16321057
1.0974073817573313	164145850.3426263
1.09923639406026	163427054.53713536
1.1010684547170273	151702737.58202222
1.1029035688082225	148488356.24289784
1.1047417414229028	130412957.9214417
1.1065829776586076	114179452.041784
1.108427282621372	117748275.25787964
1.110274661425741	101559378.00567706
1.112125119194784	102179717.3836992
1.1139786610601086	115264207.10082632
1.1158352921618757	117889218.99991305
1.117695017648812	104574665.02406058
1.1195578426782267	101593758.37335041
1.1214237724160239	113597950.08028984
1.1232928120367172	122920533.50388819
1.1251649667234453	132709403.50676364
1.1270402416679843	133379136.3193585
1.1289186420707642	138676556.4627531
1.1308001731408823	116946883.42662492
1.1326848400961171	86551439.34085976
1.1345726481629441	66504778.8265689
1.136463602576549	89595028.32197572
1.1383577085808434	91219610.72010091
1.1402549714284782	85009866.15598483
1.1421553963808588	91422428.28286658
1.1440589887081603	106904171.97938381
1.1459657536893408	121858215.52297507
1.1478756966121564	130261747.3898982
1.1497888227731765	149292436.6154743
1.1517051374777987	140039222.23433116
1.1536246460402617	121217140.37014888
1.155547353783662	111526671.04141633
1.1574732660399685	111574068.2384786
1.1594023881500348	112570633.17936866
1.1613347254636184	94108237.64186677
1.163270283339391	106225739.6605815
1.1652090671449569	105145834.6939346
1.1671510822568651	90615366.38243718
1.1690963340606266	68656715.2523463
1.1710448279507277	75643027.02262592
1.1729965693306457	84331822.25637843
1.1749515636128636	77976554.53039953
1.176909816218885	52689988.48284049
1.17887133257925	62301550.33353079
1.1808361181335487	95424220.57178886
1.182804178330438	100414051.64815699
1.1847755186276552	118287252.89882813
1.1867501444920348	159291227.03662553
1.1887280613995215	174402085.3039581
1.1907092748351875	167270994.1903987
1.1926937902932462	174134242.77585462
1.1946816132770681	171086056.42841613
1.1966727492991969	177481752.20444188
1.1986672038813622	178871472.5774853
1.2006649825544977	186157168.93195564
1.2026660908587554	199824090.29264
1.20467053434352	211694910.08373237
1.206678318567426	214104464.0101688
1.2086894490983717	212758742.5955436
1.2107039315135357	223456497.81521076
1.2127217713993916	232671046.82096747
1.214742974351724	247128327.3503004
1.2167675459756435	250380398.22249693
1.218795491885603	258735837.8844926
1.2208268177054122	254994992.17620164
1.2228615290682547	250848408.77576658
1.2248996316167018	272482466.7321559
1.2269411310027298	290558529.91285384
1.2289860328877344	291886267.9990821
1.2310343429425474	289562291.4595006
1.2330860668474517	286564465.1188582
1.2351412102921975	283101475.2558726
1.2371997789760178	283674615.55832654
1.2392617786076445	269429561.9436506
1.241327214905324	236093090.06981963
1.243396093596833	205410309.05944073
1.2454684204194943	227572266.90642673
1.2475442011201936	255595439.00842273
1.249623441455394	243505675.08344024
1.251706147191153	197556350.46577522
1.2537923241031383	200017297.86678484
1.2558819779766437	264095276.72246024
1.2579751146066047	299672544.23738235
1.2600717397976158	314511269.1456932
1.262171859363945	318510611.9193518
1.2642754791295518	307019364.15622216
1.266382604928101	323358783.0705687
1.2684932426029811	342339060.9069741
1.2706073980073196	342328510.73703355
1.2727250770039986	341105521.59248906
1.274846285465672	324008216.5807937
1.2769710292747813	327322437.418961
1.2790993143235727	330851374.4512165
1.2812311465141122	329789171.55775225
1.2833665317583023	333558954.763049
1.2855054759778997	315249595.47170085
1.2876479851045295	299511080.5308788
1.2897940650797037	289276711.17450714
1.2919437218548366	286104163.1406367
1.2940969613912614	296965528.6180468
1.2962537896602468	311689480.63209355
1.298414212643014	299331033.16618985
1.3005782363307525	271541444.2113965
1.302745866724637	259431284.83871585
1.304917109835845	258241042.55815238
1.3070919716855713	282058068.3720847
1.3092704583050472	291203901.82091933
1.3114525757355557	290473176.4762272
1.3136383300284484	268929451.7735845
1.3158277272451624	242964130.22353998
1.3180207734572378	244589849.43966317
1.3202174747463333	247253230.60822666
1.3224178372042439	250784982.5264842
1.3246218669329177	221749688.2665695
1.3268295700444726	196961479.13264006
1.3290409526612135	173812896.14205632
1.3312560209156488	120484897.27791104
1.3334747809505083	72584586.02614073
1.3356972389187591	42372545.55860926
1.3379234009836238	27996305.545405973
1.3401532733185966	28790493.065717522
1.342386862107461	20441914.469773963
1.344624173544307	19624147.771291345
1.3468652138335475	17863460.82775477
1.3491099891899365	17326231.550132237
1.3513585058385866	9485260.478183853
1.3536107700149842	9118436.388516285
1.3558667879650093	12540418.04534996
1.358126565944951	11026326.924272532
1.360390110221526	10261753.622365233
1.3626574270718954	15254626.673991283
1.3649285227836818	18871019.93887766
1.367203403654988	17527558.007559337
1.369482075994413	17098706.42224166
1.3717645461210706	13527733.799258912
1.3740508203646056	11756058.470514875
1.3763409050652133	15732569.720984949
1.3786348065736556	21816449.8387729
1.3809325312512784	29063760.873162355
1.3832340854700305	22737653.134238724
1.3855394756124806	18710001.892496813
1.3878487080718347	21137631.42883546
1.3901617892519544	22578810.849662565
1.3924787255673745	22084734.855717283
1.3947995234433201	19080216.76396825
1.3971241893157258	12260340.218497375
1.399452729631252	16861551.587859
1.401785150847304	17978614.132161286
1.40412145943205	14064564.30463138
1.4064616618644366	13962558.244698849
1.4088057646342107	14678961.48647948
1.4111537742419344	15799339.783338794
1.4135056971990045	23627000.90990502
1.4158615400276693	20538505.036358133
1.418221309261049	15250248.359354213
1.4205850114431506	15466624.81629383
1.4229526531288894	11049086.111331197
1.425324240884104	11885889.173772495
1.4276997812855778	17032890.076997105
1.4300792809210539	20328713.33643429
1.4324627463892556	17380332.68297589
1.4348501842999046	12518063.381098812
1.4372416012737377	16610392.57025819
1.4396370039425272	17910495.98311478
1.442036398949098	18956218.42038746
1.4444397929473467	14049409.342740431
1.4468471926022592	14784945.312466621
1.4492586045899296	22351512.645006705
1.4516740355975797	28720050.304248516
1.4540934923235755	28229426.35151278
1.4565169814774481	28376256.718088344
1.4589445097799105	39997119.60704233
1.4613760839628773	31414342.574043356
1.4638117107694821	36802996.68005828
1.466251396954098	56725354.43161947
1.4686951492823548	50476155.8041688
1.471142974531159	53858178.987284355
1.4735948794887108	49055896.91481174
1.4760508709545253	42479776.57134543
1.4785109557394496	46373635.564763755
1.4809751406656821	44287888.120173134
1.4834434325667916	34541778.684246525
1.4859158382877364	33127480.186832566
1.4883923646848827	40708434.87209755
1.490873018626024	52154634.83544696
1.493357806990401	56144176.58105243
1.4958467366687183	52531265.599932775
1.4983398145631663	57187869.340670876
1.5008370475874384	54872749.778111875
1.5033384426667507	66840796.85002148
1.505844006737862	76940299.67963712
1.5083537467490917	62972804.262072675
1.5108676696603405	57043474.08321665
1.5133857824431078	73099190.27528724
1.5159080920805128	77874411.12773387
1.518434605567314	72967045.43525699
1.5209653299099262	65772746.163738854
1.5235002721264426	74866253.12870857
1.5260394392466536	83536156.11386481
1.5285828383120648	94010063.50405975
1.5311304763759181	101450222.91303211
1.5336823605032115	101057738.83170147
1.5362384977707166	102172062.8138684
1.5387988952670015	96214782.50263707
1.5413635600924465	103444348.27629562
1.5439324993592671	112721993.37275104
1.5465057201915329	124847343.93329398
1.5490832297251855	121880309.14087622
1.5516650351080608	116595824.11199035
1.5542511434999076	120000124.6627679
1.5568415620724074	117117420.82788612
1.559436298009195	113468323.72424862
1.5620353585058768	123056871.41635382
1.5646387507700532	136580042.5721341
1.567246482021337	146033140.11562267
1.5698585594913725	143317557.06976065
1.5724749904238582	134550612.1696622
1.5750957820745648	139944684.17807925
1.5777209417113556	143949405.60553634
1.5803504766142082	147527227.24269748
1.5829843940752317	149410759.95766586
1.5856227013986908	153075088.00035477
1.5882654059010217	153465297.56031534
1.5909125149108567	149060173.09650046
1.5935640357690417	145320737.84488767
1.5962199758286568	141523545.77312022
1.598880342455038	139888235.23336494
1.6015451430257963	134475301.75454783
1.6042143849308395	129555628.98553641
1.6068880755723909	126964093.62767956
1.6095662223650118	122832233.86649096
1.6122488327356201	111847543.55263285
1.614935914123513	108574530.68873964
1.6176274739803853	99294773.97590747
1.6203235197703527	89257720.10901056
1.62302405896997	95613722.6511524
1.6257290990682536	87879822.04212788
1.6284386475667005	84229705.37204365
1.6311527119793119	81697825.11617938
1.6338712998326108	88358643.06689753
1.6365944186656651	93636610.72630496
1.6393220760301082	95628056.48687014
1.642054279490158	98983225.77766486
1.644791036622642	99649727.99913318
1.6475323550170131	96144436.21302493
1.6502782422753748	94349698.60036337
1.6530287060125004	98285549.56510757
1.6557837538558546	94481280.8776917
1.6585433934456146	95918211.21967314
1.6613076324346907	96119671.5945141
1.6640764784887485	90297755.05495267
1.66684993928623	70008932.87680566
1.6696280225183737	59304947.62033006
1.6724107358892377	66881365.326602
1.6751980871157197	70163429.14216861
1.6779900839275794	74182864.80329198
1.6807867340674587	77887263.12721221
1.6835880452909044	85622826.89874609
1.6863940253663894	84652544.75137812
1.6892046820753335	76212224.88011912
1.6920200232121256	75858735.27902815
1.694840056584146	73632565.44926874
1.6976647900117863	66125936.10891091
1.700494231328473	65811337.581143014
1.703328388380687	65637972.64415749
1.706167269027988	69959088.52248488
1.709010881143035	74066405.93323316
