#wavelength (micron)	surface_flux (erg / (cm2 micron s))
0.7011666666666666	4010725.0245950217
0.7023352777777778	4250561.521908355
0.7035058365740741	4319571.813582776
0.7046783463016977	4378602.908290431
0.7058528102122005	4387594.1744117215
0.7070292315625542	4448795.315162301
0.7082076136151585	4530352.684284249
0.7093879596378504	4573637.706086791
0.7105702729039134	4614537.780406238
0.7117545566920868	4729181.05158272
0.7129408142865735	4746198.348739384
0.7141290489770512	4766950.205398704
0.7153192640586796	4855541.176501879
0.7165114628321108	4909650.611085288
0.7177056486034976	4964510.034502988
0.7189018246845036	5036016.578864553
0.7200999943923111	5040745.324687951
0.7213001610496316	5017379.894066295
0.7225023279847144	5014374.185082941
0.7237064985313556	4946871.107209486
0.7249126760289079	4859032.934919567
0.7261208638222895	4796996.599786228
0.7273310652619932	4711468.224685042
0.7285432837040966	4586756.959768881
0.72975752251027	4457329.872264483
0.7309737850477873	4326435.1410440905
0.7321920746895336	4192634.8782156506
0.7334123948140163	4058214.81330994
0.7346347488053729	3909388.8500489662
0.7358591400533818	3758606.84095511
0.7370855719534709	3612833.7353316476
0.7383140479067267	3473668.6081172866
0.7395445713199046	3336473.0013952227
0.7407771456054377	3200743.486790294
0.7420117741814469	3056063.2023218484
0.7432484604717493	2914311.4567476176
0.744487207905869	2787234.1092222244
0.7457280199190454	2659707.1508518206
0.7469708999522439	2529820.311891166
0.7482158514521644	2391271.8885012595
0.7494628778712513	2245086.3330334025
0.7507119826677034	2098124.691182429
0.7519631693054829	1955983.4950342467
0.7532164412543255	1825228.665184424
0.7544718019897494	1699197.2397710155
0.7557292549930656	1570035.5141203525
0.7569888037513873	1433599.268621402
0.7582504517576398	1290205.575039854
0.7595142025105692	1143473.456507739
0.7607800595147535	974283.9824242191
0.7620480262806114	733460.1922839838
0.7633181063244125	430043.71449549263
0.7645903031682866	166219.5954215216
0.7658646203402337	78595.64175343444
0.7671410613741342	14108.464626998906
0.7684196298097576	32107.58470948495
0.7697003291927741	25992.24323437755
0.770983163074762	59528.56552944056
0.77226813501322	205103.96597945297
0.7735552485715754	404142.4427733647
0.7748445073191947	612286.2364345661
0.7761359148313933	841038.4563038399
0.7774294746894457	1112245.959890741
0.7787251904805949	1305305.4743809372
0.7800230657980626	1166575.2820475483
0.7813231042410594	1640648.86102344
0.7826253094147945	2319415.504439979
0.7839296849304858	2690378.4730537725
0.7852362344053699	3048002.51588296
0.7865449614627122	3416234.788699851
0.7878558697318168	3800244.398715052
0.7891689628480365	4202864.6913990015
0.7904842444527834	4614232.328111818
0.791801718193538	5034137.506366855
0.7931213877238606	5185934.038828681
0.7944432567034004	4082765.5053810743
0.795767328797906	4543807.743707286
0.7970936076792359	6750401.619768079
0.7984220970253681	7630913.895015806
0.7997528005204104	8286236.57498821
0.801085721854611	8982991.522377511
0.8024208647243688	9735757.025971433
0.8037582328322427	10408700.370726516
0.8050978298869632	11102336.927437542
0.8064396596034414	11982599.829799915
0.8077837257027807	12810531.784879167
0.8091300319122853	13743946.596608182
0.8104785819654725	14798578.115099225
0.8118293796020817	15785456.429946177
0.8131824285680851	16668328.601603722
0.8145377326156986	17657677.204120442
0.8158952955033916	18895067.724800248
0.8172551209958971	19493476.870032676
0.8186172128642236	18598192.120557547
0.819981574885664	19240282.63127034
0.8213482108438068	22538114.284641523
0.8227171245285466	24441173.897015642
0.8240883197360943	25552957.159324635
0.8254618002689877	27196088.313218135
0.8268375699361028	28699260.47566922
0.828215632552663	29911665.79308606
0.8295959919402508	30970167.773930475
0.830978651926818	32996899.194497354
0.832363616346696	34807771.61580284
0.8337508890406071	36253686.443169765
0.8351404738556749	37644486.120652
0.8365323746454344	39243203.11482159
0.8379265952698435	40678419.500993736
0.8393231395952933	42408461.71377395
0.8407220114946187	44563500.06159899
0.8421232148471098	46019232.86661079
0.8435267535385217	46523151.332896836
0.8449326314610859	46265862.61000668
0.8463408525135211	46958486.547549464
0.8477514206010437	48766291.40181765
0.8491643396353787	50384666.94161455
0.8505796135347711	49797137.44748046
0.8519972462239958	40480464.84858686
0.8534172416343692	45897800.24190971
0.8548396037037598	57401813.363419645
0.8562643363765994	60671874.360541515
0.8576914436038937	62662789.22779675
0.8591209293432337	65615467.959590055
0.8605527975588058	63454104.03615775
0.8619870522214037	57110118.048546776
0.8634236973084395	58040708.381845005
0.8648627368039535	61374270.56324079
0.8663041746986269	63520435.99350045
0.8677480149897913	63151111.61720373
0.8691942616814409	63381216.09898914
0.8706429187842434	61705619.19148034
0.8720939903155505	60595839.80543019
0.8735474802994098	64023778.748144954
0.8750033927665755	67609351.61478958
0.8764617317545198	71711733.49371922
0.8779225013074441	70732243.9333619
0.8793857054762898	71855213.53678496
0.8808513483187503	75827115.5995413
0.8823194338992816	84679732.32024673
0.8837899662891138	86160600.40107581
0.8852629495662623	86169176.8694258
0.8867383878155394	89539317.22405167
0.8882162851285654	88591745.09123781
0.8896966456037797	89305845.03153828
0.8911794733464526	91980016.36125506
0.8926647724686968	94784745.08820505
0.894152547089478	79130961.17075515
0.8956428013346271	81642215.76182282
0.8971355393368516	105434913.63470063
0.8986307652357465	118521670.14868428
0.9001284831778059	122126916.80695854
0.9016286973164357	120280741.03172319
0.9031314118119631	119955669.32379751
0.9046366308316498	121247625.69272873
0.9061443585497025	115582761.95458557
0.9076545991472854	122904262.95804831
0.9091673568125309	135350236.1005824
0.9106826357405519	146035472.19232777
0.9122004401334528	151753148.7819666
0.9137207742003418	143895979.95698497
0.9152436421573426	144017925.7163035
0.9167690482276047	151356825.51198974
0.9182969966413176	155692506.32906103
0.9198274916357196	157443069.6187391
0.9213605374551126	158128457.06833354
0.9228961383508711	163722005.8483673
0.924434298581456	163705220.36188203
0.9259750224124251	157563804.601824
0.9275183141164459	139435317.7889831
0.9290641779733066	126047123.52027936
0.9306126182699289	132181226.00556073
0.9321636393003788	134056360.73427682
0.9337172453658794	143293703.19970533
0.9352734407748227	160367990.09660602
0.9368322298427807	171990358.6591207
0.9383936168925188	175618297.82635355
0.9399576062540064	174691574.70510805
0.9415242022644297	184115940.65500134
0.9430934092682037	184336970.67178977
0.9446652316169841	179189117.1753881
0.9462396736696792	186092243.15415213
0.947816739792462	202351698.71144086
0.9493964343587827	217404517.66342804
0.9509787617493808	202025425.96903417
0.9525637263522965	208454284.4173669
0.9541513325628838	224841549.66978112
0.9557415847838219	225934161.30576152
0.9573344874251283	236150572.2302482
0.9589300449041701	236111699.61581057
0.9605282616456772	216603084.36503166
0.9621291420817533	219495050.05971587
0.9637326906518895	247809926.66010374
0.9653389118029762	249760938.6678975
0.9669478099893144	240764575.06318057
0.96855938967263	256272841.1197752
0.9701736553220844	263560097.24831307
0.971790611414288	252045168.42003545
0.9734102624333119	257064454.05156127
0.9750326128707006	269016842.85446215
0.9766576672254852	276723801.30165935
0.9782854300041944	252737347.09158692
0.9799159057208682	259060814.3481739
0.9815490988970695	284235576.46958435
0.9831850140618982	267542216.0907199
0.9848236557520013	266750127.1357051
0.986465028511588	277885832.3449965
0.9881091368924407	272339093.0455476
0.9897559854539281	204788708.02615145
0.991405578763018	126971595.94018078
0.9930579213942898	126142324.58735181
0.994713017929947	151620075.27746174
0.9963708729598303	158195169.2625266
0.9980314910814301	151165134.02993113
0.9996948768998991	136819395.50446257
1.0013610350280657	134845341.16959134
1.0030299700864458	152803053.03346217
1.0047016867032565	156562711.6471882
1.0063761895144285	161013047.61105466
1.0080534831636194	181609140.2904944
1.0097335723022256	184206811.44488537
1.011416461589396	180652285.63596135
1.013102155692045	180053960.5057936
1.014790659284865	187608450.19509035
1.01648197705034	177483022.0080409
1.018176113678757	175472749.3533799
1.0198730738682218	181389753.35342392
1.021572862324669	200881347.26304832
1.0232754837618767	212668658.70974943
1.0249809429014798	212324075.40238053
1.0266892444729823	180404467.45149902
1.0284003932137706	182565565.05464247
1.030114393869127	193078612.60335058
1.0318312511922423	199336316.40436745
1.0335509699442293	210689347.87702465
1.0352735548941365	230889696.96814984
1.0369990108189602	250658703.6542498
1.0387273425036585	241703044.81995606
1.0404585547411644	249836232.37375456
1.0421926523323999	236160621.9136107
1.0439296400862872	230656381.1356305
1.0456695228197646	261307024.13605255
1.0474123053577973	245309772.7905291
1.0491579925333938	246979773.42914277
1.0509065891876161	237081318.7503658
1.0526581001695956	249387319.16975987
1.0544125303365448	275251978.2420093
1.0561698845537726	262817958.4447583
1.0579301676946955	264240585.56506687
1.0596933846408534	259925837.27385587
1.0614595402819214	261754092.3337795
1.0632286395157247	287330622.01385194
1.065000687248251	285105048.407899
1.0667756883936648	260572903.73399848
1.068553647874321	276580651.8324628
1.070334570620778	302104041.29778594
1.072118461571813	327977143.2134225
1.0739053256744326	334306389.8669172
1.07569516788389	329851567.67184377
1.0774879931636965	337149384.26165783
1.079283806485636	349869658.08006734
1.0810826128297788	340291560.29944915
1.0828844171844951	363087075.46391374
1.0846892245464692	369731717.6774203
1.0864970399207134	356847854.8268483
1.0883078683205814	387970396.2848744
1.0901217147677824	381953886.2260651
1.0919385842923954	340224359.8564989
1.0937584819328827	379051437.0807056
1.0955814127361043	380580774.0510146
1.0974073817573313	352069614.81965446
1.09923639406026	356614294.0163711
1.1010684547170273	352853815.0883967
1.1029035688082225	344190754.04343635
1.1047417414229028	311073980.3839635
1.1065829776586076	295118540.0474582
1.108427282621372	301316348.4894502
1.110274661425741	279836512.6443322
1.112125119194784	283903318.77530855
1.1139786610601086	316883228.57609075
1.1158352921618757	324195867.0092589
1.117695017648812	305850089.94920176
1.1195578426782267	295195299.82954746
1.1214237724160239	306439173.46442544
1.1232928120367172	339122741.4378119
1.1251649667234453	362960627.62929684
1.1270402416679843	355200434.1654346
1.1289186420707642	345218793.4757653
1.1308001731408823	325480747.642005
1.1326848400961171	283222301.72923326
1.1345726481629441	245760393.13765717
1.136463602576549	275394042.7199278
1.1383577085808434	249711928.42139637
1.1402549714284782	220772270.8367174
1.1421553963808588	253173349.6445324
1.1440589887081603	314076593.09595937
1.1459657536893408	342657943.7808753
1.1478756966121564	372492416.1101127
1.1497888227731765	438520274.0143631
1.1517051374777987	428296175.7539786
1.1536246460402617	388073933.1231956
1.155547353783662	372625013.844283
1.1574732660399685	377562512.5858352
1.1594023881500348	379583912.40359867
1.1613347254636184	326602841.3395649
1.163270283339391	327840789.7068121
1.1652090671449569	315565526.6558672
1.1671510822568651	262050071.65563947
1.1690963340606266	188908957.3460555
1.1710448279507277	223315981.0984539
1.1729965693306457	278204596.5697898
1.1749515636128636	248325975.24401364
1.176909816218885	155283685.87746587
1.17887133257925	173785164.22861204
1.1808361181335487	269785383.3944803
1.182804178330438	297448925.84018075
1.1847755186276552	334878228.42627907
1.1867501444920348	429922792.9130001
1.1887280613995215	477764108.8755528
1.1907092748351875	464632372.1298652
1.1926937902932462	450019058.1634434
1.1946816132770681	389121561.17626745
1.1966727492991969	374577649.1197329
1.1986672038813622	360392797.7597564
1.2006649825544977	356262728.40687597
1.2026660908587554	388630653.5140948
1.20467053434352	432052940.6672966
1.206678318567426	449736599.4145203
1.2086894490983717	444983295.3519534
1.2107039315135357	434988924.85400546
1.2127217713993916	453675641.6150582
1.214742974351724	495487158.8524618
1.2167675459756435	505130051.81849563
1.218795491885603	510792181.3730746
1.2208268177054122	470725803.98163414
1.2228615290682547	467253303.1660389
1.2248996316167018	524351968.3757668
1.2269411310027298	568334538.9241157
1.2289860328877344	557748995.9524652
1.2310343429425474	530104955.14694494
1.2330860668474517	516409448.4920573
1.2351412102921975	517738902.60297155
1.2371997789760178	515718419.6740794
1.2392617786076445	476131465.5283069
1.241327214905324	397730782.60687953
1.243396093596833	343089139.94234717
1.2454684204194943	388408573.8616248
1.2475442011201936	444160083.5683103
1.249623441455394	423281335.9624305
1.251706147191153	335442402.052273
1.2537923241031383	338849288.003969
1.2558819779766437	450500612.2249086
1.2579751146066047	507339654.46663386
1.2600717397976158	529425400.45059645
1.262171859363945	533679726.86142
1.2642754791295518	511699341.2740481
1.266382604928101	552364860.8592718
1.2684932426029811	589553667.7862349
1.2706073980073196	580232383.4886199
1.2727250770039986	587227990.6116031
1.274846285465672	561823339.3605676
1.2769710292747813	561998425.5382543
1.2790993143235727	572562868.4118527
1.2812311465141122	588366307.2180189
1.2833665317583023	601564958.697124
1.2855054759778997	557713110.1468277
1.2876479851045295	529625364.92519146
1.2897940650797037	515895615.2610055
1.2919437218548366	510062458.03406537
1.2940969613912614	525456813.4140285
1.2962537896602468	554881930.8162447
1.298414212643014	551535568.5834073
1.3005782363307525	518604176.6596203
1.302745866724637	523147609.8595385
1.304917109835845	521598683.0973113
1.3070919716855713	543398086.47541
1.3092704583050472	564221656.8978513
1.3114525757355557	583633927.2897968
1.3136383300284484	551144144.3157312
1.3158277272451624	534840036.76369655
1.3180207734572378	540721227.7363546
1.3202174747463333	527406480.7955744
1.3224178372042439	523073447.83616084
1.3246218669329177	494352732.7575521
1.3268295700444726	463974882.8306635
1.3290409526612135	439663557.52753663
1.3312560209156488	348645280.87222147
1.3334747809505083	238627775.181835
1.3356972389187591	143301073.4730855
1.3379234009836238	105999273.75295061
1.3401532733185966	106540148.01565957
1.342386862107461	80737501.31754203
1.344624173544307	83882573.81252967
1.3468652138335475	78301118.82329968
1.3491099891899365	80628306.599886
1.3513585058385866	49599836.54634071
1.3536107700149842	48390672.07408961
1.3558667879650093	65231744.46919618
1.358126565944951	63341802.41461754
1.360390110221526	60156885.79114438
1.3626574270718954	84836036.03637071
1.3649285227836818	100245961.24897084
1.367203403654988	92907073.21881881
1.369482075994413	87404396.2458394
1.3717645461210706	74472375.14396979
1.3740508203646056	68219646.33569129
1.3763409050652133	84582212.2923081
1.3786348065736556	106638806.54506305
1.3809325312512784	134442681.68232435
1.3832340854700305	107460945.64458369
1.3855394756124806	94204552.88801308
1.3878487080718347	103304312.71832328
1.3901617892519544	107396346.28394285
1.3924787255673745	103127638.44374372
1.3947995234433201	86138286.9251035
1.3971241893157258	57874932.717791975
1.399452729631252	77979674.46948247
1.401785150847304	90209351.63357869
1.40412145943205	73979792.56836821
1.4064616618644366	66961113.32498247
1.4088057646342107	71799381.18710077
1.4111537742419344	77857945.92586881
1.4135056971990045	100385257.45451474
1.4158615400276693	87202459.69390659
1.418221309261049	69494724.18434691
1.4205850114431506	69581956.73423085
1.4229526531288894	50966411.517361194
1.425324240884104	55801077.482670106
1.4276997812855778	71230315.39647871
1.4300792809210539	79435815.49672613
1.4324627463892556	72276014.49113762
1.4348501842999046	54462972.25377873
1.4372416012737377	70048649.57483327
1.4396370039425272	74761891.05469906
1.442036398949098	77450518.31528221
1.4444397929473467	63601650.225176506
1.4468471926022592	64116679.31312757
1.4492586045899296	85147576.8139842
1.4516740355975797	104230175.88560912
1.4540934923235755	101387677.21024466
1.4565169814774481	103784157.7501752
1.4589445097799105	135192564.7074174
1.4613760839628773	106779630.46021946
1.4638117107694821	118940083.47956748
1.466251396954098	177191846.85149065
1.4686951492823548	160630909.56199786
1.471142974531159	164899739.50219858
1.4735948794887108	147995755.53415397
1.4760508709545253	134061814.09455104
1.4785109557394496	147640788.37195444
1.4809751406656821	140524596.77963746
1.4834434325667916	109727803.00568782
1.4859158382877364	108640186.95532466
1.4883923646848827	127197203.15529275
1.490873018626024	153031681.55682224
1.493357806990401	160705539.55547178
1.4958467366687183	152450251.64690542
1.4983398145631663	170477241.08879605
1.5008370475874384	161508611.13535842
1.5033384426667507	185065168.40670377
1.505844006737862	208739096.53013828
1.5083537467490917	178685089.441081
1.5108676696603405	165494026.38606605
1.5133857824431078	203891071.67692629
1.5159080920805128	212861418.70372722
1.518434605567314	196919057.96593353
1.5209653299099262	185421255.99586463
1.5235002721264426	202262851.70837918
1.5260394392466536	215263655.1583688
1.5285828383120648	235422041.2583398
1.5311304763759181	251076615.79049954
1.5336823605032115	250503220.08147734
1.5362384977707166	253580981.52106655
1.5387988952670015	239351717.91450655
1.5413635600924465	251557866.43196923
1.5439324993592671	271506202.6009135
1.5465057201915329	291271657.2360683
1.5490832297251855	284187566.69441706
1.5516650351080608	275019500.3982639
1.5542511434999076	281461805.0124589
1.5568415620724074	276083136.2626255
1.559436298009195	268035657.50338078
1.5620353585058768	287289097.7189641
1.5646387507700532	313453481.8562695
1.567246482021337	328798482.9575006
1.5698585594913725	323794812.542997
1.5724749904238582	309417338.7926954
1.5750957820745648	320770972.433477
1.5777209417113556	328329704.9059296
1.5803504766142082	332547075.6832576
1.5829843940752317	317103716.22140414
1.5856227013986908	311361381.2366819
1.5882654059010217	316170009.5097174
1.5909125149108567	311559721.0222938
1.5935640357690417	304275358.58513033
1.5962199758286568	298265415.0833202
1.598880342455038	300452948.374675
1.6015451430257963	299131461.9860181
1.6042143849308395	300579943.0627392
1.6068880755723909	307978680.43909067
1.6095662223650118	311224853.7814465
1.6122488327356201	293285090.73051155
1.614935914123513	284695177.7936893
1.6176274739803853	273002568.5180866
1.6203235197703527	267181670.02471662
1.62302405896997	280834252.2038901
1.6257290990682536	266298289.93173382
1.6284386475667005	264616318.3663764
1.6311527119793119	264622980.5843347
1.6338712998326108	273774178.6960154
1.6365944186656651	280333532.33469135
1.6393220760301082	277980119.95645815
1.642054279490158	280682693.7924203
1.644791036622642	287896697.76534456
1.6475323550170131	285226876.3927937
1.6502782422753748	288036561.7769099
1.6530287060125004	292197522.92518544
1.6557837538558546	282536487.2971083
1.6585433934456146	279109721.5576291
1.6613076324346907	272524447.1429686
1.6640764784887485	271247670.99067163
1.66684993928623	255168060.8349743
1.6696280225183737	245269026.61138073
1.6724107358892377	257949617.9987517
1.6751980871157197	254979725.66081157
1.6779900839275794	257851515.88600993
1.6807867340674587	263961560.56574565
1.6835880452909044	271168873.2354549
1.6863940253663894	264768121.05051494
1.6892046820753335	251045440.61097386
1.6920200232121256	254011313.5524888
1.694840056584146	250958074.20704323
1.6976647900117863	242658814.1326661
1.700494231328473	242303910.6736927
1.703328388380687	242630453.0023539
1.706167269027988	243217167.48844382
1.709010881143035	237557189.57309324
