#wavelength	surface flux
0.6450077295303345	1090733.6338321366
0.6472567915916443	1685674.3907782263
0.6494921445846558	2124976.0068579116
0.6517150402069092	2344855.4346508384
0.6539263725280762	2562022.2883462165
0.6561272740364075	2788489.894671418
0.6583186388015747	3022980.7734746234
0.6605015397071838	3261998.599500659
0.6626768708229065	3493817.0234964187
0.6648455858230591	3675281.991758369
0.6670085787773132	3605686.1366903656
0.6691668033599854	2979497.4088373943
0.6713210344314575	2547011.7148246407
0.6734722256660461	3381188.2108636037
0.6756211519241333	4637837.066576098
0.6777685880661011	5368850.876895196
0.6799154281616211	5820825.690751845
0.6820623278617859	6204167.5014971215
0.6842101216316223	6565307.955485954
0.6863595843315125	6872799.546121765
0.688511312007904	7098940.545517771
0.6906660795211792	7385385.8562541725
0.6928245425224304	7779512.614533912
0.6949873566627502	8153122.229589081
0.6971551775932312	8482695.877397012
0.6993286609649658	8785838.32355818
0.7015084028244019	9065696.034221554
0.7036949396133423	9304544.920195641
0.7058889269828796	9454679.404826675
0.7080909013748169	9549078.359036136
0.710301399230957	9655751.152374133
0.712520956993103	9735879.482590212
0.7147500514984131	9752895.80669245
0.7169892191886902	9740742.173665006
0.7192389369010925	9716273.95407341
0.7214996814727783	9652000.18952128
0.723771870136261	9520455.923263019
0.7260559797286987	9315288.793962857
0.7283523678779602	9037474.93126412
0.7306615710258484	8694604.17556365
0.7329838871955872	8301990.827355855
0.7353196740150452	7862267.127757426
0.7376693487167358	7376019.828731452
0.7400332689285278	6856268.454406989
0.7424117922782898	6310381.33430766
0.7448052167892456	5744352.535542521
0.7472138404846191	5163981.989670934
0.7496379613876343	4571617.939781527
0.7520779371261597	3969567.7534420113
0.7545340061187744	3360786.8810047465
0.7570064663887024	2747280.4446314736
0.7594954967498779	2129568.9600775363
0.7620013952255249	1503749.9698287281
0.7645244002342224	905475.6537338627
0.7670646905899048	514875.5193810823
0.7696225643157959	507097.4350436137
0.7721980810165405	932064.0332482669
0.7747915983200073	1636173.5559554098
0.7774031162261963	2096055.4820856955
0.7800329327583313	2369895.2458057245
0.7826811671257019	3513429.7699413714
0.7853479981422424	5318790.510039013
0.7880334854125977	6782019.507228737
0.7907378077507019	7373352.138744461
0.7934610247612	6670326.050004656
0.7962033748626709	7287599.216496963
0.7989648580551147	10962723.05093233
0.801745593547821	14790918.254087685
0.8045456409454346	17505049.06786891
0.8073651194572449	20012032.623033293
0.8102040886878967	22576186.004574563
0.8130625486373901	25213874.231514018
0.8159406185150146	27167669.754366193
0.8188382983207703	28623257.467225302
0.8217556476593018	32260772.46384644
0.8246926665306091	37717931.2851801
0.8276493549346924	42433072.7489401
0.8306257724761963	46510057.09350036
0.8336219191551208	50676022.4754595
0.8366377949714661	55031652.343172245
0.8396733403205872	59344057.533097565
0.8427285552024841	63067458.35441355
0.8458034992218018	65309039.783779494
0.8488980531692505	62693655.6231248
0.8520121574401855	58540674.671913095
0.8551458716392517	67173173.10739122
0.8582990765571594	79474631.85055025
0.8614717125892639	76797344.4422471
0.8646637797355652	72177599.69800968
0.8678751587867737	79051807.49001454
0.8711057901382446	87648001.4789521
0.8743556141853333	93071630.14510398
0.87762451171875	100165901.68347521
0.8809124231338501	109598376.01121956
0.8842192888259888	117847375.78262757
0.8875449895858765	121215734.77195841
0.8908893465995789	116940144.2651593
0.894252359867096	110339463.79561302
0.8976338505744934	120523123.4965642
0.9010337591171265	138142407.95401704
0.9044519662857056	145129617.79262382
0.9078882932662964	152081363.88342437
0.9113426208496094	165409058.9143917
0.914814829826355	177298719.76108944
0.9183048605918884	183719342.83902165
0.9218124747276306	188662602.55540577
0.925337553024292	187680011.14711666
0.9288799166679382	179117869.79883653
0.9324395060539246	178675824.84003204
0.9360161423683167	191887690.29390737
0.9396095871925354	208293987.9231277
0.943219780921936	220288356.0325507
0.9468464851379395	230110113.8561916
0.9504896402359009	242080708.41944364
0.9541489481925964	252236996.33597764
0.9578243494033813	254861747.2885825
0.9615156054496765	242988147.2646739
0.9652225375175476	234794789.94031626
0.9689450263977051	252680710.087776
0.9726828336715698	276335728.4005565
0.9764357805252075	290435092.78802615
0.9802037477493286	301211431.5616545
0.983986496925354	305134633.5398131
0.9877838492393494	299338940.0683991
0.9915955662727356	286757634.10502994
0.9954215884208679	281830975.4047981
0.9992615580558777	289716959.1134176
1.0031154155731201	300936064.81222934
1.0069829225540161	315490607.7609597
1.0108637809753418	330356935.36369926
1.0147579908370972	337213647.5723125
1.018665075302124	340876118.4050067
1.022585153579712	337159808.2056707
1.0265177488327026	322796149.7642133
1.0304628610610962	326568637.06169474
1.0344202518463135	352668030.2271943
1.0383895635604858	372749612.4215727
1.0423706769943237	385835068.6259256
1.0463634729385376	391575896.63134646
1.0503677129745483	373935854.221375
1.0543830394744873	360107606.2300861
1.058409333229065	376941371.05954766
1.0624464750289917	410057248.2822264
1.0664942264556885	437250950.3848992
1.0705522298812866	450882716.02788985
1.0746204853057861	451899408.0914277
1.0786986351013184	451585490.76258653
1.0827864408493042	466674024.7319239
1.086883783340454	501767672.4428931
1.0909905433654785	552131735.8577391
1.0951062440872192	569071392.3387848
1.0992310047149658	530750217.9016893
1.10336434841156	473368809.87527525
1.1075061559677124	418771799.23145247
1.1116561889648438	380161544.3685419
1.115814208984375	364709660.0456581
1.1199802160263062	368223205.93931687
1.124153733253479	387701251.038996
1.1283347606658936	392710061.85764253
1.1325229406356812	340721572.6535193
1.1367181539535522	272146812.52888244
1.1409201622009277	262536894.02511108
1.145128846168518	320623916.26234764
1.1493438482284546	379369184.86739
1.1535650491714478	387186123.0241585
1.1577922105789185	367868348.55908823
1.1620250940322876	335042160.999625
1.1662636995315552	273686051.5180382
1.170507550239563	219404198.85280007
1.174756646156311	200749311.35964125
1.1790107488632202	221847682.85343325
1.1832695007324219	304158008.6252556
1.1875330209732056	394200294.37282217
1.191800832748413	431816435.91646683
1.1960728168487549	436373966.1345545
1.2003488540649414	447650540.36638635
1.2046287059783936	474511439.6010713
1.2089121341705322	497642268.32003194
1.2131990194320679	521084764.85024244
1.2174891233444214	542805771.9734155
1.2217823266983032	544585499.809899
1.2260783910751343	536486724.13243365
1.230377197265625	533956358.6560714
1.2346785068511963	522291541.6644466
1.238982081413269	469335488.10350436
1.2432878017425537	412650898.54982966
1.2475954294204712	396059853.3276395
1.2519049644470215	387449421.3353436
1.256216049194336	426618332.8499206
1.2605286836624146	503149144.13504004
1.2648425102233887	547043423.4078846
1.2691574096679688	580296793.242565
1.2734732627868652	603294713.7720499
1.2777899503707886	616794611.0012276
1.2821072340011597	632927516.8808948
1.2864248752593994	641546875.948328
1.2907428741455078	644485929.9588057
1.2950609922409058	641203983.5916493
1.2993791103363037	637942244.7181473
1.303696870803833	641513344.3035524
1.3080145120620728	641139871.2872051
1.3123314380645752	636572821.9855053
1.3166478872299194	625553547.128711
1.3209635019302368	600598636.1187186
1.3252781629562378	553302677.1625656
1.3295916318893433	452799091.5881308
1.3339040279388428	287779947.97505
1.3382149934768677	135200363.9277953
1.3425244092941284	66783424.12223444
1.3468321561813354	50520804.41089048
1.3511382341384888	40305201.955361895
1.3554422855377197	33620945.85014756
1.3597444295883179	39407022.86177282
1.3640443086624146	56541663.53563517
1.3683418035507202	72009831.92084774
1.3726370334625244	86601688.69372894
1.3769296407699585	101783583.2044442
1.381219506263733	96617888.75852893
1.3855066299438477	74929233.99115522
1.3897908926010132	58464738.91166156
1.3940720558166504	50135800.60158891
1.3983501195907593	51789524.12594936
1.4026249647140503	62354415.65666609
1.4068963527679443	65552140.885877274
1.4111642837524414	58201753.64188892
1.4154287576675415	53402392.61317062
1.419689416885376	51341145.11120942
1.4239463806152344	52745498.953516535
1.4281994104385376	60563543.45492769
1.4324485063552856	66449367.629823945
1.436693549156189	68496445.11117578
1.440934419631958	72754041.11883119
1.4451709985733032	79939465.18546921
1.449403166770935	89124149.44876572
1.453631043434143	99640950.84848054
1.4578542709350586	111673566.04423
1.4620729684829712	118400346.93822089
1.4662868976593018	118402584.52597004
1.4704961776733398	122955783.08476025
1.4747005701065063	131174977.09135357
1.4788999557495117	135052932.4683249
1.4830944538116455	136117677.10171828
1.4872838258743286	138472378.44486263
1.491468071937561	144121052.36852747
1.4956470727920532	153936727.8723065
1.4998208284378052	163351493.77936402
1.5039892196655273	169413494.37797025
1.5081522464752197	175599144.53438422
1.5123097896575928	181217283.30246827
1.5164618492126465	188579102.01589006
1.5206083059310913	199165176.99956402
1.5247491598129272	205950504.503557
1.5288842916488647	210867858.5807603
1.5330137014389038	214208751.9371984
1.5371372699737549	215003216.44616926
1.541254997253418	216796277.68085444
1.545366883277893	219022996.6011614
1.5494728088378906	220243393.26600322
1.5535727739334106	221618818.67330083
1.5576666593551636	221476244.9214735
1.561754584312439	218959053.19569933
1.5658363103866577	219224443.41490048
1.5699119567871094	224843976.25744402
1.5739814043045044	232256682.48381144
1.5780447721481323	237434244.88444713
1.582101821899414	240250679.9579303
1.5861525535583496	242319211.85790876
1.5901970863342285	240073396.78062367
1.5942351818084717	234494063.56960136
1.5982669591903687	233793628.84586212
1.6022924184799194	237198859.26150358
1.606311559677124	240368562.63535273
1.6103241443634033	241653768.80337
1.6143304109573364	239038518.31053546
1.6183301210403442	225378113.44294134
1.6223233938217163	195924419.8902323
1.6263102293014526	163917482.71305823
1.6302905082702637	146087740.584686
1.634264349937439	147540365.31823486
1.638231635093689	166483282.3879674
1.6421923637390137	185759398.0500366
1.646146535873413	189049317.269029
1.6500942707061768	184240575.35246366
1.6540353298187256	180658825.40998235
1.6579699516296387	184102971.56897497
1.661897897720337	180793329.38962907
1.6658192873001099	145998804.92515853
1.6697341203689575	134654144.04621786
1.6736423969268799	168321747.52201447
1.677544116973877	183363232.04291463
1.6814392805099487	174321724.4195334
1.6853278875350952	164589339.26432532
1.6892099380493164	157212310.2744439
1.6930854320526123	150064028.73288962
1.696954369544983	136808797.03101468
1.7008168697357178	117511628.95337972
1.7046726942062378	107970068.74383678
1.708522081375122	118880855.53411315
1.712364912033081	137128711.31708497
1.7162011861801147	145736746.14161444
1.7200311422348022	142432284.59866366
1.723854422569275	128391633.78196296
1.7276713848114014	111290872.1159158
1.731481909751892	103300320.04135193
1.7352858781814575	103143156.74763605
1.7390835285186768	103935851.80228372
1.7428747415542603	103769605.35368298
1.7466596364974976	100723264.48245375
1.7504380941390991	95336856.6582107
1.7542102336883545	89074673.5040482
1.7579760551452637	82946001.71172988
1.7617355585098267	77939378.18323985
1.7654887437820435	71688016.70960881
1.7692357301712036	65217619.8242745
1.7729763984680176	60406371.60823441
1.776710867881775	57028084.53665874
1.7804391384124756	54661510.78528336
1.7841613292694092	49759383.27596622
1.7878772020339966	44896702.80638787
1.7915871143341064	41654119.27202874
1.7952908277511597	40024920.465789735
1.7989884614944458	39854884.00132321
1.8026801347732544	36091316.357843824
1.806365728378296	34339346.306855015
1.8100452423095703	37823814.80606664
1.8137187957763672	39876165.56803435
1.817386507987976	37087462.32582858
1.8210482597351074	38272358.76901542
1.8247040510177612	44832206.44815339
1.828354001045227	43194725.641376145
1.8319982290267944	38767263.737551145
1.8356364965438843	37292868.71314897
1.8392690420150757	35317654.388331
1.8428958654403687	35329370.1407946
1.8465168476104736	34952089.03976702
1.8501322269439697	33896860.2214273
1.8537418842315674	32513167.84253547
1.8573459386825562	29182060.17606691
1.860944390296936	26857719.191628598
1.864537239074707	26705873.107322857
1.8681244850158691	27126313.57968256
1.871706247329712	29337896.92437109
1.8752825260162354	35039849.90476472
1.8788533210754395	42446860.84657212
1.8824186325073242	47444841.48440919
1.8859784603118896	48184864.40441868
1.8895330429077148	48152981.6832893
1.8930821418762207	51431016.25366944
1.8966259956359863	53435436.882854946
1.9001644849777222	50340060.378659174
1.9036977291107178	48176113.529818304
1.9072256088256836	49925717.532418914
1.9107483625411987	50694257.48420885
1.9142658710479736	49668381.15206563
1.9177782535552979	49272193.31786403
1.9212853908538818	46599541.86061298
1.9247875213623047	43201758.64493313
1.9282845258712769	41201139.93891391
1.9317764043807983	39539846.987040125
1.9352631568908691	38123935.838280015
1.9387450218200684	34711605.23173559
1.942221760749817	34288561.91813342
1.9456936120986938	37705643.33679384
1.9491604566574097	39886623.57437731
1.952622413635254	39141701.08337836
1.956079363822937	36181515.15859206
1.959531545639038	36005737.764979035
1.962978720664978	38466149.529458106
1.966421127319336	42267090.74559923
1.9698586463928223	44130968.21141616
1.9732913970947266	42332898.08968365
1.9767193794250488	42972281.73396187
1.9801424741744995	45407686.99636985
1.9835609197616577	48520632.49215093
1.9869745969772339	50156680.51099724
1.990383505821228	47486968.00007281
1.9937876462936401	49092712.59004914
1.9971871376037598	52527297.89947583
2.000581979751587	54442694.00052442
2.003972291946411	58434481.291307464
2.007357597351074	58534794.02966209
2.0107386112213135	58488847.48240863
2.0141148567199707	62489145.44891214
2.017486572265625	63928594.70972657
2.0208535194396973	65332670.89594455
2.0242159366607666	67107741.47005329
2.027573823928833	66177179.34202087
2.0309269428253174	67675060.68146549
2.034275770187378	70928508.71072203
2.0376198291778564	71559180.79735148
2.040959596633911	71102462.71328373
2.044294595718384	71880735.49706206
2.0476250648498535	73029530.91255425
2.0509510040283203	73290202.12561421
2.054272413253784	74185371.28421453
2.057589530944824	76950160.43023506
2.0609018802642822	78752334.06139971
2.0642096996307373	78487020.35098258
2.0675129890441895	79542306.81548153
2.0708119869232178	80640317.53859411
2.074106216430664	80282367.7594408
2.0773961544036865	80817170.13680162
2.080681324005127	81086473.42010263
2.0839622020721436	80615033.3588346
2.087238311767578	80986413.01172079
2.090510129928589	82115576.69056797
2.0937774181365967	82825036.4168918
2.0970399379730225	82758553.91323836
2.1002981662750244	82576401.3301399
2.1035518646240234	82771211.28948694
2.1068007946014404	83170780.42635955
2.1100454330444336	82984612.59695406
2.1132853031158447	82825123.92263606
2.116520881652832	82641966.10694517
2.1197516918182373	82468735.69975752
2.1229779720306396	83020689.59735034
2.12619948387146	83182437.89933074
2.1294167041778564	82483931.40705743
2.132629156112671	82127675.02288194
2.1358368396759033	82157251.30665125
2.139039993286133	81779845.27920558
2.1422386169433594	80917931.18357381
2.145432472229004	80114828.79340605
2.1486217975616455	79209340.62934722
2.151806354522705	78087300.10900882
2.1549863815307617	78098173.56906238
2.1581614017486572	78383432.62420528
2.16133189201355	77557205.65381122
2.1644976139068604	77340789.84437199
2.167658567428589	78095393.96516721
2.1708147525787354	78196646.97344665
2.173966407775879	77944293.75539503
2.1771130561828613	77927138.79885015
2.1802549362182617	78100488.91807236
2.183391809463501	78129279.21137688
2.1865241527557373	78056678.4901446
2.1896514892578125	78103681.62071607
2.1927738189697266	77485684.42538619
2.1958916187286377	71949084.18172595
2.1990041732788086	59568312.92570507
2.2021119594573975	51747243.48068984
2.2052149772644043	57242101.04880053
2.208312749862671	67892959.0854577
2.2114057540893555	73196418.9342889
2.214493751525879	71020312.32915999
2.217576742172241	63388159.12885979
2.2206547260284424	55444617.040408894
2.2237277030944824	51075108.377022795
2.2267956733703613	46049113.037135325
2.2298583984375	40800451.30971042
2.2329163551330566	40409571.30444583
2.235969066619873	43289803.35943902
2.2390167713165283	44339451.05775081
2.2420592308044434	41692110.80809383
2.2450966835021973	37852634.01465765
2.248128890991211	36580117.64355971
2.2511560916900635	37540255.322038196
2.254178285598755	37764702.95743917
2.257194995880127	39038129.05676435
2.260206699371338	41705159.59647254
2.2632133960723877	42145487.610300355
2.266214609146118	41639540.42425902
2.2692108154296875	43120739.865722224
2.2722020149230957	46104722.16950247
2.2751877307891846	48000505.69939201
2.278168201446533	49154521.70002571
2.2811436653137207	48133538.0616619
2.284113883972168	42945023.95165242
2.287078857421875	37863496.24470847
2.290038824081421	34726909.36540141
2.2929933071136475	32454643.15202345
2.295942783355713	31261128.463499505
2.298887014389038	32630877.006611187
2.301826238632202	35812951.241714284
2.304760217666626	40087323.188235484
2.3076889514923096	45612746.889376424
2.310612440109253	50955606.40008914
2.3135311603546143	49729897.141729586
2.3164443969726562	36563597.66877958
2.319352865219116	27218539.61859934
2.322256088256836	32678439.11509507
2.3251543045043945	40424739.01591349
2.328047275543213	43687606.69792342
2.330935478210449	41915996.09134641
2.3338186740875244	35108948.47548522
2.3366971015930176	28437997.780071333
2.3395702838897705	26309379.499014076
2.3424389362335205	26465522.82291444
2.3453025817871094	25176636.387541063
2.348161458969116	24795921.616084836
2.351015567779541	26756588.426510688
2.353865146636963	30456377.908334047
2.3567099571228027	36338087.355877265
2.3595502376556396	42305609.70830168
2.3623859882354736	45787290.9377515
2.3652172088623047	44671336.03631465
2.368043899536133	35432106.19360739
2.370866537094116	23211595.138876922
2.3736846446990967	20259999.53451378
2.3764986991882324	26516449.455155365
2.3793084621429443	34879849.48927059
2.3821144104003906	38887763.861977056
2.384916305541992	37841740.28538361
2.387714147567749	38578855.6008765
2.3905084133148193	40977793.554635726
2.393299102783203	38857668.80613963
2.3960859775543213	32050931.34361575
2.398869514465332	27096102.558286533
2.4016497135162354	26768757.11497281
2.4044265747070312	27824173.03473161
2.407200336456299	28866310.79353849
2.409970998764038	30316476.34417789
2.4127390384674072	31853273.52785517
2.415503978729248	30755247.79778676
2.418266534805298	27955762.58859348
2.4210267066955566	27283916.0931152
2.4237842559814453	26437719.225620225
2.426539897918701	25194658.508140627
2.429293394088745	28320821.368854836
2.4320452213287354	32633855.155844547
2.4347951412200928	30492880.843414694
2.4375438690185547	29172597.613346063
2.440291166305542	32348914.7674771
2.443037271499634	31500024.855088994
2.445782423019409	28658851.552060414
2.4485268592834473	29295900.223103933
2.451270818710327	29281563.484977886
2.454014539718628	27585423.679395158
2.4567582607269287	28386691.97556203
2.4595019817352295	28808825.958336536
2.4622461795806885	30491883.98395027
2.4649908542633057	31757986.843634497
2.4677364826202393	27340480.571541052
2.4704833030700684	24560635.645427916
2.473231554031372	24551965.063974477
2.4759814739227295	24619140.12664614
2.4787333011627197	25394842.020479664
2.481487512588501	26370549.594261687
2.4842441082000732	29991528.168037195
