#wavelength	surface flux
0.6450077295303345	51016.37789439918
0.6472567915916443	78442.14143191883
0.6494921445846558	98379.3939760694
0.6517150402069092	107533.195869147
0.6539263725280762	115949.37983653288
0.6561272740364075	124464.20133497316
0.6583186388015747	133482.63678324068
0.6605015397071838	143482.72691780172
0.6626768708229065	153887.52359782552
0.6648455858230591	164045.93749560195
0.6670085787773132	168905.9081851695
0.6691668033599854	155748.4990818738
0.6713210344314575	146382.44808197021
0.6734722256660461	176876.20117420686
0.6756211519241333	216883.08001795344
0.6777685880661011	237883.319865393
0.6799154281616211	252899.68622688565
0.6820623278617859	267488.43611697055
0.6842101216316223	282072.47594343976
0.6863595843315125	295973.87731598667
0.688511312007904	306496.34512076486
0.6906660795211792	306339.5413794206
0.6928245425224304	302293.5284584733
0.6949873566627502	319089.55440399377
0.6971551775932312	350229.5002970664
0.6993286609649658	369629.32065927016
0.7015084028244019	379218.29141669685
0.7036949396133423	390547.45471631095
0.7058889269828796	405069.64611274825
0.7080909013748169	420094.6323492977
0.710301399230957	433408.8038660298
0.712520956993103	440748.8590257423
0.7147500514984131	420217.23416011094
0.7169892191886902	371580.0193904857
0.7192389369010925	359398.8080807816
0.7214996814727783	390558.20746741263
0.723771870136261	403479.4261373458
0.7260559797286987	400087.51832463907
0.7283523678779602	399193.82542513777
0.7306615710258484	396457.6193953364
0.7329838871955872	409052.07747518335
0.7353196740150452	427230.0101631213
0.7376693487167358	431892.0544385954
0.7400332689285278	435660.7223801943
0.7424117922782898	439952.8881013959
0.7448052167892456	438840.64060179563
0.7472138404846191	430965.3904324527
0.7496379613876343	415561.25149491325
0.7520779371261597	391372.67205534043
0.7545340061187744	357187.6663998155
0.7570064663887024	311682.28736906615
0.7594954967498779	254689.61241162525
0.7620013952255249	187786.96715314267
0.7645244002342224	117245.04353727086
0.7670646905899048	66855.63888061268
0.7696225643157959	56077.95806094401
0.7721980810165405	69063.64204500166
0.7747915983200073	66084.78264089419
0.7774031162261963	34757.980876608235
0.7800329327583313	10625.533112762396
0.7826811671257019	25076.655653601047
0.7853479981422424	83277.81417788751
0.7880334854125977	139979.62297974873
0.7907378077507019	122914.3867635096
0.7934610247612	55809.061202831224
0.7962033748626709	49888.519516096465
0.7989648580551147	188945.20799385858
0.801745593547821	455585.2247218497
0.8045456409454346	732702.4545312542
0.8073651194572449	905877.06791096
0.8102040886878967	937151.336020143
0.8130625486373901	909469.6976050794
0.8159406185150146	999648.2447799754
0.8188382983207703	1210540.3056576631
0.8217556476593018	1347888.4092053873
0.8246926665306091	1481934.307684662
0.8276493549346924	1666943.695962559
0.8306257724761963	1768942.0381279965
0.8336219191551208	1865555.3976948923
0.8366377949714661	2020281.614406139
0.8396733403205872	2215525.8564873016
0.8427285552024841	2418252.7976888525
0.8458034992218018	2446167.2789078113
0.8488980531692505	1959242.886545028
0.8520121574401855	1356583.0725920282
0.8551458716392517	1847549.5861743956
0.8582990765571594	3066140.4587308043
0.8614717125892639	3785553.372433596
0.8646637797355652	4138308.2771154335
0.8678751587867737	4531034.707044349
0.8711057901382446	4900041.695762466
0.8743556141853333	5196078.259502556
0.87762451171875	5460754.0812527165
0.8809124231338501	5723522.271785854
0.8842192888259888	5899729.6353873685
0.8875449895858765	5544088.198636893
0.8908893465995789	4013958.9225287507
0.894252359867096	2179516.7403676156
0.8976338505744934	2094380.4263375876
0.9010337591171265	3641086.3122245143
0.9044519662857056	5053461.415839008
0.9078882932662964	5312993.464046691
0.9113426208496094	4863506.530528027
0.914814829826355	4448881.426263146
0.9183048605918884	4372814.54666054
0.9218124747276306	4382487.086743773
0.925337553024292	3230027.9117227294
0.9288799166679382	1274367.7040705357
0.9324395060539246	255506.50053410695
0.9360161423683167	326050.6520762549
0.9396095871925354	720338.1290817454
0.943219780921936	807959.6657169857
0.9468464851379395	551522.1834390906
0.9504896402359009	420216.5584813552
0.9541489481925964	409711.2406310519
0.9578243494033813	384730.9288832105
0.9615156054496765	454041.56974477664
0.9652225375175476	827764.7412458748
0.9689450263977051	1423374.845649675
0.9726828336715698	1813924.0554337383
0.9764357805252075	2064042.6945636712
0.9802037477493286	2485426.4281482506
0.983986496925354	3143209.0213819593
0.9877838492393494	4081605.605669278
0.9915955662727356	5174221.141537227
0.9954215884208679	6373876.20741405
0.9992615580558777	7651778.758276517
1.0031154155731201	8790991.265123013
1.0069829225540161	9735243.798252724
1.0108637809753418	10547219.379761918
1.0147579908370972	11217476.251490148
1.018665075302124	11728612.213001652
1.022585153579712	12235574.947682587
1.0265177488327026	12697173.415657112
1.0304628610610962	13020506.187775021
1.0344202518463135	13633983.340360155
1.0383895635604858	14303324.611084532
1.0423706769943237	14428869.648499392
1.0463634729385376	14305140.206197213
1.0503677129745483	14300607.3958573
1.0543830394744873	14396865.39400247
1.058409333229065	14380100.020393046
1.0624464750289917	14133361.44123922
1.0664942264556885	13729492.077394806
1.0705522298812866	13313214.6802279
1.0746204853057861	13024853.684491694
1.0786986351013184	12709512.104095154
1.0827864408493042	12050610.796219522
1.086883783340454	10617128.14639371
1.0909905433654785	8272909.028213115
1.0951062440872192	5566182.807830498
1.0992310047149658	3156182.6882475917
1.10336434841156	1457596.0273631322
1.1075061559677124	581049.3445928132
1.1116561889648438	228545.92158646707
1.115814208984375	90805.61564132117
1.1199802160263062	88356.29859339994
1.124153733253479	163652.09433776033
1.1283347606658936	222518.76754245718
1.1325229406356812	223690.86808873148
1.1367181539535522	322955.65602219146
1.1409201622009277	438233.26154001255
1.145128846168518	378962.05444895796
1.1493438482284546	298923.3503367593
1.1535650491714478	252037.56969913538
1.1577922105789185	226404.1436671437
1.1620250940322876	286542.2102333385
1.1662636995315552	387698.46362091415
1.170507550239563	613726.1907264827
1.174756646156311	1012123.8640444143
1.1790107488632202	1578681.0131038688
1.1832695007324219	2461340.1488803485
1.1875330209732056	3620233.6963552227
1.191800832748413	5088667.046565964
1.1960728168487549	7039302.889322742
1.2003488540649414	8818047.051003255
1.2046287059783936	9502057.680522168
1.2089121341705322	9815193.187199632
1.2131990194320679	10697949.38206641
1.2174891233444214	11806891.11105883
1.2217823266983032	12944753.259343076
1.2260783910751343	14387489.505849155
1.230377197265625	15903378.125037262
1.2346785068511963	16952761.920208905
1.238982081413269	17895487.9749814
1.2432878017425537	19190075.43664822
1.2475954294204712	20042310.351040505
1.2519049644470215	20291146.497847483
1.256216049194336	21283639.996100552
1.2605286836624146	22758897.00874324
1.2648425102233887	23582379.51942858
1.2691574096679688	23679255.85773376
1.2734732627868652	23075860.07082819
1.2777899503707886	22085500.982360557
1.2821072340011597	20478586.48127756
1.2864248752593994	18180864.312269267
1.2907428741455078	15798375.97988128
1.2950609922409058	13606021.594695339
1.2993791103363037	12192075.528072009
1.303696870803833	11806882.503174877
1.3080145120620728	11639117.02809974
1.3123314380645752	10789468.209282814
1.3166478872299194	9513549.78544885
1.3209635019302368	7612255.326924092
1.3252781629562378	5038353.996757407
1.3295916318893433	2659421.4072788334
1.3339040279388428	939888.5452363079
1.3382149934768677	185629.25990769095
1.3425244092941284	32322.525204593006
1.3468321561813354	6007.787961774301
1.3511382341384888	3115.1190893021508
1.3554422855377197	1365.1169593798738
1.3597444295883179	595.9996101462435
1.3640443086624146	722.0951534288162
1.3683418035507202	1009.1973273338627
1.3726370334625244	2815.970299976324
1.3769296407699585	6694.856871859698
1.381219506263733	7172.321804879882
1.3855066299438477	3724.9573333142416
1.3897908926010132	2237.8920961479207
1.3940720558166504	2707.209570864848
1.3983501195907593	3599.1173881923214
1.4026249647140503	5009.705711513048
1.4068963527679443	5603.360310649623
1.4111642837524414	5667.341859979452
1.4154287576675415	5913.743809269884
1.419689416885376	5101.783804995829
1.4239463806152344	9582.211983962898
1.4281994104385376	27517.02807688517
1.4324485063552856	35732.840301006574
1.436693549156189	24414.982518746037
1.440934419631958	24116.405403953995
1.4451709985733032	42859.284596898055
1.449403166770935	71661.72334070102
1.453631043434143	114284.29886443361
1.4578542709350586	180753.22722070938
1.4620729684829712	209572.5250617641
1.4662868976593018	168550.6632267327
1.4704961776733398	138560.26110566157
1.4747005701065063	172173.9811839595
1.4788999557495117	218988.0608140508
1.4830944538116455	239076.80740534308
1.4872838258743286	297083.67381503223
1.491468071937561	430306.7789195033
1.4956470727920532	573470.1796878165
1.4998208284378052	735015.0069719978
1.5039892196655273	962166.4528111897
1.5081522464752197	1262504.4333164128
1.5123097896575928	1604981.6787400665
1.5164618492126465	1989808.856730291
1.5206083059310913	2628781.765869813
1.5247491598129272	3386984.8322102763
1.5288842916488647	4062748.576081035
1.5330137014389038	5051427.331575817
1.5371372699737549	6082351.780303667
1.541254997253418	6826394.384109513
1.545366883277893	7608486.202604684
1.5494728088378906	8399368.801859573
1.5535727739334106	9356147.764884926
1.5576666593551636	10303243.22720503
1.561754584312439	11086933.65572723
1.5658363103866577	11765252.39484569
1.5699119567871094	12573592.594584482
1.5739814043045044	13752261.097419683
1.5780447721481323	14598139.953632157
1.582101821899414	14801480.988202138
1.5861525535583496	14829016.316323858
1.5901970863342285	14865921.852430793
1.5942351818084717	15041406.4970985
1.5982669591903687	15660391.311251678
1.6022924184799194	16140371.8182101
1.606311559677124	15836826.437314311
1.6103241443634033	14871969.340881627
1.6143304109573364	12227529.867066296
1.6183301210403442	7038183.795828872
1.6223233938217163	2476578.748778714
1.6263102293014526	849829.8007884037
1.6302905082702637	492844.4118777425
1.634264349937439	387138.9832579704
1.638231635093689	1085818.4503308577
1.6421923637390137	2431985.4362395867
1.646146535873413	2559172.9821856376
1.6500942707061768	2149612.060382525
1.6540353298187256	2537960.533939339
1.6579699516296387	2875058.293434299
1.661897897720337	2701798.2972716074
1.6658192873001099	1688628.4553040722
1.6697341203689575	697091.7387344668
1.6736423969268799	1043327.7569100349
1.677544116973877	1834266.118867239
1.6814392805099487	1457889.5481739955
1.6853278875350952	524254.10622027394
1.6892099380493164	160055.26010426658
1.6930854320526123	151199.82820636805
1.696954369544983	119342.40177410144
1.7008168697357178	45645.46207608817
1.7046726942062378	11655.607253427885
1.708522081375122	52606.963772324525
1.712364912033081	264899.7114481942
1.7162011861801147	487819.1766513114
1.7200311422348022	350184.6028781168
1.723854422569275	92355.96449184592
1.7276713848114014	18764.86746803663
1.731481909751892	19387.053393593535
1.7352858781814575	35444.28199989297
1.7390835285186768	65595.21667817689
1.7428747415542603	109639.50763888618
1.7466596364974976	164303.0448360805
1.7504380941390991	223214.23776519083
1.7542102336883545	259749.005285127
1.7579760551452637	243916.10373385387
1.7617355585098267	168328.57719792885
1.7654887437820435	89942.6602891636
1.7692357301712036	53337.106838612985
1.7729763984680176	33991.873966616855
1.776710867881775	43572.92862013777
1.7804391384124756	79460.72478236168
1.7841613292694092	73966.85621633248
1.7878772020339966	38805.852372746245
1.7915871143341064	25729.408416951846
1.7952908277511597	53680.61099446327
1.7989884614944458	91184.72157072493
1.8026801347732544	62947.52736237844
1.806365728378296	22244.906884242464
1.8100452423095703	17944.092211225092
1.8137187957763672	16633.624217208137
1.817386507987976	32438.63755136481
1.8210482597351074	127647.019261206
1.8247040510177612	215686.35334022297
1.828354001045227	138996.88590855643
1.8319982290267944	38674.523761133714
1.8356364965438843	21253.11404742046
1.8392690420150757	23370.683263784293
1.8428958654403687	42573.73781334835
1.8465168476104736	55208.17495762949
1.8501322269439697	56546.09058635252
1.8537418842315674	54111.33437123633
1.8573459386825562	39254.77135572626
1.860944390296936	24845.599957651233
1.864537239074707	16272.239167594098
1.8681244850158691	10612.283324361086
1.871706247329712	13582.878450368948
1.8752825260162354	35244.079477453495
1.8788533210754395	84417.88383086758
1.8824186325073242	127686.04202374512
1.8859784603118896	119865.00569467027
1.8895330429077148	98574.08840559145
1.8930821418762207	137293.67450033667
1.8966259956359863	184221.0199815388
1.9001644849777222	170206.12234863394
1.9036977291107178	171168.72659417396
1.9072256088256836	205700.36700459445
1.9107483625411987	155667.15431689596
1.9142658710479736	102910.98156906513
1.9177782535552979	166983.33391025185
1.9212853908538818	174476.1914599817
1.9247875213623047	98451.33978051732
1.9282845258712769	58805.391907681646
1.9317764043807983	52947.82921844619
1.9352631568908691	73257.43165022784
1.9387450218200684	82342.1719171888
1.942221760749817	68705.19402540062
1.9456936120986938	62904.23968649688
1.9491604566574097	76575.82098529104
1.952622413635254	90524.11400643458
1.956079363822937	84875.8010622429
1.959531545639038	84909.27821643416
1.962978720664978	114010.50088286982
1.966421127319336	197378.3463746883
1.9698586463928223	249430.73071415385
1.9732913970947266	229725.75666699142
1.9767193794250488	256987.38969424932
1.9801424741744995	331236.8948454771
1.9835609197616577	451785.64852039074
1.9869745969772339	488640.66946668003
1.990383505821228	403034.3733741246
1.9937876462936401	471737.2018034288
1.9971871376037598	571385.8474194533
2.000581979751587	604000.2247723493
2.003972291946411	697710.471485723
2.007357597351074	834351.3305940382
2.0107386112213135	1054023.7305833634
2.0141148567199707	1112284.32208685
2.017486572265625	973519.9081260427
2.0208535194396973	1019223.0618646905
2.0242159366607666	1195471.6059569574
2.027573823928833	1201601.5341551085
2.0309269428253174	1171368.8626287251
2.034275770187378	1329574.747850554
2.0376198291778564	1437543.8209464608
2.040959596633911	1373696.9756844598
2.044294595718384	1384308.1742030187
2.0476250648498535	1453424.19782057
2.0509510040283203	1410985.8933862033
2.054272413253784	1397747.211070375
2.057589530944824	1500608.7692072494
2.0609018802642822	1556728.4336019775
2.0642096996307373	1538423.983738767
2.0675129890441895	1526601.2788532309
2.0708119869232178	1539546.1284627083
2.074106216430664	1572519.7666893415
2.0773961544036865	1576316.2967215755
2.080681324005127	1532080.193483798
2.0839622020721436	1517263.2017971056
2.087238311767578	1548148.5638604967
2.090510129928589	1568749.197266483
2.0937774181365967	1582101.64510692
2.0970399379730225	1579065.5336009397
2.1002981662750244	1551649.1340910778
2.1035518646240234	1535493.9643991748
2.1068007946014404	1546116.1118711296
2.1100454330444336	1556740.6285136621
2.1132853031158447	1549443.6619487868
2.116520881652832	1524702.7093873902
2.1197516918182373	1506294.7417347129
2.1229779720306396	1524922.6376323758
2.12619948387146	1542622.0539911105
2.1294167041778564	1532269.7178701125
2.132629156112671	1525789.9873783481
2.1358368396759033	1532761.1584977193
2.139039993286133	1478410.0103244323
2.1422386169433594	1299807.6059706493
2.145432472229004	1109369.5666538416
2.1486217975616455	939976.9928189538
2.151806354522705	825368.5096413291
2.1549863815307617	831385.6521547311
2.1581614017486572	903511.862932688
2.16133189201355	935410.0730590323
2.1644976139068604	897123.0337536524
2.167658567428589	907588.144321843
2.1708147525787354	997398.4714958646
2.173966407775879	1079312.3154719912
2.1771130561828613	1094685.2166648326
2.1802549362182617	1096264.764006426
2.183391809463501	1113912.1772718597
2.1865241527557373	1191996.41236103
2.1896514892578125	1291612.690014346
2.1927738189697266	1278901.9573290667
2.1958916187286377	958889.6849928717
2.1990041732788086	409255.25819725776
2.2021119594573975	103181.66204445259
2.2052149772644043	209039.14358734578
2.208312749862671	548485.5986107367
2.2114057540893555	785798.777312051
2.214493751525879	664734.5964528108
2.217576742172241	360700.1976450388
2.2206547260284424	161513.0375449392
2.2237277030944824	75024.54597246833
2.2267956733703613	37827.901592816306
2.2298583984375	32307.350790139033
2.2329163551330566	28507.843938405487
2.235969066619873	28914.52472361224
2.2390167713165283	30294.084049302142
2.2420592308044434	25503.300194189276
2.2450966835021973	20820.072418874508
2.248128890991211	16689.20117240864
2.2511560916900635	12237.993815563152
2.254178285598755	14467.13703522813
2.257194995880127	34759.930335925106
2.260206699371338	55908.0713003284
2.2632133960723877	57580.274148079036
2.266214609146118	52582.73983505542
2.2692108154296875	71644.66460941402
2.2722020149230957	111609.96272131556
2.2751877307891846	115652.7145644743
2.278168201446533	97197.18832913076
2.2811436653137207	81471.40239933242
2.284113883972168	49219.5954913238
2.287078857421875	22439.202474192567
2.290038824081421	13066.950096083187
2.2929933071136475	9162.572809452558
2.295942783355713	6811.699414874044
2.298887014389038	6974.276331999156
2.301826238632202	9354.56538550543
2.304760217666626	19784.469441178207
2.3076889514923096	107652.42258159247
2.310612440109253	376360.42583945766
2.3135311603546143	579844.8311521688
2.3164443969726562	379393.7950350139
2.319352865219116	87927.32727703043
2.322256088256836	19846.46338071542
2.3251543045043945	54186.413596150174
2.328047275543213	82902.68054039613
2.330935478210449	62512.220353351266
2.3338186740875244	26666.822567267576
2.3366971015930176	10689.91899041663
2.3395702838897705	7206.7227478813575
2.3424389362335205	8840.693913703217
2.3453025817871094	8109.7527235842335
2.348161458969116	7893.941373538872
2.351015567779541	10845.578530371722
2.353865146636963	15019.916680746263
2.3567099571228027	31179.830731510126
2.3595502376556396	61373.59709951025
2.3623859882354736	76879.36153266362
2.3652172088623047	61985.3770403384
2.368043899536133	33188.44609729926
2.370866537094116	10927.845506270576
2.3736846446990967	5529.081942030436
2.3764986991882324	18422.545825357018
2.3793084621429443	48177.87824906093
2.3821144104003906	77103.78449327248
2.384916305541992	86375.34880403194
2.387714147567749	84062.3177740564
2.3905084133148193	91662.37270759256
2.393299102783203	81806.63024216256
2.3960859775543213	38833.95578319868
2.398869514465332	10351.64178232442
2.4016497135162354	6099.328973159124
2.4044265747070312	8890.301099012742
2.407200336456299	13742.820131403263
2.409970998764038	18135.872567289483
2.4127390384674072	22825.907664427818
2.415503978729248	21510.49027270633
2.418266534805298	13621.78400184862
2.4210267066955566	9340.77080469333
2.4237842559814453	7374.956431252208
2.426539897918701	8152.002559456309
2.429293394088745	26663.726294876047
2.4320452213287354	46586.711403411966
2.4347951412200928	35192.16972464107
2.4375438690185547	24137.919468521523
2.440291166305542	30881.153421395877
2.443037271499634	29470.54210195567
2.445782423019409	24259.830254743614
2.4485268592834473	24198.32885880929
2.451270818710327	24586.14147973452
2.454014539718628	22899.970987349097
2.4567582607269287	24555.57938478468
2.4595019817352295	36252.03752889219
2.4622461795806885	53323.4587575529
2.4649908542633057	66121.06788510102
2.4677364826202393	61893.91599707486
2.4704833030700684	51104.30063124291
2.473231554031372	58390.391243260434
2.4759814739227295	74594.89026554888
2.4787333011627197	71505.14934847764
