#wavelength	surface flux
0.8	3701613.2408426264
0.8002000000000001	3755912.503911845
0.8004000500000003	3834594.4492510958
0.8006001500125003	3891870.8600490536
0.8008003000500035	3941310.8332053437
0.8010005001250161	3954716.728724071
0.8012007502500472	4002357.6974898474
0.8014010504376099	4054185.021192685
0.8016014007002193	4110695.9661654923
0.8018018010503944	4162647.453946687
0.8020022515006572	4233536.2372626765
0.8022027520635323	4289491.551581684
0.8024033027515483	4357799.384608084
0.8026039035772362	4411968.082736279
0.8028045545531306	4460712.449936203
0.8030052556917691	4526430.381907733
0.803206007005692	4595899.58768541
0.8034068085074435	4643970.318695322
0.8036076602095705	4722454.452177299
0.8038085621246229	4790445.042513939
0.8040095142651542	4861673.636671254
0.8042105166437206	4883909.31859462
0.8044115692728815	4977669.174388236
0.8046126721651998	5015030.303678352
0.8048138253332411	5050786.5426152805
0.8050150287895745	5127875.719083329
0.805216282546772	5193598.858556262
0.8054175866174087	5244187.775943567
0.8056189410140631	5327770.450834342
0.8058203457493168	5397607.904757754
0.8060218008357541	5470733.446006959
0.8062233062859632	5522228.948434939
0.8064248621125346	5584759.830866255
0.806626468328063	5663318.141379805
0.8068281249451449	5693917.94927231
0.8070298319763813	5755979.852531598
0.8072315894343755	5801034.978901927
0.8074333973317341	5866434.739479548
0.8076352556810671	5975841.307730195
0.8078371644949874	6035461.008610002
0.8080391237861113	6107347.834932678
0.8082411335670578	6140280.2019724455
0.8084431938504498	6204689.494248503
0.8086453046489125	6270862.584201165
0.8088474659750746	6343949.259300346
0.8090496778415686	6409660.287851302
0.809251940261029	6424291.001392762
0.8094542532460944	6504830.635430071
0.8096566168094059	6507822.443702589
0.8098590309636085	6670013.734142317
0.8100614957213493	6684526.611450642
0.8102640110952797	6753668.918742796
0.8104665770980536	6822655.392144569
0.8106691937423283	6923821.293242111
0.8108718610407639	6913883.947919096
0.8110745790060241	6951428.924506326
0.8112773476507757	7098715.534602708
0.8114801669876885	7165125.198943851
0.8116830370294355	7245656.593967049
0.8118859577886929	7402297.4269146
0.8120889292781401	7429765.6365899835
0.8122919515104597	7283986.459369988
0.8124950244983374	7511934.981453696
0.8126981482544621	7746145.353325836
0.8129013227915257	7815831.221700928
0.8131045481222237	7824639.535292732
0.8133078242592543	7654932.0513692675
0.8135111512153191	7961250.081227078
0.813714529003123	8040409.2765653115
0.8139179576353739	8138948.12857373
0.8141214371247829	8225336.426999888
0.8143249674840641	8207498.033509522
0.814528548725935	8330075.362463233
0.8147321808631167	8420137.744231647
0.8149358639083326	8439642.99481777
0.8151395978743097	8409771.825636813
0.8153433827737784	8654927.225737322
0.8155472186194719	8661698.55619781
0.8157511054241268	8697698.883671654
0.815955043200483	8811602.080083668
0.8161590319612831	8870619.17649178
0.8163630717192736	8458783.251214009
0.8165671624872033	8957336.17064173
0.8167713042778252	9074200.407450672
0.8169754971038948	9164269.334140567
0.8171797409781707	8695451.824618254
0.8173840359134155	8915761.08974936
0.8175883819223938	9319469.837202355
0.8177927790178745	9353219.327328963
0.8179972272126291	9322086.209869204
0.8182017265194322	9497219.622703915
0.8184062769510622	8870154.214366976
0.8186108785203001	8335775.912075261
0.8188155312399301	9609327.041524805
0.8190202351227402	9760115.90438771
0.819224990181521	9738110.699225262
0.8194297964290664	9701470.544432368
0.8196346538781738	7769336.685952202
0.8198395625416434	8751046.352904273
0.8200445224322789	10016159.727843253
0.820249533562887	10162241.31595827
0.8204545959462778	10324701.330906672
0.8206597095952644	10385534.248318294
0.8208648745226633	10476508.772085022
0.8210700907412941	10507709.386372799
0.8212753582639793	10648504.124620145
0.8214806771035456	10747266.212810446
0.8216860472728215	10850661.490303827
0.8218914687846397	10890236.822327238
0.822096941651836	10991804.520164609
0.822302465887249	10967804.899830678
0.8225080415037209	11106343.45365026
0.8227136685140968	11115066.218903758
0.8229193469312254	10859302.534647405
0.8231250767679583	11087036.15289582
0.8233308580371503	11267820.426435312
0.8235366907516598	11455542.04604929
0.8237425749243477	11324873.759778589
0.8239485105680789	11501562.6912675
0.824154497695721	11747941.585678648
0.824360536320145	11635728.093091602
0.8245666264542252	11585301.44286551
0.8247727681108388	11615403.485701839
0.8249789613028664	12039686.340931773
0.8251852060431922	12031785.98603145
0.825391502344703	12186581.324470283
0.8255978502202894	12274737.379663873
0.8258042496828445	12255405.948397215
0.8260107007452654	12411783.022944061
0.8262172034204517	12223656.22624403
0.8264237577213068	12311809.471007658
0.8266303636607373	12425096.172843141
0.8268370212516525	12674539.707118513
0.8270437305069654	12764716.533570193
0.8272504914395923	12806730.866748609
0.8274573040624523	12805948.1340938
0.8276641683884679	12954797.27984765
0.8278710844305652	12927321.171014657
0.8280780522016729	13115995.27440587
0.8282850717147234	13008575.611459441
0.8284921429826521	13205004.628000751
0.8286992660183978	13336498.970959835
0.8289064408349024	13351570.470905196
0.8291136674451112	13455071.77289534
0.8293209458619727	13537918.454639226
0.8295282760984382	13453857.0720032
0.829735658167463	13448185.492395613
0.8299430920820048	13645869.787025485
0.8301505778550254	13753125.169551685
0.8303581154994891	13932693.01344615
0.8305657050283641	13930045.738320462
0.8307733464546212	13881602.570808962
0.8309810397912352	14051964.704638474
0.8311887850511829	14085489.957660343
0.8313965822474458	13909027.653961046
0.8316044313930077	14219397.500213018
0.8318123325008561	14391492.522551352
0.8320202855839813	14447726.843838494
0.8322282906553774	14588771.962219499
0.8324363477280413	14642129.282859579
0.8326444568149735	14711970.775021907
0.8328526179291771	14609131.423164772
0.8330608310836596	14807667.635473887
0.8332690962914304	14839887.184352577
0.8334774135655034	14777771.444358727
0.833685782918895	14849580.21078812
0.8338942043646247	15139311.404783452
0.834102677915716	15081256.85271731
0.834311203585195	15241700.85423823
0.8345197813860912	15333391.40680554
0.8347284113314379	15444696.1468482
0.8349370934342709	15383493.603464304
0.8351458277076294	15450433.273537504
0.8353546141645565	15615830.779822724
0.8355634528180977	15503368.320108192
0.8357723436813022	15553039.615088789
0.8359812867672226	14954974.607082933
0.8361902820889144	15885129.311757054
0.8363993296594368	15084750.42836635
0.8366084294918518	15894358.507235952
0.8368175815992247	15841658.335356915
0.8370267859946247	15722455.516458595
0.8372360426911234	15957651.387645682
0.8374453517017962	16261586.01819841
0.8376547130397217	16153285.143838037
0.8378641267179816	16182655.160941668
0.8380735927496613	16478170.280401815
0.8382831111478488	16545364.309333978
0.8384926819256358	16574374.763592666
0.8387023050961173	16599594.098521035
0.8389119806723914	16635391.15123621
0.8391217086675596	16960267.95678161
0.8393314890947265	17073155.639112726
0.8395413219670003	16830810.18965672
0.8397512072974922	17079453.750207856
0.8399611450993165	17095064.329700794
0.8401711353855914	17288261.8248085
0.8403811781694378	17448773.112406243
0.8405912734639802	17207595.63384486
0.8408014212823464	17355491.471419547
0.8410116216376671	17512008.570374396
0.8412218745430766	17274777.02944145
0.8414321800117124	17801790.7828175
0.8416425380567154	17783492.7131621
0.8418529486912297	17741493.54561318
0.8420634119284025	17692997.68036622
0.8422739277813847	18078379.743043188
0.8424844962633302	18165029.183959387
0.842695117387396	18310413.00366983
0.8429057911667428	18355398.571664974
0.8431165176145345	18230900.473170277
0.8433272967439382	18381296.01418909
0.8435381285681244	18552689.628120724
0.8437490131002665	18473049.25112551
0.8439599503535415	18708834.92945291
0.84417094034113	18696999.15430707
0.8443819830762154	18698130.985849146
0.8445930785719846	18752099.291996863
0.8448042268416277	19056700.546448622
0.8450154278983382	18999891.171505976
0.8452266817553128	19060654.774703234
0.8454379884257517	19168493.19140308
0.8456493479228583	19081830.44448102
0.845860760259839	19412727.386509683
0.846072225449904	19512357.710328702
0.8462837435062666	19331593.74962669
0.8464953144421433	18989061.363844186
0.8467069382707537	19410576.588183068
0.8469186150053215	19674601.83554878
0.847130344659073	19649478.43488759
0.8473421272452377	19763645.579177894
0.8475539627770492	19697867.864289925
0.8477658512677435	19870107.527150895
0.8479777927305605	20050277.74139718
0.8481897871787432	20124226.8395457
0.848401834625538	20174473.839991324
0.8486139350841944	20178419.131622408
0.8488260885679657	20211806.302781027
0.8490382950901076	20310260.94500347
0.8492505546638802	20421195.194256075
0.8494628673025462	20381117.619382415
0.8496752330193721	20395852.207833614
0.8498876518276269	20189128.299582202
0.8501001237405839	20420992.69964017
0.8503126487715191	20578569.176852267
0.850525226933712	20669116.761063736
0.8507378582404455	20656066.86440792
0.8509505427050057	20574933.53132925
0.8511632803406821	20460765.671280496
0.8513760711607672	20317671.02340197
0.8515889151785576	19826814.150223583
0.8518018124073523	18530161.529359523
0.8520147628604541	14467237.885164553
0.8522277665511693	4434063.8587949565
0.8524408234928071	3630504.396633136
0.8526539336986805	13720937.128038798
0.8528670971821053	18594462.35518792
0.8530803139564007	19974740.775885943
0.8532935840348901	20616768.636813946
0.8535069074308987	21133839.988456007
0.8537202841577566	21419536.178613883
0.8539337142287962	21663410.937025793
0.8541471976573534	21678462.81746285
0.8543607344567677	21989200.723364227
0.8545743246403821	22147222.426262602
0.8547879682215422	22269210.018549655
0.8550016652135977	22363907.938125506
0.8552154156299011	22486766.402721744
0.8554292194838088	22594686.920996957
0.8556430767886797	22593804.6028437
0.855856987557877	22788189.21936807
0.8560709518047664	22906170.760234926
0.8562849695427177	23007977.73942721
0.8564990407851035	23006775.469655022
0.8567131655452999	22509132.815689895
0.8569273438366862	23184104.336024918
0.8571415756726455	23337011.471937373
0.8573558610665638	23370007.473037075
0.8575702000318304	23498075.22580222
0.8577845925818384	23588551.900319334
0.857999038729984	23646766.14981339
0.8582135384896665	23537321.09839553
0.858428091874289	23419596.218662653
0.8586426988972576	23558495.34842248
0.8588573595719821	23620543.845037505
0.8590720739118751	23775894.933412887
0.8592868419303532	23875514.4848257
0.8595016636408359	23976348.76655059
0.8597165390567462	23859647.974986766
0.8599314681915105	23822415.236759264
0.8601464510585584	23931784.632314585
0.860361487671323	24051016.32957469
0.8605765780432408	24223546.727004208
0.8607917221877518	24324569.683071643
0.8610069201182988	24389786.470698703
0.8612221718483286	23720278.039532233
0.8614374773912907	19547051.37859034
0.8616528367606385	21498129.99716318
0.8618682499698288	19704162.02562264
0.8620837170323213	19039996.33094816
0.8622992379615795	21334796.295282558
0.8625148127710699	20166344.877822023
0.8627304414742627	18347244.914525915
0.8629461240846313	22938313.723401625
0.8631618606156526	19032898.408038832
0.8633776510808066	18860680.96399031
0.8635934954935769	18905646.990212806
0.8638093938674504	20399361.966299288
0.8640253462159173	21138870.151971236
0.8642413525524714	21027488.20333448
0.8644574128906095	23119324.90595358
0.8646735272438323	22368716.194208197
0.8648896956256433	20351643.64623953
0.8651059180495498	23936050.609756496
0.8653221945290621	20906195.76368152
0.8655385250776946	24740416.02977866
0.8657549097089641	23703349.967508297
0.8659713484363913	23308890.104918566
0.8661878412735006	22228916.04037458
0.866404388233819	24105942.039443683
0.8666209893308775	22367295.475644965
0.8668376445782103	25375053.421950262
0.8670543539893549	23923073.533754107
0.8672711175778525	24430834.51360984
0.8674879353572469	23233714.78468653
0.8677048073410862	24432148.52821514
0.8679217335429217	25251605.102221042
0.8681387139763074	25231493.3702638
0.8683557486548015	23561589.38883643
0.8685728375919655	22466303.16675687
0.8687899808013633	25304134.839414075
0.8690071782965637	25599192.840293095
0.869224430091138	26399260.101062413
0.8694417361986609	25833329.380307134
0.8696590966327107	22722322.701529134
0.869876511406869	23962887.87897127
0.8700939805347206	24168825.49663788
0.8703115040298544	25176761.91780854
0.870529081905862	23826419.32177467
0.8707467141763385	25593158.672420528
0.8709644008548827	25208092.169228785
0.8711821419550964	23967241.68533193
0.8713999374905854	23582848.23744093
0.871617787474958	26121204.40976257
0.8718356919218269	25664283.347743396
0.8720536508448075	23552827.510564946
0.8722716642575187	25048792.01140627
0.8724897321735832	24307033.34315814
0.8727078546066265	27070606.0885168
0.8729260315702784	25644366.505080555
0.873144263078171	26165981.943901163
0.8733625491439405	26779176.04418852
0.8735808897812266	25151222.03163512
0.8737992850036719	26345202.984190088
0.874017734824923	25601674.75878085
0.8742362392586293	27224827.148467552
0.874454798318444	27484854.42697674
0.8746734120180236	27469057.964638725
0.8748920803710283	27867679.07109443
0.875110803391121	27069868.774001203
0.8753295810919689	25595494.537156824
0.875548413487242	27979445.745606635
0.8757673005906139	26844179.539190255
0.8759862424157616	28603107.088588875
0.8762052389763657	28278875.21021344
0.8764242902861098	27512715.83521055
0.8766433963586814	27839428.64416946
0.8768625572077712	24947470.70666442
0.8770817728470732	24541830.328605898
0.8773010432902849	27542462.1691609
0.8775203685511077	27261133.728779923
0.8777397486432454	29833235.645599917
0.8779591835804065	29276493.563913204
0.8781786733763015	27799616.322340596
0.8783982180446457	28395762.42987804
0.878617817599157	29807069.57600628
0.8788374720535569	28407702.027927563
0.8790571814215703	28117325.47470801
0.8792769457169257	28980271.633633547
0.879496764953355	27336983.083935965
0.8797166391445934	30761129.448875785
0.8799365683043796	30593105.331067264
0.8801565524464557	29701347.360698827
0.8803765915845676	28628557.380399592
0.8805966857324639	28762107.902609818
0.880816834903897	27714477.78524073
0.881037039112623	30423689.15260749
0.8812572983724012	29979657.588406652
0.8814776126969944	28786814.992265046
0.8816979821001687	29908725.707960963
0.8819184065956938	31523637.863461178
0.8821388861973429	30990933.748725887
0.8823594209188923	28256575.08402485
0.882580010774122	29062049.121399365
0.8828006557768155	29745973.946733344
0.8830213559407598	29253030.776462745
0.8832421112797452	32069935.831350375
0.8834629218075651	30884479.447490484
0.8836837875380171	30803896.757277057
0.8839047084849018	31638781.988219094
0.884125684662023	31962572.837561492
0.8843467160831886	32395702.599196013
0.8845678027622095	31990413.167081755
0.8847889447129001	28657859.15831504
0.8850101419490785	31755151.893524073
0.8852313944845657	31573863.194243234
0.885452702333187	32644761.76252682
0.8856740655087704	32390161.973343164
0.8858954840251476	28383622.89901978
0.8861169578961539	30762067.36935266
0.886338487135628	32942257.82525414
0.886560071757412	32965765.072905317
0.8867817117753515	32960265.976814434
0.8870034072032955	32193438.7529614
0.8872251580550963	27665648.552499205
0.8874469643446101	31417290.565513555
0.8876688260856963	32535505.861196615
0.8878907432922178	33249958.636460938
0.8881127159780409	33424686.1875261
0.8883347441570356	33086502.278121844
0.8885568278430749	28778815.700404074
0.8887789670500358	32551685.358139947
0.8890011617917983	33374828.65949251
0.8892234120822464	33764100.10043475
0.8894457179352669	33676430.5328577
0.8896680793647509	32603471.857014656
0.8898904963845921	29548111.20628945
0.8901129690086883	31803271.23453691
0.8903354972509405	33579621.85201825
0.8905580811252535	33615965.42372597
0.8907807206455347	33366550.11260722
0.8910034158256963	33287240.023163136
0.8912261666796527	29064042.103560224
0.8914489732213227	33513434.70406842
0.8916718354646282	33858213.85241864
0.8918947534234944	33590305.65485062
0.8921177271118502	31706176.248016085
0.8923407565436284	32782262.056029238
0.8925638417327644	29557373.573079728
0.8927869826931977	30808567.286311064
0.8930101794388711	32457150.35385692
0.8932334319837308	32881919.7334335
0.8934567403417267	32547824.403750595
0.8936801045268123	31683220.221146584
0.8939035245529441	30010172.538457192
0.8941270004340824	28315510.16035956
0.894350532184191	20338145.630447652
0.8945741198172371	5221576.545981739
0.8947977633471915	17885783.696414445
0.8950214627880284	30203426.845946774
0.8952452181537254	31813435.53477072
0.8954690294582639	30080297.127468463
0.8956928967156286	32593336.63056653
0.8959168199398075	34333288.573504314
0.8961407991447926	34700421.25956341
0.8963648343445789	34625395.99325699
0.896588925553165	33536875.779419445
0.8968130727845534	32352148.667453706
0.8970372760527496	34531534.246453404
0.8972615353717629	34037977.41882385
0.8974858507556059	34350502.26379197
0.8977102222182949	34444206.87757287
0.8979346497738496	35327748.85297642
0.8981591334362931	34543442.818442374
0.8983836732196523	32404636.410213463
0.8986082691379572	34566443.01355994
0.8988329212052417	33870372.74613752
0.8990576294355432	34270126.978222184
0.8992823938429022	35396995.850738004
0.8995072144413631	35948682.88173417
0.8997320912449734	35563618.1145318
0.8999570242677847	34247685.94577231
0.9001820135238516	34540947.081797116
0.9004070590272328	36167114.49677088
0.9006321607919896	36589281.08041461
0.9008573188321878	35926155.29376819
0.9010825331618959	35000674.84837682
0.9013078037951865	36026855.73304919
0.9015331307461353	35512310.90689383
0.9017585140288219	34416120.747404076
0.9019839536573292	35890911.313911654
0.9022094496457435	37120734.40148424
0.9024350020081551	35620870.65835568
0.9026606107586572	36375070.60055557
0.902886275911347	35295805.853127256
0.9031119974803249	36545365.386916324
0.9033377754796951	36231332.89362328
0.903563609923565	36734865.25120052
0.903789500826046	37359037.728958294
0.9040154482012526	37799002.179430455
0.904241452063303	37374937.45021096
0.9044675124263188	37201142.36697103
0.9046936293044254	37336797.572963886
0.9049198027117517	37442368.02427441
0.9051460326624297	37779991.18573629
0.9053723191705955	37955171.45930908
0.9055986622503881	37244516.94407213
0.9058250619159507	38041896.49290379
0.9060515181814298	37898397.559694126
0.9062780310609752	37592563.009040475
0.9065046005687405	38020256.36925912
0.906731226718883	37743836.31013329
0.9069579095255627	38262231.94043615
0.907184649002944	37015598.61386612
0.907411445165195	35751335.31113848
0.9076382980264862	36985168.791626126
0.907865207600993	38498750.68852698
0.9080921739028933	38019433.361452475
0.9083191969463691	35981527.131910585
0.9085462767456058	38360800.42341177
0.9087734133147922	38499752.5526735
0.9090006066681211	38538719.725001715
0.909227856819788	38559744.01300241
0.9094551637839932	38403956.58125354
0.9096825275749393	38282070.20092638
0.9099099482068329	38718635.782310225
0.9101374256938848	38661948.19931571
0.9103649600503083	38934288.0624901
0.9105925512903209	38947125.47997956
0.9108201994281437	35016397.4801293
0.9110479044780008	36883396.30547025
0.9112756664541204	39097226.002373904
0.911503485370734	39019701.39925103
0.9117313612420768	39321239.63799839
0.9119592940823873	38625131.50196908
0.912187283905908	39160636.86059608
0.9124153307268845	39424745.04448136
0.9126434345595664	39617895.27653216
0.9128715954182063	38412199.42948177
0.9130998133170609	37250338.166753806
0.9133280882703902	38728701.596809134
0.913556420292458	39514664.28402978
0.9137848093975312	37866534.83195111
0.9140132555998806	39130736.24986903
0.9142417589137806	40104544.945202716
