#wavelength	surface flux
0.8	428603.73308248183
0.8002000000000001	435124.9893050883
0.8004000500000003	441411.8020209539
0.8006001500125003	447414.11287517723
0.8008003000500035	453708.6957443305
0.8010005001250161	460011.3705816537
0.8012007502500472	467320.8083179172
0.8014010504376099	473634.10281122336
0.8016014007002193	480180.5813729555
0.8018018010503944	487472.6913799888
0.8020022515006572	494115.1244712672
0.8022027520635323	501195.0528987993
0.8024033027515483	508443.43605029985
0.8026039035772362	515212.6906442478
0.8028045545531306	522473.4638674603
0.8030052556917691	528535.6393744227
0.803206007005692	536168.6376377565
0.8034068085074435	543100.1474328387
0.8036076602095705	549909.3184515382
0.8038085621246229	557192.699267116
0.8040095142651542	564082.7718607292
0.8042105166437206	569442.131606211
0.8044115692728815	576042.6627222582
0.8046126721651998	581623.0215666512
0.8048138253332411	590041.463114048
0.8050150287895745	597054.4193871939
0.805216282546772	603491.9756350289
0.8054175866174087	608563.1142677218
0.8056189410140631	615895.1953497876
0.8058203457493168	622963.4926826992
0.8060218008357541	629524.3123639604
0.8062233062859632	635194.8355682015
0.8064248621125346	643016.592876922
0.806626468328063	650498.2507125401
0.8068281249451449	655707.0809816959
0.8070298319763813	663098.7114497211
0.8072315894343755	670659.8954141868
0.8074333973317341	678746.4612464063
0.8076352556810671	688478.4730900982
0.8078371644949874	696697.275481755
0.8080391237861113	705945.3109338138
0.8082411335670578	711695.4693063014
0.8084431938504498	721418.2116785127
0.8086453046489125	730046.9976022545
0.8088474659750746	738214.7622377835
0.8090496778415686	748944.1214020884
0.809251940261029	752560.5111797652
0.8094542532460944	764559.795192634
0.8096566168094059	772991.529797533
0.8098590309636085	784946.4187536855
0.8100614957213493	788586.9883716415
0.8102640110952797	800084.4642858048
0.8104665770980536	810669.6124614167
0.8106691937423283	820800.0906377773
0.8108718610407639	824815.8656641177
0.8110745790060241	829572.7351513702
0.8112773476507757	842117.6069970691
0.8114801669876885	853375.7198381803
0.8116830370294355	860785.9436599069
0.8118859577886929	880024.7139651744
0.8120889292781401	883543.1054120543
0.8122919515104597	883124.2880867437
0.8124950244983374	893971.9843263235
0.8126981482544621	914562.1982659516
0.8129013227915257	922643.1419159267
0.8131045481222237	930182.7027569722
0.8133078242592543	910963.4639490881
0.8135111512153191	935353.372413105
0.813714529003123	945539.0556586928
0.8139179576353739	962804.8030193858
0.8141214371247829	973953.3487166358
0.8143249674840641	973345.1772193235
0.814528548725935	992462.8907022795
0.8147321808631167	1007925.0959889824
0.8149358639083326	1012893.3627937448
0.8151395978743097	1009252.1641786564
0.8153433827737784	1042334.4816886631
0.8155472186194719	1044631.3405509033
0.8157511054241268	1053022.029957159
0.815955043200483	1071549.502591909
0.8161590319612831	1085892.4069911188
0.8163630717192736	1054338.4250496107
0.8165671624872033	1098793.5574442297
0.8167713042778252	1116683.2108268917
0.8169754971038948	1133589.0953216795
0.8171797409781707	1098411.9942988867
0.8173840359134155	1146383.1223104883
0.8175883819223938	1168764.3835420893
0.8177927790178745	1173674.8923125165
0.8179972272126291	1171953.939684439
0.8182017265194322	1202185.8930583128
0.8184062769510622	1199277.0723766577
0.8186108785203001	1224273.1104744591
0.8188155312399301	1235777.0809587163
0.8190202351227402	1246761.4887725206
0.819224990181521	1249673.8177866216
0.8194297964290664	1268132.6396164007
0.8196346538781738	1272488.3606666336
0.8198395625416434	1290188.6914584604
0.8200445224322789	1302221.2033301387
0.820249533562887	1318444.9860734693
0.8204545959462778	1338640.2159220388
0.8206597095952644	1352143.8184942014
0.8208648745226633	1364162.7974557795
0.8210700907412941	1376807.4124015581
0.8212753582639793	1392746.0099811382
0.8214806771035456	1408609.1204131537
0.8216860472728215	1422720.2105741643
0.8218914687846397	1432245.9348098915
0.822096941651836	1448177.941586183
0.822302465887249	1458547.9260017332
0.8225080415037209	1471768.1586054037
0.8227136685140968	1470174.0601061133
0.8229193469312254	1434358.127764169
0.8231250767679583	1455578.4830054299
0.8233308580371503	1487478.508680182
0.8235366907516598	1527927.6167168263
0.8237425749243477	1531418.9653678522
0.8239485105680789	1556004.766312395
0.824154497695721	1585405.17860969
0.824360536320145	1587956.1314242838
0.8245666264542252	1593346.1019329003
0.8247727681108388	1625625.7402946162
0.8249789613028664	1651030.7661635643
0.8251852060431922	1664976.4677419106
0.825391502344703	1686065.7496371812
0.8255978502202894	1702747.1617784852
0.8258042496828445	1707248.5452546263
0.8260107007452654	1734126.5923104414
0.8262172034204517	1731290.6103298827
0.8264237577213068	1750239.3501770915
0.8266303636607373	1759159.872240149
0.8268370212516525	1797736.3256794827
0.8270437305069654	1814310.2717771833
0.8272504914395923	1826651.2941022404
0.8274573040624523	1837915.5145932054
0.8276641683884679	1852716.434002057
0.8278710844305652	1866263.5083069198
0.8280780522016729	1894316.340043909
0.8282850717147234	1895405.3310139116
0.8284921429826521	1919621.5322056862
0.8286992660183978	1947120.3830588176
0.8289064408349024	1946433.2376121725
0.8291136674451112	1961649.4671150085
0.8293209458619727	1990911.3066267115
0.8295282760984382	1988266.2383321985
0.829735658167463	1981266.1086502208
0.8299430920820048	2027586.9517308595
0.8301505778550254	2048629.6131496967
0.8303581154994891	2069346.3136195699
0.8305657050283641	2083914.9799749427
0.8307733464546212	2076200.984384382
0.8309810397912352	2119004.9959180187
0.8311887850511829	2139425.7719602333
0.8313965822474458	2126098.0429971367
0.8316044313930077	2167704.3221337837
0.8318123325008561	2180349.6224276805
0.8320202855839813	2193478.232636446
0.8322282906553774	2219255.315333534
0.8324363477280413	2222041.7981532677
0.8326444568149735	2267502.4219437214
0.8328526179291771	2276872.1594703915
0.8330608310836596	2289545.992693682
0.8332690962914304	2297674.4064269955
0.8334774135655034	2303580.5687752063
0.833685782918895	2326564.7163334885
0.8338942043646247	2373198.1053348095
0.834102677915716	2354813.782771101
0.834311203585195	2404787.4933930896
0.8345197813860912	2430079.533344727
0.8347284113314379	2456623.103858562
0.8349370934342709	2465506.527765669
0.8351458277076294	2464087.9132704497
0.8353546141645565	2510972.1326992875
0.8355634528180977	2498068.1638992573
0.8357723436813022	2523217.136209395
0.8359812867672226	2485829.1281500007
0.8361902820889144	2592105.988293015
0.8363993296594368	2520397.968867349
0.8366084294918518	2621801.7929977113
0.8368175815992247	2633781.218077676
0.8370267859946247	2637684.51373247
0.8372360426911234	2672215.1242810935
0.8374453517017962	2721404.900137154
0.8376547130397217	2710723.8200355773
0.8378641267179816	2720941.6490045097
0.8380735927496613	2791287.33047177
0.8382831111478488	2817321.6116956524
0.8384926819256358	2832650.732941819
0.8387023050961173	2836815.7706984268
0.8389119806723914	2853725.374492029
0.8391217086675596	2924455.175853047
0.8393314890947265	2956643.222491405
0.8395413219670003	2946300.819450177
0.8397512072974922	2983405.739248536
0.8399611450993165	2979061.6646985617
0.8401711353855914	3024538.754847603
0.8403811781694378	3070177.66368187
0.8405912734639802	3058019.0609896597
0.8408014212823464	3078194.58505358
0.8410116216376671	3117829.727529217
0.8412218745430766	3150127.3324123286
0.8414321800117124	3196303.6990181054
0.8416425380567154	3199561.786838117
0.8418529486912297	3223619.3594603823
0.8420634119284025	3202982.2155339653
0.8422739277813847	3285308.134295554
0.8424844962633302	3318080.300780704
0.842695117387396	3357584.711407492
0.8429057911667428	3369978.749428936
0.8431165176145345	3360438.2949613743
0.8433272967439382	3417023.4046244
0.8435381285681244	3436907.1333229356
0.8437490131002665	3451361.252992747
0.8439599503535415	3501812.679663007
0.84417094034113	3504167.843988579
0.8443819830762154	3510589.026410678
0.8445930785719846	3559960.28175946
0.8448042268416277	3608895.5789735843
0.8450154278983382	3606828.3945414987
0.8452266817553128	3634308.4294644413
0.8454379884257517	3662022.665647059
0.8456493479228583	3651819.555550287
0.845860760259839	3732819.0046133394
0.846072225449904	3770663.1019261167
0.8462837435062666	3764464.6313716783
0.8464953144421433	3741206.6399232545
0.8467069382707537	3805377.8139839997
0.8469186150053215	3856980.835320725
0.847130344659073	3860732.6268120883
0.8473421272452377	3905566.8688874114
0.8475539627770492	3916348.498446545
0.8477658512677435	3948046.8518794333
0.8479777927305605	3989786.582338659
0.8481897871787432	4022432.924458844
0.848401834625538	4049112.0317762326
0.8486139350841944	4062767.8560449393
0.8488260885679657	4073950.903912105
0.8490382950901076	4105130.7317733616
0.8492505546638802	4146485.6209651656
0.8494628673025462	4154869.6905466006
0.8496752330193721	4186734.2814891194
0.8498876518276269	4179378.410792581
0.8501001237405839	4208103.126217093
0.8503126487715191	4246613.776663158
0.850525226933712	4265915.168682882
0.8507378582404455	4262328.888673329
0.8509505427050057	4239846.659872098
0.8511632803406821	4215545.223815509
0.8513760711607672	4129183.4963184153
0.8515889151785576	3949120.7560384017
0.8518018124073523	3566518.233251746
0.8520147628604541	2680749.482931719
0.8522277665511693	1016339.0565298583
0.8524408234928071	1211751.3322377237
0.8526539336986805	2850423.9238399714
0.8528670971821053	3734431.068403071
0.8530803139564007	4170151.805429284
0.8532935840348901	4397021.271755476
0.8535069074308987	4568693.1202454595
0.8537202841577566	4671154.639563292
0.8539337142287962	4753385.5071419785
0.8541471976573534	4787769.349726443
0.8543607344567677	4886846.526002204
0.8545743246403821	4945355.727442143
0.8547879682215422	4996102.883595612
0.8550016652135977	5034116.294378
0.8552154156299011	5076678.44227803
0.8554292194838088	5125184.147617311
0.8556430767886797	5156547.238975934
0.855856987557877	5218006.740504064
0.8560709518047664	5266064.57066015
0.8562849695427177	5307796.613111419
0.8564990407851035	5331979.319595749
0.8567131655452999	5338198.745186511
0.8569273438366862	5426704.802187594
0.8571415756726455	5481765.205903051
0.8573558610665638	5512293.621191377
0.8575702000318304	5555293.940772112
0.8577845925818384	5604129.66064501
0.857999038729984	5645781.851068572
0.8582135384896665	5674976.553409844
0.858428091874289	5726299.822069136
0.8586426988972576	5771495.092831737
0.8588573595719821	5807310.530073711
0.8590720739118751	5850275.269284635
0.8592868419303532	5881563.652767068
0.8595016636408359	5915123.249822972
0.8597165390567462	5968434.167737858
0.8599314681915105	6017271.051691455
0.8601464510585584	6054425.202934369
0.860361487671323	6084112.745324036
0.8605765780432408	6134684.051710343
0.8607917221877518	6162392.053055351
0.8610069201182988	6193932.552247495
0.8612221718483286	6147249.130073822
0.8614374773912907	6022872.712362456
0.8616528367606385	6129309.185416142
0.8618682499698288	6084720.403803459
0.8620837170323213	6113647.30914831
0.8622992379615795	6212601.474792354
0.8625148127710699	6193938.580642878
0.8627304414742627	6186917.773243294
0.8629461240846313	6401624.220361906
0.8631618606156526	6294079.0067680115
0.8633776510808066	6348338.786756891
0.8635934954935769	6413349.037953936
0.8638093938674504	6488926.817562609
0.8640253462159173	6518344.55790044
0.8642413525524714	6505816.583216139
0.8644574128906095	6644035.619196897
0.8646735272438323	6694816.781560198
0.8648896956256433	6639122.016618462
0.8651059180495498	6821835.3655189
0.8653221945290621	6763782.968212137
0.8655385250776946	6982466.124352129
0.8657549097089641	6961761.986009341
0.8659713484363913	6997165.430942868
0.8661878412735006	7062203.003905874
0.866404388233819	7129645.395027195
0.8666209893308775	7109837.217842466
0.8668376445782103	7287674.126893936
0.8670543539893549	7222699.757272642
0.8672711175778525	7272041.542441344
0.8674879353572469	7302534.126882502
0.8677048073410862	7399135.800857563
0.8679217335429217	7481751.264933285
0.8681387139763074	7518739.123467615
0.8683557486548015	7481246.068017396
0.8685728375919655	7467485.119663747
0.8687899808013633	7663456.940640742
0.8690071782965637	7720032.327549141
0.869224430091138	7819053.391667248
0.8694417361986609	7843330.73077464
0.8696590966327107	7680821.607111016
0.869876511406869	7792236.206134252
0.8700939805347206	7899420.275219762
0.8703115040298544	7989125.127626763
0.870529081905862	7981537.744174453
0.8707467141763385	8057436.077575481
0.8709644008548827	8016096.599194096
0.8711821419550964	8075795.286413051
0.8713999374905854	8134435.805200312
0.871617787474958	8348696.008425545
0.8718356919218269	8350973.333637711
0.8720536508448075	8293996.372397127
0.8722716642575187	8351293.888088369
0.8724897321735832	8405367.438365657
0.8727078546066265	8583965.796690032
0.8729260315702784	8534862.496994622
0.873144263078171	8689267.698534945
0.8733625491439405	8768837.101132121
0.8735808897812266	8645211.072881306
0.8737992850036719	8760071.12304087
0.874017734824923	8851031.040874775
0.8742362392586293	9051152.981782734
0.874454798318444	9054505.482983636
0.8746734120180236	9086253.13156023
0.8748920803710283	9207371.140553957
0.875110803391121	9154276.625023784
0.8753295810919689	9082738.15792165
0.875548413487242	9345472.78385292
0.8757673005906139	9417048.1662424
0.8759862424157616	9561423.18541493
0.8762052389763657	9594855.036254141
0.8764242902861098	9569197.260474663
0.8766433963586814	9742135.729484271
0.8768625572077712	9587630.286718195
0.8770817728470732	9523978.443594236
0.8773010432902849	9869979.178278478
0.8775203685511077	9904714.50858406
0.8777397486432454	10190794.905647397
0.8779591835804065	10185625.743727386
0.8781786733763015	10052927.675557233
0.8783982180446457	10155200.222070089
0.878617817599157	10247234.33187513
0.8788374720535569	10044598.719723111
0.8790571814215703	10294567.951803284
0.8792769457169257	10486300.15698936
0.879496764953355	10487441.456138935
0.8797166391445934	10839495.25907039
0.8799365683043796	10891144.665318241
0.8801565524464557	10712245.97408337
0.8803765915845676	10667712.687595492
0.8805966857324639	10835270.825345207
0.880816834903897	10685651.073024455
0.881037039112623	10985284.662078239
0.8812572983724012	10970647.400160093
0.8814776126969944	11026847.676151559
0.8816979821001687	11303531.462708458
0.8819184065956938	11592848.44224063
0.8821388861973429	11574529.502694884
0.8823594209188923	11333755.824060472
0.882580010774122	11370463.009187393
0.8828006557768155	11490974.50871538
0.8830213559407598	11504164.945849393
0.8832421112797452	11994245.3056996
0.8834629218075651	11704740.834926601
0.8836837875380171	11690482.466173753
0.8839047084849018	12041804.058404388
0.884125684662023	12388583.670889422
0.8843467160831886	12469069.633335818
0.8845678027622095	12407776.259446118
0.8847889447129001	11855597.376004606
0.8850101419490785	12127153.450988714
0.8852313944845657	12293036.171668755
0.885452702333187	12849304.589981714
0.8856740655087704	12832212.152298395
0.8858954840251476	12384537.598655175
0.8861169578961539	12422142.026071548
0.886338487135628	13163952.849399785
0.886560071757412	13312221.963586306
0.8867817117753515	13327178.296512695
0.8870034072032955	13174126.10068282
0.8872251580550963	12556917.623578083
0.8874469643446101	12880366.208125042
0.8876688260856963	13235275.504881576
0.8878907432922178	13794307.748109553
0.8881127159780409	13953340.027584303
0.8883347441570356	13742370.552028803
0.8885568278430749	12904182.015206438
0.8887789670500358	13586071.498848518
0.8890011617917983	13970725.737198133
0.8892234120822464	14347602.875703335
0.8894457179352669	14283119.863641528
0.8896680793647509	13797832.071918996
0.8898904963845921	13278551.223565256
0.8901129690086883	13982739.66959786
0.8903354972509405	14585693.778164312
0.8905580811252535	14701584.917127877
0.8907807206455347	14532397.262756066
0.8910034158256963	14193168.903902085
0.8912261666796527	13475513.646916287
0.8914489732213227	14523107.006370068
0.8916718354646282	14720173.013839897
0.8918947534234944	14398542.647653239
0.8921177271118502	13798127.081709068
0.8923407565436284	14073212.10963308
0.8925638417327644	13361244.494593866
0.8927869826931977	13795177.912661135
0.8930101794388711	14061016.683490152
0.8932334319837308	13968759.753049029
0.8934567403417267	14286118.68277347
0.8936801045268123	13288919.402422557
0.8939035245529441	12733169.916530592
0.8941270004340824	11067233.089252464
0.894350532184191	7386242.283937624
0.8945741198172371	2726521.677250326
0.8947977633471915	4555359.739800601
0.8950214627880284	9071166.185632149
0.8952452181537254	11872015.947836094
0.8954690294582639	12847388.824949546
0.8956928967156286	13773495.07254346
0.8959168199398075	15418478.266445657
0.8961407991447926	16131324.559675412
0.8963648343445789	16140460.969014626
0.896588925553165	15445017.268949868
0.8968130727845534	15373128.83740733
0.8970372760527496	15903604.720628731
0.8972615353717629	16163520.553669043
0.8974858507556059	16043617.317684403
0.8977102222182949	16858314.288898196
0.8979346497738496	17583193.759108808
0.8981591334362931	16934381.180684805
0.8983836732196523	15867512.681034612
0.8986082691379572	17520120.581627276
0.8988329212052417	17322920.753527094
0.8990576294355432	17069546.226932134
0.8992823938429022	17544226.48670002
0.8995072144413631	18009311.225982495
0.8997320912449734	18051931.537160877
0.8999570242677847	18026989.853177875
0.9001820135238516	17253651.47555015
0.9004070590272328	18593096.070925623
0.9006321607919896	19220376.29223894
0.9008573188321878	19101666.55447041
0.9010825331618959	18649641.208455145
0.9013078037951865	18559215.731476724
0.9015331307461353	18741242.296701644
0.9017585140288219	18841695.80004572
0.9019839536573292	19345507.211937062
0.9022094496457435	20541913.01670364
0.9024350020081551	19999626.76023126
0.9026606107586572	20143564.54550089
0.902886275911347	19061835.56469003
0.9031119974803249	19576540.774553966
0.9033377754796951	19940006.012248453
0.903563609923565	20760980.806067914
0.903789500826046	21486926.515149403
0.9040154482012526	21669326.11549723
0.904241452063303	20915953.239466295
0.9044675124263188	20460311.782198027
0.9046936293044254	20931338.387535922
0.9049198027117517	21056616.65240334
0.9051460326624297	21886125.97194559
0.9053723191705955	22323701.942138165
0.9055986622503881	21950803.90765479
0.9058250619159507	22334688.160242274
0.9060515181814298	21552675.568483457
0.9062780310609752	21811020.604273826
0.9065046005687405	21913880.43127281
0.906731226718883	22150103.84464586
0.9069579095255627	22862586.218325686
0.907184649002944	22404614.94520493
0.907411445165195	22028098.425151337
0.9076382980264862	22448008.204287965
0.907865207600993	22983109.332447205
0.9080921739028933	22904175.292945106
0.9083191969463691	22305605.3604115
0.9085462767456058	23839795.749983706
0.9087734133147922	23998451.796606917
0.9090006066681211	23313938.682365082
0.909227856819788	23864547.13644829
0.9094551637839932	23672643.165572423
0.9096825275749393	23996416.94694371
0.9099099482068329	24002236.880882822
0.9101374256938848	24258166.998836033
0.9103649600503083	24398697.43356694
0.9105925512903209	25347177.98837912
0.9108201994281437	22625691.71451497
0.9110479044780008	23603740.823764525
0.9112756664541204	25177332.09459451
0.911503485370734	25282398.66204725
0.9117313612420768	25668171.969216112
0.9119592940823873	25036893.943212133
0.912187283905908	25835683.121296033
0.9124153307268845	26671113.292938475
0.9126434345595664	26623720.2927716
0.9128715954182063	25304202.88761063
0.9130998133170609	24063083.715221602
0.9133280882703902	24803975.149856783
0.913556420292458	26501924.491124112
0.9137848093975312	25150344.973544676
0.9140132555998806	25875876.828010187
0.9142417589137806	27347078.912698135
0.9144703193535092	26326930.33906895
