#wavelength	surface flux
0.6450077295303345	12049.940268817416
0.6472567915916443	14867.114055674354
0.6494921445846558	18294.962560557076
0.6517150402069092	22311.460224286104
0.6539263725280762	27246.361940399547
0.6561272740364075	32915.85320681547
0.6583186388015747	39324.86814720809
0.6605015397071838	46691.49430908391
0.6626768708229065	55495.63236558173
0.6648455858230591	66309.96637900079
0.6670085787773132	78006.98943857968
0.6691668033599854	91265.95238005348
0.6713210344314575	103616.01451453913
0.6734722256660461	121300.14749607335
0.6756211519241333	138685.81453134242
0.6777685880661011	148474.23067532975
0.6799154281616211	168948.42751226632
0.6820623278617859	178427.40299167007
0.6842101216316223	182777.89549311975
0.6863595843315125	177427.86933689244
0.688511312007904	166844.0710982143
0.6906660795211792	152494.25177479026
0.6928245425224304	140460.13392468778
0.6949873566627502	135463.56202169714
0.6971551775932312	134519.48378107426
0.6993286609649658	138253.099450308
0.7015084028244019	150524.23087691123
0.7036949396133423	161895.0070347237
0.7058889269828796	167947.558042763
0.7080909013748169	170540.32058708122
0.710301399230957	173932.2005804164
0.712520956993103	181161.29099518294
0.7147500514984131	182784.02948454247
0.7169892191886902	179251.18617321659
0.7192389369010925	177268.11976874105
0.7214996814727783	171680.4781468694
0.723771870136261	167799.48651602393
0.7260559797286987	160141.05910825284
0.7283523678779602	152497.52251856422
0.7306615710258484	145134.37296007536
0.7329838871955872	138177.93927145223
0.7353196740150452	129116.89177798336
0.7376693487167358	128564.07044691333
0.7400332689285278	120112.43806245108
0.7424117922782898	118846.15875090753
0.7448052167892456	111437.95634764373
0.7472138404846191	119058.86245973007
0.7496379613876343	99916.09051899546
0.7520779371261597	91588.13391190904
0.7545340061187744	78442.78479945508
0.7570064663887024	55513.38408674242
0.7594954967498779	32313.891934633924
0.7620013952255249	12480.685995466043
0.7645244002342224	3213.050854537816
0.7670646905899048	734.609186918104
0.7696225643157959	1231.8306812571082
0.7721980810165405	6436.947963287919
0.7747915983200073	24369.14335889833
0.7774031162261963	51290.985918020226
0.7800329327583313	45946.88144911327
0.7826811671257019	101085.83128646112
0.7853479981422424	135489.24633693014
0.7880334854125977	170581.0474681892
0.7907378077507019	213216.02149605486
0.7934610247612	234747.36993253062
0.7962033748626709	271244.949569189
0.7989648580551147	398752.6709489786
0.801745593547821	486004.2490829479
0.8045456409454346	580827.2722728975
0.8073651194572449	678338.7800592149
0.8102040886878967	799455.7861309489
0.8130625486373901	922515.0444281778
0.8159406185150146	1074466.3438661352
0.8188382983207703	1238797.0530322648
0.8217556476593018	1420772.3448080425
0.8246926665306091	1612706.4432898758
0.8276493549346924	1851609.7538882275
0.8306257724761963	2055685.7748266922
0.8336219191551208	2339389.6314189243
0.8366377949714661	2581236.7250893367
0.8396733403205872	2968424.3283861373
0.8427285552024841	3322426.04385176
0.8458034992218018	3688358.949160073
0.8488980531692505	4070652.7113688956
0.8520121574401855	3356658.647347777
0.8551458716392517	5046444.747450059
0.8582990765571594	5705827.138520358
0.8614717125892639	6109338.159576601
0.8646637797355652	6679462.08890859
0.8678751587867737	7413893.4336997485
0.8711057901382446	8098539.606110227
0.8743556141853333	8926626.598379917
0.87762451171875	9983946.330367427
0.8809124231338501	10951625.692348178
0.8842192888259888	12176732.84375111
0.8875449895858765	13160304.505065406
0.8908893465995789	14276397.03931596
0.894252359867096	10481380.97708108
0.8976338505744934	16508738.262169683
0.9010337591171265	18909786.861615673
0.9044519662857056	21204754.418870654
0.9078882932662964	22385662.54804725
0.9113426208496094	24517396.555580825
0.914814829826355	26761809.264634196
0.9183048605918884	28533501.682312004
0.9218124747276306	32552427.058606412
0.925337553024292	31560454.603007726
0.9288799166679382	24673803.786843173
0.9324395060539246	21474549.774910953
0.9360161423683167	33639219.22276977
0.9396095871925354	41132432.74104208
0.943219780921936	38654750.691083334
0.9468464851379395	43770593.80940606
0.9504896402359009	39378331.23810176
0.9541489481925964	44475957.304548174
0.9578243494033813	50802442.28456425
0.9615156054496765	41063666.006762154
0.9652225375175476	51782407.72518057
0.9689450263977051	58354965.575786754
0.9726828336715698	57962715.305377625
0.9764357805252075	71502553.73554926
0.9802037477493286	70832385.38538289
0.983986496925354	74658691.23541358
0.9877838492393494	83520977.08971487
0.9915955662727356	82891791.29350227
0.9954215884208679	89817591.81066269
0.9992615580558777	68571443.32282066
1.0031154155731201	72245399.15622815
1.0069829225540161	78693518.08846499
1.0108637809753418	88659184.11409031
1.0147579908370972	94809576.76556149
1.018665075302124	100141404.95618229
1.022585153579712	104757373.14461465
1.0265177488327026	108543995.76610777
1.0304628610610962	112965783.87528998
1.0344202518463135	115554021.50653704
1.0383895635604858	120725748.81828062
1.0423706769943237	121390319.82431257
1.0463634729385376	125342470.25520982
1.0503677129745483	127233568.0221711
1.0543830394744873	131095130.03771505
1.058409333229065	133123408.73552795
1.0624464750289917	135298533.472453
1.0664942264556885	136496901.9351927
1.0705522298812866	138031646.35015863
1.0746204853057861	140684971.0632352
1.0786986351013184	141809964.67925054
1.0827864408493042	143290733.58739138
1.086883783340454	138053119.48754433
1.0909905433654785	132157020.00323342
1.0951062440872192	119482739.74066916
1.0992310047149658	105992363.76052672
1.10336434841156	96825426.27653573
1.1075061559677124	70383270.94851698
1.1116561889648438	70142767.98671018
1.115814208984375	50736534.71072053
1.1199802160263062	66242465.46167507
1.124153733253479	47142752.819479235
1.1283347606658936	58672852.02518222
1.1325229406356812	43510981.70393751
1.1367181539535522	43120506.71156722
1.1409201622009277	79074231.63778573
1.145128846168518	57816983.69915445
1.1493438482284546	60634030.81750335
1.1535650491714478	42045952.869172916
1.1577922105789185	53861554.94585071
1.1620250940322876	26272631.069373168
1.1662636995315552	35892951.852770284
1.170507550239563	43839817.99384911
1.174756646156311	63134235.495395005
1.1790107488632202	55817263.5549767
1.1832695007324219	92186307.15212868
1.1875330209732056	87929860.25880334
1.191800832748413	103753553.29738449
1.1960728168487549	132948425.41029835
1.2003488540649414	131233351.53858717
1.2046287059783936	140206745.37933773
1.2089121341705322	143718722.19372725
1.2131990194320679	152265258.38685924
1.2174891233444214	155123546.05810964
1.2217823266983032	161941977.65817106
1.2260783910751343	172203939.41626438
1.230377197265625	171872076.59869292
1.2346785068511963	164348749.52051762
1.238982081413269	174575850.97910956
1.2432878017425537	165426372.90951332
1.2475954294204712	180115631.61454296
1.2519049644470215	161335382.3246339
1.256216049194336	186574456.02769056
1.2605286836624146	184162538.94289905
1.2648425102233887	179887865.90716803
1.2691574096679688	183365417.30277812
1.2734732627868652	180020363.771764
1.2777899503707886	180880221.82294104
1.2821072340011597	177286173.4133277
1.2864248752593994	170823018.94737393
1.2907428741455078	173481857.55563325
1.2950609922409058	161223632.952576
1.2993791103363037	160527670.3231814
1.303696870803833	161807222.82040787
1.3080145120620728	148765748.1456827
1.3123314380645752	153246070.1204936
1.3166478872299194	141204583.9968198
1.3209635019302368	146891597.9099951
1.3252781629562378	117433962.49266271
1.3295916318893433	58127982.69919005
1.3339040279388428	31750899.78153904
1.3382149934768677	10454766.147783209
1.3425244092941284	7066590.514529654
1.3468321561813354	6060963.672534527
1.3511382341384888	8282301.905660927
1.3554422855377197	3289196.892666242
1.3597444295883179	3689220.772725125
1.3640443086624146	7057595.763997413
1.3683418035507202	7747053.836807907
1.3726370334625244	5758664.898865257
1.3769296407699585	7486238.208872086
1.381219506263733	5769338.069777043
1.3855066299438477	1666217.5126600098
1.3897908926010132	5355188.275957739
1.3940720558166504	5356194.306873041
1.3983501195907593	5640290.890396755
1.4026249647140503	5509108.554571576
1.4068963527679443	4932313.400553769
1.4111642837524414	4454805.940336464
1.4154287576675415	7590127.571692251
1.419689416885376	4025070.0173122566
1.4239463806152344	3175619.0647939653
1.4281994104385376	8052442.861143877
1.4324485063552856	8300152.026509811
1.436693549156189	11554747.818935653
1.440934419631958	11777965.303905725
1.4451709985733032	11763606.864545394
1.449403166770935	17446799.329513133
1.453631043434143	21211844.668122325
1.4578542709350586	27480179.32770441
1.4620729684829712	18607992.64178191
1.4662868976593018	24206359.791506074
1.4704961776733398	22770682.75039452
1.4747005701065063	22597449.513576556
1.4788999557495117	24376254.578057293
1.4830944538116455	29561723.01731441
1.4872838258743286	32183163.210021216
1.491468071937561	32847980.24202822
1.4956470727920532	37039188.95544254
1.4998208284378052	40981022.6428652
1.5039892196655273	46926432.63911523
1.5081522464752197	50144863.293695495
1.5123097896575928	57900084.240900904
1.5164618492126465	52940549.886324115
1.5206083059310913	54857148.620627396
1.5247491598129272	70207119.65083338
1.5288842916488647	58765013.14589139
1.5330137014389038	75779344.44182779
1.5371372699737549	85431761.67625944
1.541254997253418	72282327.36273836
1.545366883277893	93425868.3908975
1.5494728088378906	86906827.79849383
1.5535727739334106	107466477.49816406
1.5576666593551636	108284880.11619021
1.561754584312439	110063218.24559459
1.5658363103866577	102244825.1399364
1.5699119567871094	121381000.01778938
1.5739814043045044	123670173.5819137
1.5780447721481323	125186430.02309813
1.582101821899414	112964193.17783079
1.5861525535583496	109991978.03178014
1.5901970863342285	107903463.15760145
1.5942351818084717	108471647.21549712
1.5982669591903687	111053740.20612894
1.6022924184799194	114233052.36051452
1.606311559677124	105249306.35677862
1.6103241443634033	99104924.82870725
1.6143304109573364	97074974.52295169
1.6183301210403442	84543128.81627332
1.6223233938217163	98281957.6719705
1.6263102293014526	102710884.93750162
1.6302905082702637	92127242.60913053
1.634264349937439	91126909.6810039
1.638231635093689	86869890.906337
1.6421923637390137	78837837.80872513
1.646146535873413	71753888.13867483
1.6500942707061768	82511697.51233397
1.6540353298187256	86195166.11032704
1.6579699516296387	69168809.04804824
1.661897897720337	80667888.73508826
1.6658192873001099	64682337.82351388
1.6697341203689575	56656256.26398029
1.6736423969268799	63600080.857115
1.677544116973877	73008274.0232031
1.6814392805099487	68992903.18050583
1.6853278875350952	46626968.22319592
1.6892099380493164	45208500.34833687
1.6930854320526123	44685873.119981885
1.696954369544983	42082270.97289204
1.7008168697357178	50030572.23797968
1.7046726942062378	53062063.19963189
1.708522081375122	56653923.48736285
1.712364912033081	54224128.28819196
1.7162011861801147	57728910.258358546
1.7200311422348022	47851127.57776454
1.723854422569275	40536239.09359255
1.7276713848114014	45626564.74092977
1.731481909751892	43912617.39449118
1.7352858781814575	39849265.830189
1.7390835285186768	37141165.77717903
1.7428747415542603	33615023.77903808
1.7466596364974976	30889005.71413307
1.7504380941390991	34745138.47960592
1.7542102336883545	23387497.066584475
1.7579760551452637	21170278.901720196
1.7617355585098267	24767489.13265881
1.7654887437820435	21279852.285008382
1.7692357301712036	18222203.797830373
1.7729763984680176	22295358.85732645
1.776710867881775	12739101.235554537
1.7804391384124756	12839477.332167808
1.7841613292694092	11566495.845310573
1.7878772020339966	13388124.369793957
1.7915871143341064	12268605.537187876
1.7952908277511597	13746189.469923837
1.7989884614944458	15575238.34885156
1.8026801347732544	10374536.554459097
1.806365728378296	10604035.340815583
1.8100452423095703	9524041.422828441
1.8137187957763672	12046841.239759834
1.817386507987976	11046932.299416643
1.8210482597351074	10393742.77324506
1.8247040510177612	13001372.896258846
1.828354001045227	10751329.892874464
1.8319982290267944	10266475.62159677
1.8356364965438843	8769326.753539927
1.8392690420150757	9177723.243533066
1.8428958654403687	11842253.57744355
1.8465168476104736	11460284.006655246
1.8501322269439697	12351821.745721387
1.8537418842315674	13763126.24803027
1.8573459386825562	9926349.89347077
1.860944390296936	6202511.104088992
1.864537239074707	5576348.520122628
1.8681244850158691	5939589.000826943
1.871706247329712	8467753.435799472
1.8752825260162354	8353878.4626494385
1.8788533210754395	13804851.744839905
1.8824186325073242	15145968.303939559
1.8859784603118896	12462059.109156474
1.8895330429077148	14492098.145781104
1.8930821418762207	16413318.65434126
1.8966259956359863	17862479.366810687
1.9001644849777222	13551590.625644272
1.9036977291107178	13732856.238976393
1.9072256088256836	19094148.924308542
1.9107483625411987	19891875.697501432
1.9142658710479736	13817401.22741472
1.9177782535552979	20779613.017064128
1.9212853908538818	14057274.489123156
1.9247875213623047	11281478.24197767
1.9282845258712769	14430582.487943728
1.9317764043807983	12236183.99645906
1.9352631568908691	8355086.090475976
1.9387450218200684	5351023.685461977
1.942221760749817	10858588.508164871
1.9456936120986938	11852911.851162106
1.9491604566574097	12652821.65085878
1.952622413635254	15378888.000437008
1.956079363822937	11229824.616207194
1.959531545639038	10460978.153743323
1.962978720664978	9799565.673205022
1.966421127319336	11296835.864062147
1.9698586463928223	13242064.103752986
1.9732913970947266	16728580.246272327
1.9767193794250488	16146409.255141284
1.9801424741744995	14847193.59241118
1.9835609197616577	16230270.044442194
1.9869745969772339	20440747.25752685
1.990383505821228	14653488.482902283
1.9937876462936401	16379341.83681405
1.9971871376037598	20673210.050709397
2.000581979751587	18052019.852668103
2.003972291946411	20609257.859831776
2.007357597351074	19498315.00182311
2.0107386112213135	17488159.0874973
2.0141148567199707	24582321.95963162
2.017486572265625	22199309.737051997
2.0208535194396973	24057785.555324916
2.0242159366607666	28307053.273039646
2.027573823928833	24012912.19667503
2.0309269428253174	27371393.560648687
2.034275770187378	30180898.60025591
2.0376198291778564	25070245.99453641
2.040959596633911	28874322.054345097
2.044294595718384	31315681.307972603
2.0476250648498535	30311315.582794283
2.0509510040283203	31325334.865241025
2.054272413253784	33550140.00768708
2.057589530944824	38233512.19608542
2.0609018802642822	35016601.33975482
2.0642096996307373	34226916.51949738
2.0675129890441895	37834384.099750325
2.0708119869232178	36726955.81980813
2.074106216430664	36889859.10307605
2.0773961544036865	37256997.60974479
2.080681324005127	38496316.22469643
2.0839622020721436	38653291.68946986
2.087238311767578	38373225.50036497
2.090510129928589	37681818.97328569
2.0937774181365967	36930371.019083254
2.0970399379730225	37323687.47995875
2.1002981662750244	37835084.36137794
2.1035518646240234	37957339.40768045
2.1068007946014404	37746256.70896975
2.1100454330444336	36807263.390479594
2.1132853031158447	35640209.80639991
2.116520881652832	34200225.96593112
2.1197516918182373	34704669.472712636
2.1229779720306396	36225938.0407881
2.12619948387146	36215065.27432653
2.1294167041778564	35629951.95088654
2.132629156112671	35921552.68585395
2.1358368396759033	35270743.57054063
2.139039993286133	35235578.74298089
2.1422386169433594	35428511.03639123
2.145432472229004	34079023.572126165
2.1486217975616455	32503204.549215507
2.151806354522705	31567939.316684794
2.1549863815307617	31548089.18749154
2.1581614017486572	32688430.731760975
2.16133189201355	32349386.30050376
2.1644976139068604	31586038.28620398
2.167658567428589	31317119.207783632
2.1708147525787354	31358898.17675689
2.173966407775879	30186459.330143966
2.1771130561828613	29655797.5885927
2.1802549362182617	28519832.830828477
2.183391809463501	26523801.314215727
2.1865241527557373	26585272.558835156
2.1896514892578125	26640970.17566614
2.1927738189697266	25859033.744002245
2.1958916187286377	22673718.432369247
2.1990041732788086	20640468.609619528
2.2021119594573975	18014197.312228814
2.2052149772644043	16091688.026569434
2.208312749862671	16637670.293515762
2.2114057540893555	17359649.372346643
2.214493751525879	18060032.96684493
2.217576742172241	20245099.25101645
2.2206547260284424	21542113.891496494
2.2237277030944824	20288231.57547378
2.2267956733703613	17449943.80096762
2.2298583984375	16830465.457356725
2.2329163551330566	17713193.476746235
2.235969066619873	17327577.044437133
2.2390167713165283	16083986.291284636
2.2420592308044434	16419934.70049139
2.2450966835021973	16718026.139150191
2.248128890991211	16031439.460774142
2.2511560916900635	15983817.758191448
2.254178285598755	14932699.418474538
2.257194995880127	14942974.273354666
2.260206699371338	15766946.942638988
2.2632133960723877	13162804.107510138
2.266214609146118	11938479.22687573
2.2692108154296875	13110698.899997914
2.2722020149230957	14085377.584526649
2.2751877307891846	14193647.270305103
2.278168201446533	14233872.974836761
2.2811436653137207	14184470.745015617
2.284113883972168	12835106.755027663
2.287078857421875	12015869.262302728
2.290038824081421	11835149.220341526
2.2929933071136475	10836462.573087668
2.295942783355713	10396638.176867943
2.298887014389038	11584818.731024036
2.301826238632202	13159058.21423658
2.304760217666626	14297230.785358867
2.3076889514923096	15267448.869518721
2.310612440109253	15125265.099661563
2.3135311603546143	12369862.264163362
2.3164443969726562	10506301.867372436
2.319352865219116	10245292.732908184
2.322256088256836	9285564.234311396
2.3251543045043945	7846547.656909587
2.328047275543213	7203903.5788185485
2.330935478210449	7935803.579210446
2.3338186740875244	8789047.178835452
2.3366971015930176	9524585.110400164
2.3395702838897705	9850991.478248069
2.3424389362335205	9812038.024202634
2.3453025817871094	9864524.443152927
2.348161458969116	9568193.33713602
2.351015567779541	9437396.646070255
2.353865146636963	10023793.680572376
2.3567099571228027	9520236.284015555
2.3595502376556396	10825674.411599651
2.3623859882354736	12338779.544174625
2.3652172088623047	12261181.014513254
2.368043899536133	9846638.570629213
2.370866537094116	8863336.69433654
2.3736846446990967	10410740.609957205
2.3764986991882324	10472608.57821696
2.3793084621429443	9529311.327239731
2.3821144104003906	9476123.38749097
2.384916305541992	9384930.574794283
2.387714147567749	10469789.637923624
2.3905084133148193	11985465.544458373
2.393299102783203	12117960.637377983
2.3960859775543213	12370892.498566855
2.398869514465332	12611467.566625705
2.4016497135162354	13508241.181835542
2.4044265747070312	13676322.08518945
2.407200336456299	10993001.547069417
2.409970998764038	10065125.990998795
2.4127390384674072	12388590.492473837
2.415503978729248	12798435.216071436
2.418266534805298	12460466.358026883
2.4210267066955566	12326610.058212174
2.4237842559814453	11630447.070724541
2.426539897918701	11050938.146089913
2.429293394088745	11266408.845963772
2.4320452213287354	12205255.065219892
2.4347951412200928	11431958.00715973
2.4375438690185547	10197567.124632187
2.440291166305542	10168269.136100264
2.443037271499634	10386612.295846045
2.445782423019409	10238443.274980556
2.4485268592834473	10567852.779790273
2.451270818710327	10185053.94131731
2.454014539718628	9764015.346346723
2.4567582607269287	10568255.62153007
2.4595019817352295	10976850.651518252
2.4622461795806885	12139632.708213653
2.4649908542633057	12675533.83123513
2.4677364826202393	10438504.298920553
2.4704833030700684	9259593.660903534
2.473231554031372	9426977.688744891
2.4759814739227295	9368440.826201973
