#wavelength	surface flux
0.8	8036323.9397889115
0.8002000000000001	8134016.104206223
0.8004000500000003	8289147.219244509
0.8006001500125003	8404924.655857658
0.8008003000500035	8495970.942395749
0.8010005001250161	8479303.427870821
0.8012007502500472	8556691.188991575
0.8014010504376099	8646679.732226543
0.8016014007002193	8750694.3329715
0.8018018010503944	8838654.55423218
0.8020022515006572	8964671.190451683
0.8022027520635323	9060985.51824648
0.8024033027515483	9176303.102430401
0.8026039035772362	9265413.02703606
0.8028045545531306	9339093.178683564
0.8030052556917691	9452927.130707473
0.803206007005692	9558269.677457707
0.8034068085074435	9623803.828465262
0.8036076602095705	9741089.21779449
0.8038085621246229	9848848.893203655
0.8040095142651542	9965841.437771443
0.8042105166437206	10015965.052100526
0.8044115692728815	10170788.04533409
0.8046126721651998	10215102.286882581
0.8048138253332411	10202844.713608347
0.8050150287895745	10333167.98325759
0.805216282546772	10444938.847789137
0.8054175866174087	10541363.667435205
0.8056189410140631	10677250.697031759
0.8058203457493168	10796639.32723955
0.8060218008357541	10931052.154925209
0.8062233062859632	11028955.799067203
0.8064248621125346	11130548.309426455
0.806626468328063	11271231.421869975
0.8068281249451449	11344816.593541943
0.8070298319763813	11453852.567915428
0.8072315894343755	11534765.948013473
0.8074333973317341	11636875.335579392
0.8076352556810671	11767447.972526457
0.8078371644949874	11865806.440904763
0.8080391237861113	11986965.259691032
0.8082411335670578	12073892.520505775
0.8084431938504498	12165100.006858334
0.8086453046489125	12270789.615778485
0.8088474659750746	12387069.946605757
0.8090496778415686	12481211.386768226
0.809251940261029	12539845.433184562
0.8094542532460944	12651688.175792502
0.8096566168094059	12701259.499475483
0.8098590309636085	12894250.675312942
0.8100614957213493	12922991.18421943
0.8102640110952797	13035675.9613641
0.8104665770980536	13134775.667549914
0.8106691937423283	13271951.103972131
0.8108718610407639	13309680.973347837
0.8110745790060241	13379411.073324637
0.8112773476507757	13527562.994862426
0.8114801669876885	13609689.387660552
0.8116830370294355	13735605.641354952
0.8118859577886929	13929440.182192935
0.8120889292781401	14000886.9930248
0.8122919515104597	13909440.108998863
0.8124950244983374	14168648.625592023
0.8126981482544621	14455074.149604212
0.8129013227915257	14570349.780407157
0.8131045481222237	14626770.762141041
0.8133078242592543	14484934.158806834
0.8135111512153191	14829746.497103678
0.813714529003123	14966266.266844824
0.8139179576353739	15115199.790639644
0.8141214371247829	15233849.390388476
0.8143249674840641	15249657.040202264
0.814528548725935	15408808.251648087
0.8147321808631167	15560026.46277686
0.8149358639083326	15615540.241100693
0.8151395978743097	15629526.894032381
0.8153433827737784	15916723.082773441
0.8155472186194719	15954553.083533915
0.8157511054241268	16018509.289716689
0.815955043200483	16166133.794978658
0.8161590319612831	16251467.615059834
0.8163630717192736	15860181.473411532
0.8165671624872033	16379421.123401329
0.8167713042778252	16532341.6608827
0.8169754971038948	16643751.592986466
0.8171797409781707	16220811.793327207
0.8173840359134155	16519726.461398158
0.8175883819223938	16846846.8995365
0.8177927790178745	16917800.7771763
0.8179972272126291	16883863.79186496
0.8182017265194322	16993108.83776633
0.8184062769510622	15918282.269459397
0.8186108785203001	15066128.996495314
0.8188155312399301	17077352.688756127
0.8190202351227402	17391134.162825502
0.819224990181521	17367175.094516955
0.8194297964290664	17078052.88428734
0.8196346538781738	13924392.153274613
0.8198395625416434	15347613.17598546
0.8200445224322789	17639966.20336228
0.820249533562887	17999225.45434941
0.8204545959462778	18227105.45315989
0.8206597095952644	18330582.60545414
0.8208648745226633	18475203.012490876
0.8210700907412941	18553180.00522581
0.8212753582639793	18718026.646855798
0.8214806771035456	18839466.734612565
0.8216860472728215	18981967.226766244
0.8218914687846397	19056908.26249756
0.822096941651836	19180444.44980074
0.822302465887249	19201411.2292515
0.8225080415037209	19363661.945720125
0.8227136685140968	19389393.3497923
0.8229193469312254	19169941.51072874
0.8231250767679583	19424656.555915322
0.8233308580371503	19630153.2158655
0.8235366907516598	19844403.203991845
0.8237425749243477	19772860.501016386
0.8239485105680789	19992852.11335734
0.824154497695721	20238482.70098823
0.824360536320145	20187132.131297223
0.8245666264542252	20168796.347636092
0.8247727681108388	20256657.12926991
0.8249789613028664	20636986.49615708
0.8251852060431922	20675471.895290926
0.825391502344703	20848793.50451335
0.8255978502202894	20956319.971549794
0.8258042496828445	20965066.835076306
0.8260107007452654	21134092.2125212
0.8262172034204517	21005538.213521816
0.8264237577213068	21111904.940112244
0.8266303636607373	21242694.47218927
0.8268370212516525	21505356.646442395
0.8270437305069654	21617543.238422867
0.8272504914395923	21684310.96134036
0.8274573040624523	21717943.588093426
0.8276641683884679	21869679.778746653
0.8278710844305652	21882465.56530274
0.8280780522016729	22078262.06363695
0.8282850717147234	22016131.770205036
0.8284921429826521	22224261.744266346
0.8286992660183978	22374621.625952482
0.8289064408349024	22402116.233949535
0.8291136674451112	22521832.230189636
0.8293209458619727	22631217.398947094
0.8295282760984382	22595694.885743767
0.829735658167463	22606899.382298894
0.8299430920820048	22830350.395791642
0.8301505778550254	22965677.148979127
0.8303581154994891	23147819.323127124
0.8305657050283641	23197825.313527793
0.8307733464546212	23173976.730341807
0.8309810397912352	23378070.031821452
0.8311887850511829	23442683.726300687
0.8313965822474458	23334154.633385874
0.8316044313930077	23645006.056572765
0.8318123325008561	23810278.056102652
0.8320202855839813	23886162.590356924
0.8322282906553774	24050093.344248116
0.8324363477280413	24118574.439955756
0.8326444568149735	24239540.5379171
0.8328526179291771	24187608.534433268
0.8330608310836596	24386706.485585086
0.8332690962914304	24440987.017168213
0.8334774135655034	24426383.05118122
0.833685782918895	24525476.68942726
0.8338942043646247	24806540.9584837
0.834102677915716	24775757.46271665
0.834311203585195	24960037.046590365
0.8345197813860912	25071317.980128143
0.8347284113314379	25197831.50071119
0.8349370934342709	25185797.2904388
0.8351458277076294	25242724.235114936
0.8353546141645565	25433472.951590184
0.8355634528180977	25356575.524668902
0.8357723436813022	25419438.711959314
0.8359812867672226	24967263.507481586
0.8361902820889144	25761404.24474096
0.8363993296594368	25129267.685731106
0.8366084294918518	25829869.816936973
0.8368175815992247	25823490.193686046
0.8370267859946247	25753298.47235863
0.8372360426911234	25977448.40303672
0.8374453517017962	26264825.869474392
0.8376547130397217	26196450.807110265
0.8378641267179816	26243754.6970431
0.8380735927496613	26546655.35778251
0.8382831111478488	26627249.95202668
0.8384926819256358	26679761.641001828
0.8387023050961173	26721878.624944795
0.8389119806723914	26779923.741784427
0.8391217086675596	27093754.18394505
0.8393314890947265	27223169.131512657
0.8395413219670003	27061469.7893478
0.8397512072974922	27288080.922366492
0.8399611450993165	27309769.82798315
0.8401711353855914	27508499.268775865
0.8403811781694378	27691417.0373001
0.8405912734639802	27541289.19015246
0.8408014212823464	27688156.614474252
0.8410116216376671	27851579.36663493
0.8412218745430766	27751873.383558173
0.8414321800117124	28160289.036607604
0.8416425380567154	28182226.318136152
0.8418529486912297	28197627.963513363
0.8420634119284025	28172100.524245545
0.8422739277813847	28530424.38069621
0.8424844962633302	28636853.090544987
0.842695117387396	28798379.109316964
0.8429057911667428	28867896.575874627
0.8431165176145345	28799326.285252362
0.8433272967439382	28979480.379323978
0.8435381285681244	29137254.08866662
0.8437490131002665	29120094.17020739
0.8439599503535415	29347129.85262226
0.84417094034113	29360793.772242397
0.8443819830762154	29394588.171082716
0.8445930785719846	29507824.103361167
0.8448042268416277	29776290.98509022
0.8450154278983382	29757432.162330545
0.8452266817553128	29844124.126656417
0.8454379884257517	29969389.664218925
0.8456493479228583	29917739.61071948
0.845860760259839	30234796.694845233
0.846072225449904	30354692.448495835
0.8462837435062666	30252290.27441051
0.8464953144421433	30018726.335983917
0.8467069382707537	30380076.528502814
0.8469186150053215	30620017.16880361
0.847130344659073	30618208.073823728
0.8473421272452377	30748957.81012624
0.8475539627770492	30731714.29122472
0.8477658512677435	30886600.979918174
0.8479777927305605	31052673.681973014
0.8481897871787432	31148169.03594486
0.848401834625538	31219739.965945367
0.8486139350841944	31248526.267119486
0.8488260885679657	31288722.868861876
0.8490382950901076	31391903.781188656
0.8492505546638802	31505601.501093373
0.8494628673025462	31494748.863402933
0.8496752330193721	31530613.6471756
0.8498876518276269	31384823.799046744
0.8501001237405839	31600405.598886646
0.8503126487715191	31739980.78303399
0.850525226933712	31819137.371081565
0.8507378582404455	31808748.792809807
0.8509505427050057	31725788.189606834
0.8511632803406821	31613261.158378836
0.8513760711607672	31394332.830914248
0.8515889151785576	30777596.700799424
0.8518018124073523	29178300.234786168
0.8520147628604541	23810861.920958273
0.8522277665511693	8317632.057952215
0.8524408234928071	7057651.842332292
0.8526539336986805	22913892.344095908
0.8528670971821053	29259311.363582082
0.8530803139564007	30696207.94159802
0.8532935840348901	31417455.563359864
0.8535069074308987	32053103.637754183
0.8537202841577566	32429926.44625345
0.8539337142287962	32749189.074439805
0.8541471976573534	32843971.46881501
0.8543607344567677	33146926.43316269
0.8545743246403821	33384139.39009807
0.8547879682215422	33555990.36614065
0.8550016652135977	33693572.25045199
0.8552154156299011	33847435.08007961
0.8554292194838088	33986265.55011898
0.8556430767886797	34047659.63139771
0.855856987557877	34249779.2069197
0.8560709518047664	34385390.87657933
0.8562849695427177	34506952.52424653
0.8564990407851035	34557603.23268564
0.8567131655452999	34296250.4635117
0.8569273438366862	34794419.18320485
0.8571415756726455	34964466.20548541
0.8573558610665638	35018035.78355513
0.8575702000318304	35155358.66494457
0.8577845925818384	35274954.08505846
0.857999038729984	35364317.14010778
0.8582135384896665	35174663.94691629
0.858428091874289	34677033.54129206
0.8586426988972576	34859713.52130514
0.8588573595719821	34989669.55891072
0.8590720739118751	35200283.40556655
0.8592868419303532	35356477.894475624
0.8595016636408359	35517600.37984366
0.8597165390567462	35244633.51689957
0.8599314681915105	35021193.73372403
0.8601464510585584	35203703.549166605
0.860361487671323	35410625.21371717
0.8605765780432408	35653172.36897803
0.8607917221877518	35806280.808942676
0.8610069201182988	35913892.49613571
0.8612221718483286	34673740.16481086
0.8614374773912907	28272079.750383943
0.8616528367606385	31379128.405972153
0.8618682499698288	28626043.358739477
0.8620837170323213	27763995.317253146
0.8622992379615795	31003678.116397884
0.8625148127710699	29258263.00348375
0.8627304414742627	26615934.304132815
0.8629461240846313	33605765.60951784
0.8631618606156526	27238362.55223072
0.8633776510808066	27256060.84052901
0.8635934954935769	27640762.638012826
0.8638093938674504	29648635.492753725
0.8640253462159173	30636812.429253556
0.8642413525524714	30009157.5254502
0.8644574128906095	33093945.57455898
0.8646735272438323	32351206.643869817
0.8648896956256433	29167841.635080595
0.8651059180495498	34422362.979935616
0.8653221945290621	30172244.28626544
0.8655385250776946	35751529.93817554
0.8657549097089641	33943440.21858114
0.8659713484363913	33547578.41115755
0.8661878412735006	32539120.072918255
0.866404388233819	34812724.8376442
0.8666209893308775	32369016.997674283
0.8668376445782103	36667887.0394721
0.8670543539893549	34222513.88660308
0.8672711175778525	35091488.58200212
0.8674879353572469	33222131.5612005
0.8677048073410862	34878524.40528882
0.8679217335429217	36055420.33137144
0.8681387139763074	36021379.82584381
0.8683557486548015	33657989.59177472
0.8685728375919655	32079318.266590305
0.8687899808013633	36242990.66849926
0.8690071782965637	36571167.15140309
0.869224430091138	37826972.576822124
0.8694417361986609	37192023.04611226
0.8696590966327107	32534723.206230316
0.869876511406869	34238777.89923147
0.8700939805347206	34681781.07796109
0.8703115040298544	35963456.16043462
0.870529081905862	34171157.362806894
0.8707467141763385	36385441.92246789
0.8709644008548827	35464143.63154043
0.8711821419550964	34320021.50149577
0.8713999374905854	33970684.37940118
0.871617787474958	37533520.0493139
0.8718356919218269	36815193.20217314
0.8720536508448075	33892127.60146326
0.8722716642575187	35452578.57550946
0.8724897321735832	34697539.930274874
0.8727078546066265	38492520.18752664
0.8729260315702784	36204151.289075226
0.873144263078171	37374780.30967781
0.8733625491439405	38216261.50622527
0.8735808897812266	35597477.638153784
0.8737992850036719	37471125.12000971
0.874017734824923	36639709.23943178
0.8742362392586293	38902337.823142126
0.874454798318444	38809732.45508394
0.8746734120180236	38680763.897603296
0.8748920803710283	39373691.769021176
0.875110803391121	38302283.24677748
0.8753295810919689	36106755.460096605
0.875548413487242	39576377.56652492
0.8757673005906139	38353853.82181285
0.8759862424157616	40641859.91861272
0.8762052389763657	40254160.103789985
0.8764242902861098	38957553.688065685
0.8766433963586814	39945985.16880539
0.8768625572077712	36035871.66937475
0.8770817728470732	35201383.988895625
0.8773010432902849	39334471.53893727
0.8775203685511077	38750623.34975496
0.8777397486432454	42340164.36978382
0.8779591835804065	41583628.14239368
0.8781786733763015	39459288.11833574
0.8783982180446457	40281138.75607281
0.878617817599157	42051868.888770536
0.8788374720535569	39658452.99528493
0.8790571814215703	39954637.186951675
0.8792769457169257	41135974.88298925
0.879496764953355	39100629.94471142
0.8797166391445934	43702250.61741472
0.8799365683043796	43489917.97372526
0.8801565524464557	41953751.76542679
0.8803765915845676	40453200.040397316
0.8805966857324639	41114735.86292895
0.880816834903897	39227181.32266974
0.881037039112623	42966087.27760737
0.8812572983724012	42528228.53209048
0.8814776126969944	40992850.499086484
0.8816979821001687	42454950.57728835
0.8819184065956938	44681869.05822747
0.8821388861973429	44056101.126472995
0.8823594209188923	40416420.012692794
0.882580010774122	41099823.68817649
0.8828006557768155	42126168.00758976
0.8830213559407598	41318020.36120216
0.8832421112797452	45399254.10902021
0.8834629218075651	43299908.28698524
0.8836837875380171	43176326.012887366
0.8839047084849018	44625574.643597975
0.884125684662023	45361275.10160563
0.8843467160831886	45848573.09380511
0.8845678027622095	45277810.49709263
0.8847889447129001	40450916.888094395
0.8850101419490785	44486552.33374525
0.8852313944845657	44227486.72336088
0.885452702333187	46276049.079288654
0.8856740655087704	45820586.31786712
0.8858954840251476	40577134.64422129
0.8861169578961539	43261016.49051141
0.886338487135628	46567620.171800055
0.886560071757412	46626822.24491659
0.8867817117753515	46519507.81855905
0.8870034072032955	45541090.72562504
0.8872251580550963	39497527.46909681
0.8874469643446101	44081958.305209935
0.8876688260856963	45684234.76773741
0.8878907432922178	46955834.054483764
0.8881127159780409	47257279.23391344
0.8883347441570356	46685746.41121841
0.8885568278430749	40548851.26162957
0.8887789670500358	46120923.29099297
0.8890011617917983	47119760.32649452
0.8892234120822464	47649034.334053464
0.8894457179352669	47433949.69367976
0.8896680793647509	45732248.322600216
0.8898904963845921	41698366.1253405
0.8901129690086883	45015419.067656115
0.8903354972509405	47634134.25849422
0.8905580811252535	47663130.5613031
0.8907807206455347	47248963.75249095
0.8910034158256963	46924592.98745432
0.8912261666796527	41164135.07604318
0.8914489732213227	47442303.45423483
0.8916718354646282	47930389.63336318
0.8918947534234944	47390950.888244905
0.8921177271118502	45539779.91706617
0.8923407565436284	46784515.83991232
0.8925638417327644	42379836.54676051
0.8927869826931977	45074311.20057389
0.8930101794388711	46728335.52620042
0.8932334319837308	47025759.584435135
0.8934567403417267	47088193.4352707
0.8936801045268123	46174861.90089296
0.8939035245529441	42859850.45141093
0.8941270004340824	41168621.17062818
0.894350532184191	33204997.73430282
0.8945741198172371	9776580.539322378
0.8947977633471915	27883206.03624693
0.8950214627880284	43773294.519404925
0.8952452181537254	45529345.71493934
0.8954690294582639	42614229.62697894
0.8956928967156286	46917590.0631322
0.8959168199398075	48650122.02091401
0.8961407991447926	49058198.00014454
0.8963648343445789	48975696.92442933
0.896588925553165	47678908.00648966
0.8968130727845534	45583573.697618976
0.8970372760527496	48276271.90897026
0.8972615353717629	48554436.27062655
0.8974858507556059	48701584.63268619
0.8977102222182949	48953171.357727796
0.8979346497738496	49805109.615018815
0.8981591334362931	48783832.8006929
0.8983836732196523	46496414.0682264
0.8986082691379572	48530059.36081613
0.8988329212052417	48734703.13032157
0.8990576294355432	48859078.27617454
0.8992823938429022	49927223.324096665
0.8995072144413631	50443141.77783093
0.8997320912449734	49381119.991310894
0.8999570242677847	48057872.84657979
0.9001820135238516	48224044.12719012
0.9004070590272328	50505870.992931314
0.9006321607919896	51080819.52209376
0.9008573188321878	50702958.328316785
0.9010825331618959	49988848.06510526
0.9013078037951865	50182075.33434236
0.9015331307461353	49907891.11036525
0.9017585140288219	48785426.75098534
0.9019839536573292	50800771.92338494
0.9022094496457435	51817195.69692893
0.9024350020081551	50749883.39696282
0.9026606107586572	51308730.97605672
0.902886275911347	49793198.748509735
0.9031119974803249	50736330.097058736
0.9033377754796951	50584886.49714218
0.903563609923565	51290248.826455764
0.903789500826046	52255103.44608928
0.9040154482012526	52574114.34678341
0.904241452063303	52082388.45086807
0.9044675124263188	51749480.95285707
0.9046936293044254	51907953.29693541
0.9049198027117517	51966705.474039406
0.9051460326624297	52623247.324653625
0.9053723191705955	52933968.768222444
0.9055986622503881	52322926.017989576
0.9058250619159507	52945070.59959092
0.9060515181814298	52426618.20598562
0.9062780310609752	52508478.76124698
0.9065046005687405	52809781.7607469
0.906731226718883	52565733.83848891
0.9069579095255627	53145333.74403738
0.907184649002944	52248208.75330295
0.907411445165195	51320414.004161805
0.9076382980264862	51736938.08827944
0.907865207600993	53384251.28030486
0.9080921739028933	53065104.176626846
0.9083191969463691	50845513.52771632
0.9085462767456058	53385378.585118204
0.9087734133147922	53837519.3668907
0.9090006066681211	53576275.04983361
0.909227856819788	53736150.26492234
0.9094551637839932	53547421.472112454
0.9096825275749393	53661981.59523332
0.9099099482068329	53727292.51575318
0.9101374256938848	53739018.61394389
0.9103649600503083	53911864.249048024
0.9105925512903209	54378710.981452584
0.9108201994281437	51133013.69864462
0.9110479044780008	52317358.5005538
0.9112756664541204	54266622.724887125
0.911503485370734	54012578.88249277
0.9117313612420768	54555442.95434175
0.9119592940823873	53764844.51049634
0.912187283905908	54724735.414332606
0.9124153307268845	54974439.80738286
0.9126434345595664	55090556.09403605
0.9128715954182063	53769124.848593116
0.9130998133170609	53155214.04521356
0.9133280882703902	54002852.18142536
0.913556420292458	55029856.496132396
0.9137848093975312	53833430.93925299
0.9140132555998806	54710185.404526435
0.9142417589137806	55656504.419995315
0.9144703193535092	55015568.877469644
