#wavelength	surface flux
0.8	2180725.844134479
0.8002000000000001	2219783.4378080573
0.8004000500000003	2260626.2941212715
0.8006001500125003	2297731.1468633753
0.8008003000500035	2334056.3023627014
0.8010005001250161	2362253.3287418946
0.8012007502500472	2400138.364270628
0.8014010504376099	2431383.8230267605
0.8016014007002193	2467862.0902826097
0.8018018010503944	2504320.8967714948
0.8020022515006572	2543758.8740688204
0.8022027520635323	2582181.585183858
0.8024033027515483	2622701.3719862597
0.8026039035772362	2659279.478121591
0.8028045545531306	2696090.7062046505
0.8030052556917691	2733392.7793497867
0.803206007005692	2778584.9167606155
0.8034068085074435	2816194.542108975
0.8036076602095705	2862032.439988335
0.8038085621246229	2906643.6402469636
0.8040095142651542	2951675.021302333
0.8042105166437206	2981040.6315399026
0.8044115692728815	3032375.4721894087
0.8046126721651998	3065947.175804209
0.8048138253332411	3107446.490012054
0.8050150287895745	3157306.2760753804
0.805216282546772	3202357.8163434234
0.8054175866174087	3239780.3650309187
0.8056189410140631	3289167.4665828724
0.8058203457493168	3335034.2930276254
0.8060218008357541	3383537.4234315674
0.8062233062859632	3422290.0901563265
0.8064248621125346	3468375.241357858
0.806626468328063	3519037.844665995
0.8068281249451449	3547486.949121727
0.8070298319763813	3592462.0785041344
0.8072315894343755	3630764.165653759
0.8074333973317341	3676812.637410354
0.8076352556810671	3737472.2166371164
0.8078371644949874	3780482.238390615
0.8080391237861113	3834411.722634033
0.8082411335670578	3867777.742053665
0.8084431938504498	3917603.915962702
0.8086453046489125	3966813.890990819
0.8088474659750746	4015812.01886817
0.8090496778415686	4071855.375011814
0.809251940261029	4092778.964827426
0.8094542532460944	4151879.8609875515
0.8096566168094059	4187350.6369337225
0.8098590309636085	4271226.498262818
0.8100614957213493	4291403.999052967
0.8102640110952797	4351091.780603518
0.8104665770980536	4405915.477815241
0.8106691937423283	4472797.193558642
0.8108718610407639	4491664.511421698
0.8110745790060241	4525840.327573976
0.8112773476507757	4610137.004338779
0.8114801669876885	4668656.54179596
0.8116830370294355	4724198.550943215
0.8118859577886929	4831004.397047813
0.8120889292781401	4862990.983880303
0.8122919515104597	4834574.686002025
0.8124950244983374	4942915.438371766
0.8126981482544621	5086849.3200020725
0.8129013227915257	5147533.165197694
0.8131045481222237	5184301.378833122
0.8133078242592543	5097806.227557958
0.8135111512153191	5273391.367682278
0.813714529003123	5346490.215048582
0.8139179576353739	5436578.082830338
0.8141214371247829	5507256.639942273
0.8143249674840641	5514325.081112558
0.814528548725935	5618193.9875202
0.8147321808631167	5703132.438904061
0.8149358639083326	5732007.038589182
0.8151395978743097	5729946.221805393
0.8153433827737784	5907500.172764317
0.8155472186194719	5926371.699236273
0.8157511054241268	5968447.232934268
0.815955043200483	6063512.440639561
0.8161590319612831	6125199.436488739
0.8163630717192736	5913388.85263149
0.8165671624872033	6204338.123298802
0.8167713042778252	6296177.4675972415
0.8169754971038948	6370899.434105995
0.8171797409781707	6127242.56347281
0.8173840359134155	6353813.242388564
0.8175883819223938	6516280.008231831
0.8177927790178745	6548955.254021037
0.8179972272126291	6523436.563271825
0.8182017265194322	6604689.828472843
0.8184062769510622	6228409.633722189
0.8186108785203001	6103678.500785302
0.8188155312399301	6680344.662870579
0.8190202351227402	6852417.799584907
0.819224990181521	6837776.665908091
0.8194297964290664	6713315.768481732
0.8196346538781738	5852070.828069601
0.8198395625416434	6249268.689405247
0.8200445224322789	7032627.556185076
0.820249533562887	7268518.684901611
0.8204545959462778	7426495.315200758
0.8206597095952644	7507903.087751795
0.8208648745226633	7599675.899496532
0.8210700907412941	7661869.83851878
0.8212753582639793	7768577.638057448
0.8214806771035456	7856017.503400064
0.8216860472728215	7948144.684799928
0.8218914687846397	8002286.438730079
0.822096941651836	8089592.404812209
0.822302465887249	8124543.278663814
0.8225080415037209	8225210.597653515
0.8227136685140968	8237963.8893741835
0.8229193469312254	8079126.989791643
0.8231250767679583	8244792.77365879
0.8233308580371503	8398690.764391314
0.8235366907516598	8572645.920996116
0.8237425749243477	8550488.58131853
0.8239485105680789	8698642.625314638
0.824154497695721	8867523.638116375
0.824360536320145	8849235.12524703
0.8245666264542252	8847813.249811979
0.8247727681108388	8964665.349266598
0.8249789613028664	9189604.667469744
0.8251852060431922	9237442.836300096
0.825391502344703	9359086.528378598
0.8255978502202894	9441728.77043334
0.8258042496828445	9453883.462596158
0.8260107007452654	9584014.897248186
0.8262172034204517	9515435.031133082
0.8264237577213068	9606928.661985496
0.8266303636607373	9689113.62084798
0.8268370212516525	9893936.553306494
0.8270437305069654	9981041.596934272
0.8272504914395923	10036431.233186448
0.8274573040624523	10074291.591809897
0.8276641683884679	10181395.486696666
0.8278710844305652	10209670.547164904
0.8280780522016729	10361706.428540446
0.8282850717147234	10333489.592776904
0.8284921429826521	10489116.841160512
0.8286992660183978	10613662.543723868
0.8289064408349024	10627435.789055107
0.8291136674451112	10718083.571129901
0.8293209458619727	10825286.104670504
0.8295282760984382	10806844.253668066
0.829735658167463	10801933.76601032
0.8299430920820048	11005082.764074031
0.8301505778550254	11121921.71821653
0.8303581154994891	11255660.04635993
0.8305657050283641	11310918.49298935
0.8307733464546212	11285600.754170403
0.8309810397912352	11476834.088563243
0.8311887850511829	11550417.498561218
0.8313965822474458	11468894.220497794
0.8316044313930077	11710576.978505833
0.8318123325008561	11825475.819504699
0.8320202855839813	11901223.653382072
0.8322282906553774	12045264.6240049
0.8324363477280413	12095895.737677196
0.8326444568149735	12231087.69668456
0.8328526179291771	12218182.398718836
0.8330608310836596	12361316.043368662
0.8332690962914304	12409263.956013214
0.8334774135655034	12414454.031062024
0.833685782918895	12503316.987655474
0.8338942043646247	12743663.266843008
0.834102677915716	12700419.073662287
0.834311203585195	12886231.045944557
0.8345197813860912	12988809.288481046
0.8347284113314379	13106592.02184068
0.8349370934342709	13112917.8888948
0.8351458277076294	13137592.48797455
0.8353546141645565	13327812.17941817
0.8355634528180977	13258156.753246166
0.8357723436813022	13338438.547824562
0.8359812867672226	13010866.445624104
0.8361902820889144	13650427.371755688
0.8363993296594368	13162449.95481959
0.8366084294918518	13729098.624761272
0.8368175815992247	13745362.0766582
0.8370267859946247	13710088.663758611
0.8372360426911234	13887112.79674252
0.8374453517017962	14142663.898899691
0.8376547130397217	14075475.347801832
0.8378641267179816	14107000.441909168
0.8380735927496613	14407721.354083544
0.8382831111478488	14489766.01136177
0.8384926819256358	14545404.09311181
0.8387023050961173	14578444.20338851
0.8389119806723914	14636451.939249784
0.8391217086675596	14939962.89593682
0.8393314890947265	15071891.4704076
0.8395413219670003	14955596.4794151
0.8397512072974922	15155577.256160682
0.8399611450993165	15159369.072590157
0.8401711353855914	15349404.001929028
0.8403811781694378	15529812.591277443
0.8405912734639802	15420689.767069265
0.8408014212823464	15539816.436912937
0.8410116216376671	15699722.888344556
0.8412218745430766	15702455.412119156
0.8414321800117124	16018236.439784562
0.8416425380567154	16039055.830943935
0.8418529486912297	16082937.022974709
0.8420634119284025	16030079.063914642
0.8422739277813847	16380619.990559954
0.8424844962633302	16501415.688321937
0.842695117387396	16676404.544079946
0.8429057911667428	16746928.04859785
0.8431165176145345	16686390.217643088
0.8433272967439382	16892689.053673003
0.8435381285681244	17014623.11206775
0.8437490131002665	17027988.21689307
0.8439599503535415	17254871.826372027
0.84417094034113	17260828.08853452
0.8443819830762154	17282607.94815687
0.8445930785719846	17440916.766302645
0.8448042268416277	17691697.80797794
0.8450154278983382	17678840.967189327
0.8452266817553128	17780929.886805296
0.8454379884257517	17882732.782694418
0.8456493479228583	17829447.784350753
0.845860760259839	18171752.791695386
0.846072225449904	18311834.017491557
0.8462837435062666	18240834.443018623
0.8464953144421433	18044982.47005008
0.8467069382707537	18373091.856211796
0.8469186150053215	18602496.2042372
0.847130344659073	18601522.55040259
0.8473421272452377	18763079.483174656
0.8475539627770492	18767788.572321687
0.8477658512677435	18911648.78173282
0.8479777927305605	19076858.261430208
0.8481897871787432	19177350.895175237
0.848401834625538	19256620.075352035
0.8486139350841944	19292251.875304423
0.8488260885679657	19326421.772310067
0.8490382950901076	19435641.51664375
0.8492505546638802	19561305.810501013
0.8494628673025462	19553854.367070794
0.8496752330193721	19591414.20862228
0.8498876518276269	19462709.384331033
0.8501001237405839	19660240.733529508
0.8503126487715191	19792027.787321493
0.850525226933712	19841426.437987905
0.8507378582404455	19803114.93803963
0.8509505427050057	19668075.0531251
0.8511632803406821	19484982.45365472
0.8513760711607672	19095170.437286824
0.8515889151785576	18218751.340037987
0.8518018124073523	16244222.244167492
0.8520147628604541	11377880.965146635
0.8522277665511693	3213784.6063287146
0.8524408234928071	2907269.4280252536
0.8526539336986805	10928242.90075716
0.8528670971821053	16338207.258618936
0.8530803139564007	18050466.679953564
0.8532935840348901	18908217.52085782
0.8535069074308987	19649264.413076464
0.8537202841577566	20092543.466630038
0.8539337142287962	20454925.303438846
0.8541471976573534	20582934.875023805
0.8543607344567677	20932580.871472932
0.8545743246403821	21206061.130376834
0.8547879682215422	21418367.10815396
0.8550016652135977	21578853.808436684
0.8552154156299011	21755457.544541195
0.8554292194838088	21927735.529744275
0.8556430767886797	22018766.36509734
0.855856987557877	22254872.145705555
0.8560709518047664	22418365.822983656
0.8562849695427177	22567381.6636301
0.8564990407851035	22644817.290199354
0.8567131655452999	22502445.707370035
0.8569273438366862	22958792.103429265
0.8571415756726455	23174351.047203027
0.8573558610665638	23222108.32934914
0.8575702000318304	23404738.246383265
0.8577845925818384	23580322.48165361
0.857999038729984	23712687.267522287
0.8582135384896665	23492115.34442585
0.858428091874289	22771700.318420865
0.8586426988972576	22944501.897812333
0.8588573595719821	23085536.008461297
0.8590720739118751	23305160.435513936
0.8592868419303532	23474784.989422873
0.8595016636408359	23647286.61931564
0.8597165390567462	23426488.181428764
0.8599314681915105	23213007.654829435
0.8601464510585584	23381633.839331567
0.860361487671323	23568089.001142047
0.8605765780432408	23812629.5083083
0.8607917221877518	23960259.014392897
0.8610069201182988	24061193.65905863
0.8612221718483286	22821766.03211726
0.8614374773912907	17776279.629100908
0.8616528367606385	20249794.010432664
0.8618682499698288	18091531.64627872
0.8620837170323213	17755420.003381647
0.8622992379615795	19778311.25335701
0.8625148127710699	19157177.731320042
0.8627304414742627	16983885.833940443
0.8629461240846313	22415664.052751373
0.8631618606156526	17337757.07717239
0.8633776510808066	17563286.845222596
0.8635934954935769	17909348.24607123
0.8638093938674504	19123393.33905059
0.8640253462159173	19857639.694242373
0.8642413525524714	19076199.13000412
0.8644574128906095	21303352.044298686
0.8646735272438323	21336213.271121036
0.8648896956256433	18510425.042548347
0.8651059180495498	22459813.48336835
0.8653221945290621	19875657.71226647
0.8655385250776946	24088893.404572338
0.8657549097089641	22201780.004721764
0.8659713484363913	22067298.97810204
0.8661878412735006	22222910.158503674
0.866404388233819	23340256.066866454
0.8666209893308775	21667804.873458702
0.8668376445782103	25135358.701200426
0.8670543539893549	22758277.88617674
0.8672711175778525	23366333.513810884
0.8674879353572469	22123168.022944033
0.8677048073410862	23441604.257807557
0.8679217335429217	24256845.774792716
0.8681387139763074	24194635.921613816
0.8683557486548015	22471605.191666897
0.8685728375919655	21271315.15940192
0.8687899808013633	24724863.250034038
0.8690071782965637	24969147.440193053
0.869224430091138	26049152.39378869
0.8694417361986609	25728374.641249184
0.8696590966327107	21974617.659991007
0.869876511406869	23112532.47666014
0.8700939805347206	23883327.455011297
0.8703115040298544	24650773.188291173
0.870529081905862	23274735.24709368
0.8707467141763385	24835120.892097127
0.8709644008548827	23444345.68850763
0.8711821419550964	23238897.173076347
0.8713999374905854	23288806.293679852
0.871617787474958	26391820.17282951
0.8718356919218269	25678107.30336287
0.8720536508448075	23323657.43805184
0.8722716642575187	24180075.4142926
0.8724897321735832	23705954.112003595
0.8727078546066265	26867479.222715337
0.8729260315702784	24588333.32914445
0.873144263078171	26183961.492690913
0.8733625491439405	26946947.36772091
0.8735808897812266	24096016.70212078
0.8737992850036719	26069618.498438995
0.874017734824923	26036567.216591723
0.8742362392586293	27879946.3620049
0.874454798318444	27243563.45749148
0.8746734120180236	26951870.686033998
0.8748920803710283	27959257.022804655
0.875110803391121	26878939.39200347
0.8753295810919689	25003785.051839516
0.875548413487242	28302786.858462054
0.8757673005906139	27919626.01838419
0.8759862424157616	29452557.24186847
0.8762052389763657	29226885.317629784
0.8764242902861098	27739543.1126808
0.8766433963586814	29415649.266327642
0.8768625572077712	26127802.6181238
0.8770817728470732	24924273.614204355
0.8773010432902849	28931756.390372872
0.8775203685511077	28345383.11565585
0.8777397486432454	31682580.514505275
0.8779591835804065	30944848.490072865
0.8781786733763015	28694807.861792
0.8783982180446457	29545911.063069627
0.878617817599157	30765836.692671698
0.8788374720535569	27730995.47958297
0.8790571814215703	29342069.877746284
0.8792769457169257	30659215.831087276
0.879496764953355	29406077.541351225
0.8797166391445934	33571177.8791432
0.8799365683043796	33368982.37938574
0.8801565524464557	31135348.75748558
0.8803765915845676	29711762.847417943
0.8805966857324639	31050672.127232127
0.880816834903897	29031770.080056205
0.881037039112623	32360599.108340688
0.8812572983724012	31743743.168890674
0.8814776126969944	30755827.39215471
0.8816979821001687	32478276.6892839
0.8819184065956938	34790166.29644647
0.8821388861973429	34149547.22958326
0.8823594209188923	30808166.074263826
0.882580010774122	30909212.901376378
0.8828006557768155	31995424.868881535
0.8830213559407598	31362979.160129458
0.8832421112797452	35846946.56915983
0.8834629218075651	32599144.15556147
0.8836837875380171	32411302.385904014
0.8839047084849018	34724699.88189117
0.884125684662023	36273416.73413504
0.8843467160831886	36685651.98461297
0.8845678027622095	36049098.21086194
0.8847889447129001	30114153.9926987
0.8850101419490785	33780407.083152756
0.8852313944845657	33779953.68202427
0.885452702333187	37525465.487995155
0.8856740655087704	36866747.368297786
0.8858954840251476	31755445.71350657
0.8861169578961539	33131687.04365346
0.886338487135628	37973493.933841616
0.886560071757412	38145332.716633804
0.8867817117753515	37894780.84250103
0.8870034072032955	36767434.52134324
0.8872251580550963	30797735.191038225
0.8874469643446101	34480287.789450854
0.8876688260856963	36304974.99458867
0.8878907432922178	38823031.58600479
0.8881127159780409	39357743.32703356
0.8883347441570356	38406559.50767778
0.8885568278430749	30937932.372936893
0.8887789670500358	37280722.69387967
0.8890011617917983	38864630.52427056
0.8892234120822464	39930405.23806087
0.8894457179352669	39421366.8030273
0.8896680793647509	36487502.11272436
0.8898904963845921	32552446.696875356
0.8901129690086883	36867746.626480244
0.8903354972509405	40023517.39157188
0.8905580811252535	40023768.94124179
0.8907807206455347	39187830.05153178
0.8910034158256963	38589083.76415924
0.8912261666796527	32433719.910936397
0.8914489732213227	39473961.426431835
0.8916718354646282	40313684.67183068
0.8918947534234944	39076916.5862002
0.8921177271118502	36566722.46519069
0.8923407565436284	38357990.812177226
0.8925638417327644	32646727.118399277
0.8927869826931977	36358059.814279094
0.8930101794388711	38213721.64271772
0.8932334319837308	38389304.99698276
0.8934567403417267	38999388.89316982
0.8936801045268123	37331194.804529294
0.8939035245529441	33158924.407966517
0.8941270004340824	29460274.718708906
0.894350532184191	20157793.15922619
0.8945741198172371	4692090.230201203
0.8947977633471915	14912497.869285107
0.8950214627880284	31192537.48185471
0.8952452181537254	35346069.15610485
0.8954690294582639	32741781.131011043
0.8956928967156286	38095168.19752662
0.8959168199398075	41050002.145403676
0.8961407991447926	41909957.96593651
0.8963648343445789	41804595.327584766
0.896588925553165	39821610.50924959
0.8968130727845534	37200989.82439519
0.8970372760527496	39339208.63359728
0.8972615353717629	40904514.13509314
0.8974858507556059	40839097.454894416
0.8977102222182949	41513452.453897156
0.8979346497738496	43163504.431541726
0.8981591334362931	41161577.954112045
0.8983836732196523	37572892.801520735
0.8986082691379572	41619766.6963185
0.8988329212052417	41902223.714420356
0.8990576294355432	41589385.82318663
0.8992823938429022	43033843.48691956
0.8995072144413631	43888763.16321034
0.8997320912449734	41913303.74354661
0.8999570242677847	41239764.97566996
0.9001820135238516	40006822.53919488
0.9004070590272328	43888218.07739143
0.9006321607919896	45031708.1424727
0.9008573188321878	44588552.407288305
0.9010825331618959	43396328.10814046
0.9013078037951865	42531858.944253154
0.9015331307461353	42953980.429910116
0.9017585140288219	42189550.23531727
0.9019839536573292	44551122.7261571
0.9022094496457435	46291806.6619918
0.9024350020081551	44758670.10582955
0.9026606107586572	45439078.438869424
0.902886275911347	42295830.04389386
0.9031119974803249	43377048.51326906
0.9033377754796951	44141471.2522505
0.903563609923565	45561672.51134269
0.903789500826046	47100522.47372607
0.9040154482012526	47509737.76458281
0.904241452063303	46139999.36638812
0.9044675124263188	45077069.17658996
0.9046936293044254	45589236.03587552
0.9049198027117517	45643141.55382865
0.9051460326624297	47324413.64614814
0.9053723191705955	47925787.160801
0.9055986622503881	46823308.09152067
0.9058250619159507	47814446.799303025
0.9060515181814298	45962907.08198389
0.9062780310609752	46726986.70874248
0.9065046005687405	46971907.166282535
0.906731226718883	46702949.92999772
0.9069579095255627	48060113.81220289
0.907184649002944	46781006.93319957
0.907411445165195	45664314.94374546
0.9076382980264862	46203988.31801567
0.907865207600993	47998883.41686527
0.9080921739028933	47697680.37706248
0.9083191969463691	45153579.85715236
0.9085462767456058	48593545.96943765
0.9087734133147922	49236947.9990331
0.9090006066681211	48503417.32011805
0.909227856819788	48822317.63724334
0.9094551637839932	48175783.99148102
0.9096825275749393	48698240.406995066
0.9099099482068329	48408447.420290254
0.9101374256938848	48785952.29232295
0.9103649600503083	48785390.02033124
0.9105925512903209	50311810.29710112
0.9108201994281437	45272138.97336107
0.9110479044780008	46897180.32278608
0.9112756664541204	49729885.43860666
0.911503485370734	49279289.458682634
0.9117313612420768	50248930.81791462
0.9119592940823873	48768870.054491475
0.912187283905908	50477563.51195386
0.9124153307268845	51029329.16281059
0.9126434345595664	51133948.48375355
0.9128715954182063	48685478.64355541
0.9130998133170609	47753150.781582184
0.9133280882703902	48757805.55611154
0.913556420292458	50931171.267623775
0.9137848093975312	48794673.98119423
0.9140132555998806	49884546.481050834
0.9142417589137806	51806529.427096434
0.9144703193535092	50182161.56558609
