#wavelength	surface flux
0.6450077295303345	623422.1499104006
0.6472567915916443	646278.6345829257
0.6494921445846558	676078.9659115366
0.6517150402069092	698194.8245456464
0.6539263725280762	722564.5754753468
0.6561272740364075	751543.6498520903
0.6583186388015747	778591.3169299171
0.6605015397071838	801425.7553013266
0.6626768708229065	828211.4254499843
0.6648455858230591	860369.1230982726
0.6670085787773132	881802.78775962
0.6691668033599854	909136.0651800263
0.6713210344314575	918122.0670627306
0.6734722256660461	966633.9337863572
0.6756211519241333	995923.4689606717
0.6777685880661011	1021689.1256106466
0.6799154281616211	1057257.8740226007
0.6820623278617859	1089464.6993376422
0.6842101216316223	1121450.263973929
0.6863595843315125	1153739.6714115145
0.688511312007904	1191555.3604192275
0.6906660795211792	1237536.0483234925
0.6928245425224304	1274369.262425865
0.6949873566627502	1313931.472395552
0.6971551775932312	1359217.9470746352
0.6993286609649658	1401345.3708655569
0.7015084028244019	1441822.6203838757
0.7036949396133423	1478133.1432451298
0.7058889269828796	1529921.5586171506
0.7080909013748169	1564045.0243447376
0.710301399230957	1611727.8594338081
0.712520956993103	1657068.9788813118
0.7147500514984131	1695942.6665507865
0.7169892191886902	1743862.8680779669
0.7192389369010925	1787598.5101980593
0.7214996814727783	1834614.8626395403
0.723771870136261	1886224.6793717488
0.7260559797286987	1936348.5831798436
0.7283523678779602	1989363.192062981
0.7306615710258484	2051164.2913034924
0.7329838871955872	2113112.982946983
0.7353196740150452	2175692.416479351
0.7376693487167358	2253144.5669140816
0.7400332689285278	2330444.1105184625
0.7424117922782898	2384900.2880450157
0.7448052167892456	2455707.0631151646
0.7472138404846191	2526791.118664538
0.7496379613876343	2598091.87321308
0.7520779371261597	2665156.3095284225
0.7545340061187744	2732897.996057978
0.7570064663887024	2803118.318210035
0.7594954967498779	2868025.6273319717
0.7620013952255249	2942243.506454033
0.7645244002342224	3014484.7834773473
0.7670646905899048	2843677.226655888
0.7696225643157959	3020630.8165974296
0.7721980810165405	3256271.888522481
0.7747915983200073	3333439.496335897
0.7774031162261963	3427105.243462548
0.7800329327583313	2908234.7994984956
0.7826811671257019	3617055.31289702
0.7853479981422424	3732711.240004862
0.7880334854125977	3856515.458587887
0.7907378077507019	3974873.326075086
0.7934610247612	4083927.8534236155
0.7962033748626709	4194519.203814184
0.7989648580551147	4293660.317574295
0.801745593547821	4402833.94794501
0.8045456409454346	4550957.792835248
0.8073651194572449	4657581.126818956
0.8102040886878967	4778868.45408806
0.8130625486373901	4913580.512804348
0.8159406185150146	5042064.369313147
0.8188382983207703	5182319.722061762
0.8217556476593018	5297429.3822017405
0.8246926665306091	5449658.97888315
0.8276493549346924	5569152.206981258
0.8306257724761963	5724787.335814001
0.8336219191551208	5858882.161930917
0.8366377949714661	6033881.334604325
0.8396733403205872	6192633.272360106
0.8427285552024841	6344491.770931494
0.8458034992218018	6436679.104289298
0.8488980531692505	6604345.963563525
0.8520121574401855	6789121.907583103
0.8551458716392517	7000847.533664214
0.8582990765571594	7176831.827707946
0.8614717125892639	7369256.96215305
0.8646637797355652	7567738.003894665
0.8678751587867737	7745756.345391243
0.8711057901382446	7936758.243005659
0.8743556141853333	8132613.474652658
0.87762451171875	8338650.260259293
0.8809124231338501	8569444.379354922
0.8842192888259888	8785227.909166306
0.8875449895858765	8930491.193303052
0.8908893465995789	9178866.740111837
0.894252359867096	9393977.701072166
0.8976338505744934	9649392.476966925
0.9010337591171265	9947075.688306145
0.9044519662857056	10261101.848948881
0.9078882932662964	10531577.314252183
0.9113426208496094	10786984.93939635
0.914814829826355	11395786.255246889
0.9183048605918884	11886896.253438454
0.9218124747276306	11572118.942447819
0.925337553024292	11743958.56345808
0.9288799166679382	11964680.954342838
0.9324395060539246	12202875.229155554
0.9360161423683167	12461366.86324097
0.9396095871925354	12775817.698235398
0.943219780921936	13059690.799194416
0.9468464851379395	13543340.930358734
0.9504896402359009	13585173.712443314
0.9541489481925964	14070978.15518363
0.9578243494033813	14295831.594905699
0.9615156054496765	14492639.546649639
0.9652225375175476	14791368.585076515
0.9689450263977051	15175499.769813241
0.9726828336715698	15569485.463515397
0.9764357805252075	16002451.105090683
0.9802037477493286	16625350.037245668
0.983986496925354	16869286.686197717
0.9877838492393494	17480417.057572577
0.9915955662727356	17594642.200631823
0.9954215884208679	18513958.85441003
0.9992615580558777	18301363.292354442
1.0031154155731201	19243760.075921923
1.0069829225540161	19604181.858062774
1.0108637809753418	19659341.815003157
1.0147579908370972	19920401.704019804
1.018665075302124	20480195.687433165
1.022585153579712	21404459.102657642
1.0265177488327026	20942938.58133435
1.0304628610610962	22110138.048146427
1.0344202518463135	22845687.365620676
1.0383895635604858	23478158.974483933
1.0423706769943237	23606731.14998763
1.0463634729385376	23592329.11108426
1.0503677129745483	23394619.794262733
1.0543830394744873	23826530.49834941
1.058409333229065	24497152.96377495
1.0624464750289917	24439002.819792084
1.0664942264556885	24642608.5928678
1.0705522298812866	26743660.742249887
1.0746204853057861	27425422.055797774
1.0786986351013184	28438187.112353615
1.0827864408493042	29350713.683063928
1.086883783340454	29401222.734783277
1.0909905433654785	30536489.008909326
1.0951062440872192	30323024.514373586
1.0992310047149658	30174830.49585497
1.10336434841156	31255271.17679316
1.1075061559677124	29933762.698396124
1.1116561889648438	31574339.69141517
1.115814208984375	31065322.846435796
1.1199802160263062	32532909.265400704
1.124153733253479	34078319.937702425
1.1283347606658936	33663631.16795117
1.1325229406356812	34696516.13047964
1.1367181539535522	34263638.29985958
1.1409201622009277	35380228.16685481
1.145128846168518	36511602.99468965
1.1493438482284546	37655863.653956786
1.1535650491714478	38103417.39975668
1.1577922105789185	39245958.113178395
1.1620250940322876	37396763.08216683
1.1662636995315552	39364378.86778631
1.170507550239563	37832159.83681292
1.174756646156311	38066559.39589844
1.1790107488632202	37587823.74518003
1.1832695007324219	39641422.16844944
1.1875330209732056	39042063.18343686
1.191800832748413	39771045.691528425
1.1960728168487549	40896600.86568259
1.2003488540649414	41577970.93646329
1.2046287059783936	42481128.98585771
1.2089121341705322	45191350.74434883
1.2131990194320679	46705893.90076439
1.2174891233444214	45918347.26577922
1.2217823266983032	46929082.7645797
1.2260783910751343	50567615.6344748
1.230377197265625	50956057.57357463
1.2346785068511963	50561139.26763177
1.238982081413269	51803101.770770185
1.2432878017425537	50725876.36540364
1.2475954294204712	52445635.71902073
1.2519049644470215	52211416.08481686
1.256216049194336	53434483.27561798
1.2605286836624146	55515730.147115
1.2648425102233887	55893146.057646364
1.2691574096679688	59790138.14227313
1.2734732627868652	58834019.387238495
1.2777899503707886	59584796.97337878
1.2821072340011597	60386141.707516484
1.2864248752593994	60253344.74104809
1.2907428741455078	61041121.6539383
1.2950609922409058	62489662.10418812
1.2993791103363037	64690634.47424826
1.303696870803833	63578334.839690596
1.3080145120620728	61446432.87510129
1.3123314380645752	65183993.3681904
1.3166478872299194	63697275.42549238
1.3209635019302368	66763490.72255901
1.3252781629562378	62054387.99399191
1.3295916318893433	62540538.13182025
1.3339040279388428	57195252.6322469
1.3382149934768677	53033011.42672223
1.3425244092941284	53575425.38680264
1.3468321561813354	54861517.83960322
1.3511382341384888	59967541.29526598
1.3554422855377197	57119780.15293406
1.3597444295883179	55529416.13241602
1.3640443086624146	56046486.95217471
1.3683418035507202	58056729.862664506
1.3726370334625244	58845002.25705886
1.3769296407699585	59332396.64302172
1.381219506263733	55649182.429841705
1.3855066299438477	47665315.68077573
1.3897908926010132	59799096.72651217
1.3940720558166504	60087187.7299985
1.3983501195907593	63394743.34197328
1.4026249647140503	60545556.92973569
1.4068963527679443	58211408.10506975
1.4111642837524414	54106747.03542167
1.4154287576675415	62366461.10629738
1.419689416885376	58315476.54162002
1.4239463806152344	59274016.29577414
1.4281994104385376	61068508.79256217
1.4324485063552856	63148913.09998632
1.436693549156189	63859896.50679937
1.440934419631958	66385237.24543235
1.4451709985733032	64852593.36733137
1.449403166770935	66967154.34157982
1.453631043434143	66887749.51050121
1.4578542709350586	68142634.67481738
1.4620729684829712	65942133.88933069
1.4662868976593018	64532244.425648026
1.4704961776733398	65465961.39851385
1.4747005701065063	66397118.00249545
1.4788999557495117	67834567.86917214
1.4830944538116455	69584512.31097564
1.4872838258743286	69584116.33812284
1.491468071937561	70096638.24390152
1.4956470727920532	70763687.73992172
1.4998208284378052	69773632.77539693
1.5039892196655273	71968232.28218876
1.5081522464752197	75093482.51938199
1.5123097896575928	76276659.23496333
1.5164618492126465	76317215.56025092
1.5206083059310913	75091547.63659309
1.5247491598129272	76261297.9426187
1.5288842916488647	74784306.57598329
1.5330137014389038	78412070.51394759
1.5371372699737549	77264045.20195635
1.541254997253418	74879363.52032407
1.545366883277893	81423913.40433134
1.5494728088378906	78284658.65343826
1.5535727739334106	83711586.31132735
1.5576666593551636	81484384.39904812
1.561754584312439	81312646.66125385
1.5658363103866577	82028579.3207401
1.5699119567871094	86957078.31003924
1.5739814043045044	86760447.60673787
1.5780447721481323	91813600.24268298
1.582101821899414	87151936.08513092
1.5861525535583496	88769184.39672205
1.5901970863342285	92380685.76328778
1.5942351818084717	91399922.37979718
1.5982669591903687	93749410.82887314
1.6022924184799194	100926981.24995847
1.606311559677124	97503671.0676945
1.6103241443634033	96811529.24264044
1.6143304109573364	100913154.2364503
1.6183301210403442	104113865.35773456
1.6223233938217163	103845686.09522244
1.6263102293014526	102762318.15216625
1.6302905082702637	103855984.1480423
1.634264349937439	105770806.25630765
1.638231635093689	104893425.60381627
1.6421923637390137	107594478.11738618
1.646146535873413	112544354.37357563
1.6500942707061768	105192127.68582171
1.6540353298187256	113824002.9602549
1.6579699516296387	108811441.77132335
1.661897897720337	115195870.49383663
1.6658192873001099	114052801.66458291
1.6697341203689575	116883298.36382362
1.6736423969268799	117020620.40111412
1.677544116973877	114493324.11096017
1.6814392805099487	123598577.02227223
1.6853278875350952	120636281.75971451
1.6892099380493164	117818973.37990284
1.6930854320526123	114827544.98499982
1.696954369544983	110113949.61917543
1.7008168697357178	114072680.5014449
1.7046726942062378	121305926.34856196
1.708522081375122	120902993.11930422
1.712364912033081	112413934.12440231
1.7162011861801147	113303787.67533961
1.7200311422348022	109526590.223685
1.723854422569275	109286024.90234444
1.7276713848114014	109302718.3376422
1.731481909751892	103505723.25912805
1.7352858781814575	109314337.81696783
1.7390835285186768	107637648.56956585
1.7428747415542603	105608093.93383043
1.7466596364974976	105853570.26294358
1.7504380941390991	110484937.10007088
1.7542102336883545	94502730.88104211
1.7579760551452637	86732894.14905925
1.7617355585098267	95662902.42881155
1.7654887437820435	94595586.88155316
1.7692357301712036	99228331.3683721
1.7729763984680176	99883536.00810552
1.776710867881775	84796212.640906
1.7804391384124756	84276101.29515582
1.7841613292694092	85383278.73676625
1.7878772020339966	86463355.0548508
1.7915871143341064	90512266.7300351
1.7952908277511597	92728367.8421462
1.7989884614944458	91929211.46831757
1.8026801347732544	91906419.30322516
1.806365728378296	93092038.68958504
1.8100452423095703	91975224.00352359
1.8137187957763672	95699275.94499189
1.817386507987976	87067964.80423698
1.8210482597351074	87056712.53485341
1.8247040510177612	94999268.40122083
1.828354001045227	92631826.49914694
1.8319982290267944	89438178.88233283
1.8356364965438843	77722421.88883199
1.8392690420150757	90076188.06105718
1.8428958654403687	94365923.25161752
1.8465168476104736	92164488.46902205
1.8501322269439697	94737209.24298117
1.8537418842315674	95280016.18801558
1.8573459386825562	90586634.95779052
1.860944390296936	84602781.19904384
1.864537239074707	78273422.9242334
1.8681244850158691	70276026.8179607
1.871706247329712	81878957.95711061
1.8752825260162354	87272685.70913652
1.8788533210754395	94003101.91178757
1.8824186325073242	100726977.00529578
1.8859784603118896	96715593.6857438
1.8895330429077148	98742989.590966
1.8930821418762207	88501571.4074664
1.8966259956359863	89401067.3895058
1.9001644849777222	93907487.54026306
1.9036977291107178	97698595.58761169
1.9072256088256836	100617861.91210109
1.9107483625411987	105103570.81170067
1.9142658710479736	104106858.03952111
1.9177782535552979	104037958.0983679
1.9212853908538818	104411732.23268145
1.9247875213623047	98038211.51750918
1.9282845258712769	99750497.81190906
1.9317764043807983	102471214.55870123
1.9352631568908691	90969108.62632594
1.9387450218200684	92196359.00547637
1.942221760749817	97953279.59331761
1.9456936120986938	97038325.16127358
1.9491604566574097	105187819.23099773
1.952622413635254	104235730.19727725
1.956079363822937	93221627.30987485
1.959531545639038	94795232.99800676
1.962978720664978	96093284.49098772
1.966421127319336	92777308.18113822
1.9698586463928223	95150677.28372754
1.9732913970947266	99496481.49416104
1.9767193794250488	97594249.12911342
1.9801424741744995	99813835.03966925
1.9835609197616577	95091250.70946234
1.9869745969772339	98179511.13376197
1.990383505821228	104567127.68035346
1.9937876462936401	109065699.11644015
1.9971871376037598	109982826.89241025
2.000581979751587	100515380.0153592
2.003972291946411	99078993.57076974
2.007357597351074	97746716.84387186
2.0107386112213135	98085820.23415077
2.0141148567199707	105672132.89638592
2.017486572265625	100508668.9786409
2.0208535194396973	98426431.91743384
2.0242159366607666	104673630.87564409
2.027573823928833	101135507.88870855
2.0309269428253174	107444650.04081869
2.034275770187378	102531982.58691975
2.0376198291778564	93491084.14879611
2.040959596633911	99835324.33223231
2.044294595718384	107569183.49674805
2.0476250648498535	103936529.53800604
2.0509510040283203	101569009.67523941
2.054272413253784	108271212.40830295
2.057589530944824	117243233.4407376
2.0609018802642822	111742692.43060505
2.0642096996307373	106003498.0889713
2.0675129890441895	107880980.72193113
2.0708119869232178	104459294.57058054
2.074106216430664	108932922.67404503
2.0773961544036865	109669284.10926445
2.080681324005127	109070436.8991946
2.0839622020721436	109074740.30993055
2.087238311767578	109333593.70341079
2.090510129928589	107275588.63674302
2.0937774181365967	104293276.77009565
2.0970399379730225	107220294.74975476
2.1002981662750244	114288077.42465627
2.1035518646240234	113580805.14346565
2.1068007946014404	114357614.9401159
2.1100454330444336	116347111.6672182
2.1132853031158447	112961475.08564562
2.116520881652832	108305937.49754347
2.1197516918182373	107655523.03702202
2.1229779720306396	115546539.60232621
2.12619948387146	121279126.29379016
2.1294167041778564	114434449.28548233
2.132629156112671	117939879.46350773
2.1358368396759033	121194913.48589666
2.139039993286133	122427102.64955904
2.1422386169433594	128831272.11027877
2.145432472229004	125143765.60041302
2.1486217975616455	123128641.59844477
2.151806354522705	118351535.61510289
2.1549863815307617	118082298.9301155
2.1581614017486572	121237221.30233303
2.16133189201355	116967002.32481405
2.1644976139068604	118744256.78941347
2.167658567428589	122325533.38622807
2.1708147525787354	128577633.04834874
2.173966407775879	127219480.52597861
2.1771130561828613	125267756.77668843
2.1802549362182617	129818520.3475399
2.183391809463501	135055848.6738047
2.1865241527557373	134517736.96700436
2.1896514892578125	130810268.99890134
2.1927738189697266	128275983.62880276
2.1958916187286377	123795533.1690393
2.1990041732788086	127367829.30226232
2.2021119594573975	128946137.1232384
2.2052149772644043	129061565.02820498
2.208312749862671	131785734.47738492
2.2114057540893555	132819721.10332812
2.214493751525879	128726961.55944853
2.217576742172241	126246500.70489149
2.2206547260284424	129824689.11482523
2.2237277030944824	129916344.97302517
2.2267956733703613	123286106.50853819
2.2298583984375	123815276.25888325
2.2329163551330566	131295750.60336155
2.235969066619873	133241315.56283315
2.2390167713165283	128328816.99003872
2.2420592308044434	127201531.92214051
2.2450966835021973	126513725.62484859
2.248128890991211	125738999.80947909
2.2511560916900635	130638246.30828376
2.254178285598755	133182441.46047086
2.257194995880127	135405420.59597036
2.260206699371338	137747006.13607284
2.2632133960723877	135350216.2063054
2.266214609146118	135720823.69508275
2.2692108154296875	137159890.19785622
2.2722020149230957	131741394.16625752
2.2751877307891846	125132548.58229795
2.278168201446533	126546278.09864351
2.2811436653137207	133421277.50583687
2.284113883972168	128250419.47032003
2.287078857421875	124252602.60051696
2.290038824081421	121697016.54856727
2.2929933071136475	123081324.4879889
2.295942783355713	127292665.33618174
2.298887014389038	125604202.12844822
2.301826238632202	125851459.32506445
2.304760217666626	133005149.85677513
2.3076889514923096	133195562.89037679
2.310612440109253	120735620.66927594
2.3135311603546143	112528600.89204927
2.3164443969726562	118347626.88512519
2.319352865219116	120553823.505109
2.322256088256836	109747083.61804031
2.3251543045043945	102878517.2252329
2.328047275543213	100328263.15173301
2.330935478210449	104134094.04151535
2.3338186740875244	112244475.69926684
2.3366971015930176	113027290.81503016
2.3395702838897705	111035513.68995628
2.3424389362335205	115022880.05731438
2.3453025817871094	114902946.20109375
2.348161458969116	111722337.84209217
2.351015567779541	104864354.58087312
2.353865146636963	102050954.00170024
2.3567099571228027	106662669.79050277
2.3595502376556396	110899563.63439155
2.3623859882354736	113341368.49895445
2.3652172088623047	107557517.97192143
2.368043899536133	96161555.39026558
2.370866537094116	107276331.07164249
2.3736846446990967	120546181.96670967
2.3764986991882324	115023623.2902769
2.3793084621429443	106512838.56365049
2.3821144104003906	109271889.2762793
2.384916305541992	111238947.51989181
2.387714147567749	112700072.18252861
2.3905084133148193	111305753.88601086
2.393299102783203	107034438.37126635
2.3960859775543213	110332480.58000979
2.398869514465332	109441623.28253178
2.4016497135162354	106682770.29181665
2.4044265747070312	106637215.96718793
2.407200336456299	96170722.68813238
2.409970998764038	83101055.17766008
2.4127390384674072	88071795.07317333
2.415503978729248	97999610.13016334
2.418266534805298	102160269.97133695
2.4210267066955566	99302871.51573768
2.4237842559814453	91441648.15113156
2.426539897918701	89091102.6166291
2.429293394088745	89594371.59610227
2.4320452213287354	92706579.98743656
2.4347951412200928	97356725.91337737
2.4375438690185547	96138496.96205476
2.440291166305542	88014735.06065913
2.443037271499634	85576824.78824857
2.445782423019409	90119158.55712518
2.4485268592834473	95535312.02707395
2.451270818710327	95075603.029569
2.454014539718628	90435630.3151085
2.4567582607269287	88642871.74921274
2.4595019817352295	87262387.40370917
2.4622461795806885	91685073.3285957
2.4649908542633057	97803726.74512047
2.4677364826202393	94589128.05668002
2.4704833030700684	89625028.74895069
2.473231554031372	91265547.60515301
2.4759814739227295	94084669.97259197
2.4787333011627197	89212652.40297253
2.481487512588501	83039785.81000422
