#wavelength	surface flux
0.8	303574.68565048935
0.8002000000000001	307372.46181614813
0.8004000500000003	311887.85409105726
0.8006001500125003	316411.6142529812
0.8008003000500035	320936.505354946
0.8010005001250161	325462.52767968836
0.8012007502500472	329989.6815100054
0.8014010504376099	333788.4346224266
0.8016014007002193	337343.7663215285
0.8018018010503944	340899.98685355525
0.8020022515006572	344457.0964407166
0.8022027520635323	348015.0953052716
0.8024033027515483	351960.3520288555
0.8026039035772362	356285.2210008361
0.8028045545531306	360611.1711900599
0.8030052556917691	364938.2028668332
0.803206007005692	369266.3163015218
0.8034068085074435	373568.70355199167
0.8036076602095705	377797.019047066
0.8038085621246229	382026.3916210107
0.8040095142651542	386256.82153810153
0.8042105166437206	390488.3090626702
0.8044115692728815	394722.34188183595
0.8046126721651998	399021.409880932
0.8048138253332411	403321.5526470244
0.8050150287895745	407622.7704488123
0.805216282546772	411925.0635550495
0.8054175866174087	416228.43223456095
0.8056189410140631	420111.44789932924
0.8058203457493168	423876.1426182725
0.8060218008357541	427641.77851089067
0.8062233062859632	431408.3558124839
0.8064248621125346	435175.87475839985
0.806626468328063	439444.0499161398
0.8068281249451449	444142.4862763814
0.8070298319763813	448842.0972457189
0.8072315894343755	453542.88311779517
0.8074333973317341	458244.8441863412
0.8076352556810671	462130.245136613
0.8078371644949874	464048.1912806247
0.8080391237861113	465966.6169111728
0.8082411335670578	467885.5221481274
0.8084431938504498	469804.90711139323
0.8086453046489125	471616.7843980967
0.8088474659750746	471418.5804484734
0.8090496778415686	471220.3269478624
0.809251940261029	471022.02388387645
0.8094542532460944	470823.6712441243
0.8096566168094059	470625.2690162125
0.8098590309636085	472108.00091904454
0.8100614957213493	473984.59828450246
0.8102640110952797	475861.66479930194
0.8104665770980536	477739.2005807309
0.8106691937423283	479617.20574610593
0.8108718610407639	481508.80267950584
0.8110745790060241	483410.90642077016
0.8112773476507757	485313.48568797146
0.8114801669876885	487216.5405999891
0.8116830370294355	489120.07127573364
0.8118859577886929	490127.12743816455
0.8120889292781401	489271.4301704697
0.8122919515104597	488415.51897845796
0.8124950244983374	487559.3938086482
0.8126981482544621	486703.05460754613
0.8129013227915257	486255.2399944113
0.8131045481222237	490487.4337206854
0.8133078242592543	494720.68549539155
0.8135111512153191	498954.9955830402
0.813714529003123	503190.36424821126
0.8139179576353739	507426.7917555494
0.8141214371247829	517362.674273374
0.8143249674840641	528406.0555735255
0.814528548725935	539452.1977189954
0.8147321808631167	550501.1014000166
0.8149358639083326	561552.7673069546
0.8151395978743097	569904.802379578
0.8153433827737784	576433.0748602835
0.8155472186194719	582962.9794091068
0.8157511054241268	589494.5164340661
0.815955043200483	596027.6863432862
0.8161590319612831	605692.5933885729
0.8163630717192736	621095.4504100647
0.8165671624872033	636502.1581457948
0.8167713042778252	651912.717558474
0.8169754971038948	667327.129611014
0.8171797409781707	679829.2330706854
0.8173840359134155	669053.8360840734
0.8175883819223938	658275.7452482271
0.8177927790178745	647494.9598896658
0.8179972272126291	636711.4793347621
0.8182017265194322	625925.3029097304
0.8184062769510622	636429.1462396587
0.8186108785203001	650212.2494208352
0.8188155312399301	663998.7983777884
0.8190202351227402	677788.7939719963
0.819224990181521	691582.2370650938
0.8194297964290664	704241.3302361432
0.8196346538781738	716217.7822837449
0.8198395625416434	728197.2284443538
0.8200445224322789	740179.6694665079
0.820249533562887	752165.1060989139
0.8204545959462778	762672.1414366432
0.8206597095952644	770797.5340018368
0.8208648745226633	778924.9579151779
0.8210700907412941	787054.4136844962
0.8212753582639793	795185.9018177484
0.8214806771035456	801687.4103323974
0.8216860472728215	798135.3589270702
0.8218914687846397	794582.4195088913
0.822096941651836	791028.5918558561
0.822302465887249	787473.8757459096
0.8225080415037209	783918.2709569338
0.8227136685140968	780406.1509735546
0.8229193469312254	776898.1903033034
0.8231250767679583	773389.3526428837
0.8233308580371503	769879.6377730506
0.8235366907516598	766369.0454744976
0.8237425749243477	780749.370789663
0.8239485105680789	804616.2572021742
0.824154497695721	828489.1103362731
0.824360536320145	852367.9316836601
0.8245666264542252	876252.7227363829
0.8247727681108388	892958.0145595768
0.8249789613028664	899376.5366566308
0.8251852060431922	905796.6633842147
0.825391502344703	912218.3951434777
0.8255978502202894	918641.7323356863
0.8258042496828445	925804.9362068839
0.8260107007452654	936555.3466625583
0.8262172034204517	947308.4447208355
0.8264237577213068	958064.2310536302
0.8266303636607373	968822.7063330129
0.8268370212516525	979583.8712312101
0.8270437305069654	979075.7879656968
0.8272504914395923	977686.7489470962
0.8274573040624523	976297.3626687406
0.8276641683884679	974907.6290438167
0.8278710844305652	973517.5479854848
0.8280780522016729	979716.328108281
0.8282850717147234	989385.6711695443
0.8284921429826521	999057.4315665631
0.8286992660183978	1008731.6099036887
0.8289064408349024	1018408.2067853917
0.8291136674451112	1025256.5796092019
0.8293209458619727	1028537.3652837409
0.8295282760984382	1031818.9711546944
0.829735658167463	1035101.3974271193
0.8299430920820048	1038384.6443061082
0.8301505778550254	1041704.6308216125
0.8303581154994891	1045168.809881879
0.8305657050283641	1048633.854986914
0.8307733464546212	1052099.7663532225
0.8309810397912352	1055566.5441973782
0.8311887850511829	1059034.188735988
0.8313965822474458	1079053.3655508289
0.8316044313930077	1099845.751088322
0.8318123325008561	1120643.3347222188
0.8320202855839813	1141446.117752014
0.8322282906553774	1162254.1014775683
0.8324363477280413	1171977.6869013521
0.8326444568149735	1177239.069264243
0.8328526179291771	1182501.766972718
0.8330608310836596	1187765.7803556283
0.8332690962914304	1193031.1097418773
0.8334774135655034	1191918.4321757737
0.833685782918895	1183679.562838962
0.8338942043646247	1175438.6337848213
0.834102677915716	1167195.644498411
0.834311203585195	1158950.594464686
0.8345197813860912	1154996.093322381
0.8347284113314379	1165489.930760804
0.8349370934342709	1175986.391658581
0.8351458277076294	1186485.4766715697
0.8353546141645565	1196987.186455829
0.8355634528180977	1207491.52166753
0.8357723436813022	1207496.9194939472
0.8359812867672226	1207372.6511190943
0.8361902820889144	1207248.351677148
0.8363993296594368	1207124.0211603409
0.8366084294918518	1206999.6595609046
0.8368175815992247	1221491.8705954854
0.8370267859946247	1241021.8131348938
0.8372360426911234	1260556.638159931
0.8374453517017962	1280096.3468912223
0.8376547130397217	1299640.940549694
0.8378641267179816	1313885.164840206
0.8380735927496613	1322868.7576088365
0.8382831111478488	1331854.5962756537
0.8384926819256358	1340842.6814021328
0.8387023050961173	1349833.0135499015
0.8389119806723914	1357266.1236146751
0.8391217086675596	1360312.2347440459
0.8393314890947265	1363359.1074011966
0.8395413219670003	1366406.7417765118
0.8397512072974922	1369455.138060423
0.8399611450993165	1372508.3145097822
0.8401711353855914	1375761.7899937336
0.8403811781694378	1379016.0788465552
0.8405912734639802	1382271.181271591
0.8408014212823464	1385527.0974722342
0.8410116216376671	1388783.8276519275
0.8412218745430766	1392505.435470142
0.8414321800117124	1396362.998248407
0.8416425380567154	1400221.5254173684
0.8418529486912297	1404081.017218123
0.8420634119284025	1407941.4738918245
0.8422739277813847	1433272.15191841
0.8424844962633302	1477524.410448074
0.842695117387396	1521787.7320423143
0.8429057911667428	1566062.1194669546
0.8431165176145345	1610347.5754884726
0.8433272967439382	1636616.6195571101
0.8435381285681244	1618918.2000530364
0.8437490131002665	1601215.355944091
0.8439599503535415	1583508.0861241291
0.84417094034113	1565796.3894866996
0.8443819830762154	1549588.8169667136
0.8445930785719846	1563767.102393611
0.8448042268416277	1577948.9323918577
0.8450154278983382	1592134.307847602
0.8452266817553128	1606323.2296472092
0.8454379884257517	1620515.6986772679
0.8456493479228583	1650025.149260279
0.845860760259839	1683229.6360209254
0.846072225449904	1716442.4239032615
0.8462837435062666	1749663.5149825753
0.8464953144421433	1782892.911334678
0.8467069382707537	1805749.8530719914
0.8469186150053215	1820521.023905663
0.847130344659073	1835295.8875320475
0.8473421272452377	1850074.444874324
0.8475539627770492	1864856.6968559509
0.8477658512677435	1879260.625478358
0.8479777927305605	1892856.9882066667
0.8481897871787432	1906456.750025654
0.848401834625538	1920059.9117851036
0.8486139350841944	1933666.4743349848
0.8488260885679657	1945880.7078856602
0.8490382950901076	1941084.5339814718
0.8492505546638802	1936287.1610338048
0.8494628673025462	1931488.5887429027
0.8496752330193721	1926688.8168089208
0.8498876518276269	1921887.844931962
0.8501001237405839	1864931.2163179475
0.8503126487715191	1797549.4030502425
0.850525226933712	1730150.744329258
0.8507378582404455	1662735.235943594
0.8509505427050057	1595302.8736807946
0.8511632803406821	1541729.130682092
0.8513760711607672	1497644.1554029386
0.8515889151785576	1453548.1588798969
0.8518018124073523	1409441.1383577613
0.8520147628604541	1365323.0910805212
0.8522277665511693	1355405.3442940158
0.8524408234928071	1408754.8375475574
0.8526539336986805	1462117.6681744265
0.8528670971821053	1515493.839508956
0.8530803139564007	1568883.3548862562
0.8532935840348901	1628041.0511273206
0.8535069074308987	1735816.0462970524
0.8537202841577566	1843617.9852156672
0.8539337142287962	1951446.8746190234
0.8541471976573534	2059302.7212446635
0.8543607344567677	2167185.5318319793
0.8545743246403821	2209797.7036290606
0.8547879682215422	2242050.5217672186
0.8550016652135977	2274311.403109907
0.8552154156299011	2306580.3496729326
0.8554292194838088	2338857.363472623
0.8556430767886797	2362212.7575115026
0.855856987557877	2380152.1190765225
0.8560709518047664	2398095.965481922
0.8562849695427177	2416044.2978489297
0.8564990407851035	2433997.1172990347
0.8567131655452999	2449996.1844983688
0.8569273438366862	2462790.609125877
0.8571415756726455	2475588.2323595444
0.8573558610665638	2488389.054999025
0.8575702000318304	2501193.0778441513
0.8577845925818384	2514649.1830878058
0.857999038729984	2532161.804587205
0.8582135384896665	2549678.804241975
0.858428091874289	2567200.1831466593
0.8586426988972576	2584725.942396065
0.8588573595719821	2602256.0830852897
0.8590720739118751	2619368.1583591616
0.8592868419303532	2636434.7037762194
0.8595016636408359	2653505.515829631
0.8597165390567462	2670580.595586051
0.8599314681915105	2687659.9441124136
0.8601464510585584	2697946.991839454
0.860361487671323	2704629.039079145
0.8605765780432408	2711312.7568306443
0.8607917221877518	2717998.1455115867
0.8610069201182988	2724685.205539698
0.8612221718483286	2729695.528349568
0.8614374773912907	2732287.450051513
0.8616528367606385	2734880.0197338825
0.8618682499698288	2737473.237558674
0.8620837170323213	2740067.1036879215
0.8622992379615795	2745706.9448880674
0.8625148127710699	2766418.3506923257
0.8627304414742627	2787134.934348037
0.8629461240846313	2807856.697149666
0.8631618606156526	2828583.6403919966
0.8633776510808066	2849315.7653701343
0.8635934954935769	2866315.406199548
0.8638093938674504	2883012.913600343
0.8640253462159173	2899714.5953779873
0.8642413525524714	2916420.452576076
0.8644574128906095	2933130.4862384605
0.8646735272438323	2948072.092577407
0.8648896956256433	2962193.1239545727
0.8651059180495498	2976317.6855895836
0.8653221945290621	2990445.7783649894
0.8655385250776946	3004577.403163609
0.8657549097089641	3023600.8550860537
0.8659713484363913	3048887.1540411334
0.8661878412735006	3074179.7745709633
0.866404388233819	3099478.7182559227
0.8666209893308775	3124783.986676791
0.8668376445782103	3146777.022665764
0.8670543539893549	3155230.834024312
0.8672711175778525	3163686.758835706
0.8674879353572469	3172144.797628293
0.8677048073410862	3180604.950930581
0.8679217335429217	3189067.2192712002
0.8681387139763074	3205653.1148033515
0.8683557486548015	3222646.6128155165
0.8685728375919655	3239644.3592022057
0.8687899808013633	3256646.355025455
0.8690071782965637	3273652.6013476816
0.869224430091138	3295050.7553867665
0.8694417361986609	3318239.590707305
0.8696590966327107	3341434.2232366684
0.869876511406869	3364634.6544241654
0.8700939805347206	3387840.885719448
0.8703115040298544	3411673.036732022
0.870529081905862	3436220.120232133
0.8707467141763385	3460773.340503111
0.8709644008548827	3485332.699079155
0.8711821419550964	3509898.197494828
0.8713999374905854	3533077.95101236
0.871617787474958	3551459.6170104994
0.8718356919218269	3569845.8784251553
0.8720536508448075	3588236.7364051663
0.8722716642575187	3606632.1920996616
0.8724897321735832	3625032.2466580886
0.8727078546066265	3637333.8658930273
0.8729260315702784	3649545.713344988
0.873144263078171	3661760.613758798
0.8733625491439405	3673978.5678977133
0.8735808897812266	3686199.576525168
0.8737992850036719	3692339.4739044225
0.874017734824923	3696325.994524162
0.8742362392586293	3700313.5117740543
0.874454798318444	3704302.025903259
0.8746734120180236	3708291.537160996
0.8748920803710283	3716860.5875848993
0.875110803391121	3730032.7784944265
0.8753295810919689	3743208.2624516883
0.875548413487242	3756387.0402799393
0.8757673005906139	3769569.112802648
0.8759862424157616	3785714.8749881852
0.8762052389763657	3810430.7137810015
0.8764242902861098	3835152.7315334994
0.8766433963586814	3859880.929790442
0.8768625572077712	3884615.310096956
0.8770817728470732	3909163.3703953857
0.8773010432902849	3918687.372106132
0.8775203685511077	3928213.75481732
0.8777397486432454	3937742.519124174
0.8779591835804065	3947273.6656221165
0.8781786733763015	3956807.1949066706
0.8783982180446457	3962764.380837811
0.878617817599157	3967658.4517530818
0.8788374720535569	3972553.7461860785
0.8790571814215703	3977450.2644426823
0.8792769457169257	3982348.0068288506
0.879496764953355	3979564.829922864
0.8797166391445934	3969874.205439135
0.8799365683043796	3960181.1582992845
0.8801565524464557	3950485.687897649
0.8803765915845676	3940787.793628404
0.8805966857324639	3940959.2128829374
0.880816834903897	3965925.52141576
0.881037039112623	3990898.071525725
0.8812572983724012	4015876.8647732157
0.8814776126969944	4040861.902719029
0.8816979821001687	4064584.1539869765
0.8819184065956938	4058439.086870326
0.8821388861973429	4052292.4834868903
0.8823594209188923	4046144.3434526147
0.882580010774122	4039994.666383333
0.8828006557768155	4033843.451894781
0.8830213559407598	4035834.5537257134
0.8832421112797452	4039874.4153100206
0.8834629218075651	4043915.286859722
0.8836837875380171	4047957.1686273115
0.8839047084849018	4052000.0608653435
0.884125684662023	4065472.9908796293
0.8843467160831886	4086505.4500842243
0.8845678027622095	4107543.1674036207
0.8847889447129001	4128586.144152351
0.8850101419490785	4149634.3816452646
0.8852313944845657	4169258.0263911434
0.885452702333187	4185756.800249674
0.8856740655087704	4202259.6988016665
0.8858954840251476	4218766.723078293
0.8861169578961539	4235277.87411098
0.886338487135628	4247424.1966183465
0.886560071757412	4201434.076642933
0.8867817117753515	4155432.459137527
0.8870034072032955	4109419.3412277238
0.8872251580550963	4063394.720038497
0.8874469643446101	4017358.5926939445
0.8876688260856963	4012911.002387899
0.8878907432922178	4017071.9628542513
0.8881127159780409	4021233.9635607176
0.8883347441570356	4025397.0047673658
0.8885568278430749	4029561.086734311
0.8887789670500358	4017049.030417306
0.8890011617917983	3992703.494621057
0.8892234120822464	3968351.8724408485
0.8894457179352669	3943994.1623551142
0.8896680793647509	3919630.3628418394
0.8898904963845921	3897916.0910230693
0.8901129690086883	3881263.380913351
0.8903354972509405	3864606.5076261098
0.8905580811252535	3847945.470120534
0.8907807206455347	3831280.267355604
0.8910034158256963	3806176.5912460955
0.8912261666796527	3705689.5419207425
0.8914489732213227	3605177.37083303
0.8916718354646282	3504640.071702446
0.8918947534234944	3404077.6382471775
0.8921177271118502	3303490.064183607
0.8923407565436284	3125888.7010843996
0.8925638417327644	2935683.996691474
0.8927869826931977	2745431.7411223873
0.8930101794388711	2555131.9224894205
0.8932334319837308	2364784.528901826
0.8934567403417267	2252287.546027681
0.8936801045268123	2188166.8746264046
0.8939035245529441	2124030.173057322
0.8941270004340824	2059877.4373128216
0.894350532184191	1995708.6633844017
0.8945741198172371	2032407.3417689907
0.8947977633471915	2236418.436703628
0.8950214627880284	2440480.5344119905
0.8952452181537254	2644593.647644659
0.8954690294582639	2848757.7891557585
0.8956928967156286	3039410.2308725584
0.8959168199398075	3142092.979148003
0.8961407991447926	3244801.398110542
0.8963648343445789	3347535.494177819
0.896588925553165	3450295.273769055
0.8968130727845534	3553080.7433052016
0.8970372760527496	3587601.616718009
0.8972615353717629	3613586.6295182365
0.8974858507556059	3639578.138571667
0.8977102222182949	3665576.145502354
0.8979346497738496	3691580.6519347876
0.8981591334362931	3853350.9102774514
0.8983836732196523	4089405.153257033
0.8986082691379572	4325518.409797204
0.8988329212052417	4561690.694651511
0.8990576294355432	4797922.022577235
0.8992823938429022	4940953.803735919
0.8995072144413631	4945357.649154514
0.8997320912449734	4949762.5955344625
0.8999570242677847	4954168.643151004
0.9001820135238516	4958575.79227945
0.9004070590272328	4954246.447111315
0.9006321607919896	4904110.5599890845
0.9008573188321878	4853962.138895022
0.9010825331618959	4803801.18069571
0.9013078037951865	4753627.68225684
0.9015331307461353	4703441.6404433865
0.9017585140288219	4870951.722443275
0.9019839536573292	5057255.494038884
0.9022094496457435	5243605.841577255
0.9024350020081551	5430002.7767027235
0.9026606107586572	5616446.311061913
0.902886275911347	5745281.6419478245
0.9031119974803249	5846355.548000155
0.9033377754796951	5947454.722529
0.903563609923565	6048579.171851432
0.903789500826046	6149728.902286262
0.9040154482012526	6211939.785777391
0.904241452063303	6223691.588046723
0.9044675124263188	6235446.328266621
0.9046936293044254	6247204.007171571
0.9049198027117517	6258964.625496253
0.9051460326624297	6274102.640042148
0.9053723191705955	6303613.658043258
0.9055986622503881	6333132.053798841
0.9058250619159507	6362657.829153364
0.9060515181814298	6392190.985951744
0.9062780310609752	6421731.526039303
0.9065046005687405	6222462.829432649
0.906731226718883	6010379.3128202185
0.9069579095255627	5798242.775328914
0.907184649002944	5586053.203703219
0.907411445165195	5373810.584684403
0.9076382980264862	5504493.281223529
0.907865207600993	5777646.932852024
0.9080921739028933	6050868.872893347
0.9083191969463691	6324159.118419636
0.9085462767456058	6597517.68650744
0.9087734133147922	6712650.022839541
0.9090006066681211	6644978.950193129
0.909227856819788	6577290.959778644
0.9094551637839932	6509586.047366463
0.9096825275749393	6441864.208726199
0.9099099482068329	6355642.313883216
0.9101374256938848	6203709.5141849145
0.9103649600503083	6051738.7312867595
0.9105925512903209	5899729.955692911
0.9108201994281437	5747683.177905004
0.9110479044780008	5595598.388422823
0.9112756664541204	5821993.501291855
0.911503485370734	6057109.4214781
0.9117313612420768	6292284.120644394
0.9119592940823873	6527517.613485406
0.912187283905908	6762809.914699704
0.9124153307268845	6731516.273555495
0.9126434345595664	6603438.344953494
0.9128715954182063	6475328.396869464
0.9130998133170609	6347186.421298348
0.9133280882703902	6219012.410233349
0.913556420292458	6196262.237184766
0.9137848093975312	6282264.584301675
0.9140132555998806	6368288.432005352
0.9142417589137806	6454333.78567096
0.9144703193535092	6540400.65067504
