#wavelength	surface flux
0.7	159472.11518607746
0.7001166666666666	159695.9037087214
0.7002333527777778	159613.87638590237
0.700350058336574	159531.83539186293
0.7004667833462966	159449.78072432458
0.7005835278101878	159367.71238100808
0.7007002917314895	159285.6303596345
0.7008170751134447	159203.534657924
0.7009338779592968	159121.42527359663
0.7010507002722901	159051.25631878586
0.7011675420556689	158995.62303164703
0.701284403312678	158939.98047229374
0.7014012840465635	158884.32863918052
0.7015181842605713	158828.66753076177
0.701635103957948	158772.99714549165
0.701752043141941	158717.317481824
0.701869001815798	158661.62853821233
0.7019859799827672	158886.08753244276
0.7021029776460976	159305.55758614247
0.7022199948090387	159725.09755151835
0.7023370314748403	160144.7074402216
0.7024540876467528	160564.38726390622
0.702571163328027	160984.13703422746
0.7026882585219152	161403.95676284484
0.7028053732316688	161823.84646141643
0.7029225074605406	162447.5678297587
0.7030396612117841	163150.0748842093
0.7031568344886527	163852.6990231691
0.7032740272944008	164555.4402661516
0.7033912396322832	165258.29863267497
0.7035084715055552	165961.2741422587
0.7036257229174727	166664.3668144277
0.7037429938712924	167367.57666870934
0.7038602843702709	167432.57535178907
0.7039775944176659	167389.3197047662
0.7040949240167356	167346.05684846884
0.7042122731707383	167302.7867816954
0.7043296418829335	167259.5095032442
0.7044470301565806	167216.22501191322
0.70456443799494	167172.9333065004
0.7046818654012724	167129.6343858033
0.7047993123788394	167707.3711743597
0.7049167789309024	168285.9169266972
0.7050342650607243	168864.55910332763
0.7051517707715678	169443.29772032058
0.7052692960666963	170022.13279374942
0.705386840949374	170601.06433969023
0.7055044054228656	171180.092374223
0.7056219894904361	171675.92126231472
0.7057395931553511	171642.49779295264
0.705857216420877	171609.06875301228
0.7059748592902804	171575.6341415653
0.7060925217668288	171542.19395768305
0.70621020385379	171508.74820043682
0.7063279055544321	171475.29686889777
0.7064456268720246	171441.83996213673
0.7065633678098366	171479.40267191865
0.7066811283711383	171712.57632525513
0.7067989085592001	171945.78884086717
0.7069167083772933	172179.04022523167
0.7070345278286895	172412.33048482705
0.707152366916661	172645.65962613243
0.7072702256444803	172879.02765562772
0.7073881040154211	173112.43457979494
0.7075060020327569	173453.28250790294
0.7076239196997625	173950.6020133654
0.7077418570197124	174448.00440541157
0.7078598139958823	174945.48969785642
0.7079777906315483	175443.05790451713
0.7080957869299869	175940.70903921194
0.7082138028944751	176438.44311576223
0.7083318385282908	176936.26014799235
0.7084498938347124	177007.8675973378
0.708567968817018	176718.06744484522
0.7086860634784875	176428.21899232687
0.7088041778224007	176138.32223173286
0.7089223118520377	175848.37715501245
0.7090404655706796	175558.3837541128
0.709158638981608	175268.34202097927
0.709276832088105	174978.25194755686
0.7093950448934531	175133.99797131703
0.7095132774009353	175502.41705503044
0.7096315296138355	175870.8975419246
0.7097498015354378	176239.43944223315
0.7098680931690269	176608.04276619141
0.7099864045178884	176976.70752403745
0.7101047355853081	177345.4337260097
0.7102230863745722	177714.22138234874
0.7103414568889679	178080.37506390357
0.7104598471317828	178445.9773037377
0.7105782571063047	178811.64047727818
0.7106966868158224	179177.36459468093
0.710815136263625	179543.14966610316
0.7109336054530023	179908.9957017042
0.7110520943872445	180274.90271164436
0.7111706030696424	180640.87070608643
0.7112891315034873	180594.81252278129
0.7114076796920712	180529.08479732028
0.7115262476386865	180463.34611723837
0.7116448353466263	180397.59648070982
0.711763442819184	180331.83588590848
0.711882070059654	180266.06433100798
0.7120007170713306	180200.28181418168
0.7121193838575091	180138.53040444487
0.7122380704214853	180118.92646702664
0.7123567767665555	180099.31926228557
0.7124755028960166	180079.708789677
0.7125942488131658	180060.09504865637
0.7127130145213015	180040.47803867882
0.7128318000237216	180020.8577591997
0.7129506053237256	180001.23420967392
0.7130694304246129	179984.21946864642
0.7131882753296837	179976.334640513
0.7133071400422386	179968.44849824157
0.7134260245655789	179960.56104161308
0.7135449289030065	179952.6722704085
0.7136638530578235	179944.78218440872
0.7137827970333332	179936.8907833946
0.7139017608328388	179928.99806714698
0.7140207444596443	179904.73778733864
0.7141397479170543	179851.27770184842
0.7142587712083737	179797.80870634402
0.7143778143369084	179744.33079934033
0.7144968773059646	179690.84397935215
0.7146159601188489	179637.34824489398
0.7147350627788687	179583.84359448004
0.7148541852893318	179530.3300266244
0.7149733276535467	179287.18484759194
0.7150924898748222	178852.78785981206
0.715211671956468	178418.31847253413
0.7153308739017941	177983.7766736913
0.715450095714111	177549.16245121555
0.71556933739673	177114.47579303596
0.7156885989529628	176679.7166870801
0.7158078803861218	176244.8851212726
0.7159271816995193	175166.40510309063
0.7160465028964692	173710.00638942947
0.7161658439802853	172253.36494264944
0.7162852049542819	170796.48072229524
0.7164045858217744	169339.35368790338
0.716523986586078	167881.98379900644
0.7166434072505089	166424.37101512874
0.716762847818384	164966.51529578652
0.7168823082930204	163937.30835936486
0.7170017886777359	163034.1080187239
0.7171212889758488	162130.7571446934
0.7172408091906781	161227.25571218366
0.7173603493255433	160323.60369610152
0.7174799093837642	159419.80107135055
0.7175994893686615	158515.84781282843
0.7177190892835562	157611.74389543026
0.7178387091317702	158148.09857458877
0.7179583489166254	158829.15514369137
0.7180780086414448	159510.3252222227
0.7181976883095517	160191.60882910038
0.7183173879242699	160873.00598324597
0.718437107488924	161554.5167035841
0.7185568470068389	162236.14100904248
0.7186766064813399	162890.9184662831
0.7187963859157535	162871.7343305803
0.7189161853134061	162852.54699752157
0.719036004677625	162833.35646657398
0.7191558440117378	162814.1627372046
0.7192757033190732	162794.96580888028
0.7193955826029597	162775.76568106795
0.7195154818667269	162756.56235323427
0.7196354011137046	162726.04378017446
0.7197553403472235	162643.43744498107
0.7198752995706147	162560.8173420652
0.7199952787872098	162478.1834691321
0.720115278000341	162395.53582388686
0.7202352972133411	162312.87440403405
0.7203553364295432	162230.19920727808
0.7204753956522815	162147.51023132255
0.7205954748848902	162393.54496155152
0.7207155741307044	163364.36399371937
0.7208356933930594	164335.34482905755
0.7209558326752915	165306.4874945352
0.7210759919807375	166277.79201712503
0.7211961713127342	167249.2584238007
0.7213163706746197	168220.8867415457
0.7214365900697322	169192.67699734264
0.7215568295014103	169470.64189975098
0.721677088972994	168920.6093475937
0.7217973684878227	168370.48512334534
0.7219176680492374	167820.2692117256
0.7220379876605789	167269.96159745427
0.722158327325189	166719.562265247
0.7222786870464099	166169.071199818
0.7223990668275843	165618.48838587786
0.7225194666720555	165089.9005708755
0.7226398865831676	164576.87809959668
0.7227603265642646	164063.7701245739
0.722880786618692	163550.57663155417
0.7230012667497951	163037.29760628595
0.7231217669609201	162523.93303451344
0.7232422872554135	162010.48290197944
0.7233628276366229	161496.94719442245
0.7234833881078956	161707.26935091853
0.7236039686725803	162192.47995206583
0.7237245693340255	162677.77142164588
0.7238451900955812	163163.14377313844
0.7239658309605971	163648.59702002234
0.7240864919324239	164134.13117578134
0.7242071730144127	164619.74625389968
0.724327874209915	165105.44226786334
0.7244485955222832	163681.24759783174
0.7245693369548704	161941.01788883246
0.7246900985110294	160200.49814155092
0.7248108801941148	158459.6883076402
0.7249316820074803	156718.58833876302
0.7250525039544815	154977.19818655483
0.7251733460384739	153235.51780265433
0.7252942082628137	151496.81456123883
0.7254150906308574	151651.0696490931
0.7255359931459625	151805.35044612864
0.7256569158114868	151959.65695663044
0.7257778586307888	152113.98918488403
0.7258988216072273	152268.34713517566
0.7260198047441617	152422.73081179216
0.7261408080449525	152577.14021902168
0.72626183151296	152737.6852774905
0.7263828751515454	152938.86099313598
0.7265039389640706	153140.07023806733
0.726625022953898	153341.31301787298
0.7267461271243904	153542.58933814205
0.7268672514789111	153743.89920446434
0.7269883960208241	153945.24262243081
0.7271095607534942	154146.6195976338
0.7272307456802866	154250.5292364931
0.7273519508045666	154091.08273086525
0.7274731761297006	153931.60965081985
0.7275944216590555	153772.10999192778
0.7277156873959987	153612.5837497592
0.7278369733438982	153453.03091988328
0.727958279506122	153293.4514978695
0.7280796058860397	153133.8454792852
0.7282009524870207	152579.07965698335
0.7283223193124353	151439.77536491366
0.7284437063656539	150300.28118879758
0.7285651136500483	149160.59709698366
0.7286865411689898	148020.72305782343
0.7288079889258514	146880.65903965392
0.7289294569240056	145740.40501081734
0.7290509451668262	144599.9609396413
0.7291724536576875	143739.10830003282
0.7292939823999636	143109.9412802027
0.7294155313970303	142480.66939920138
0.7295371006522632	141851.2926395534
0.7296586901690385	141221.8109837793
0.7297802999507332	140592.22441439616
0.7299019300007252	139962.53291391648
0.7300235803223919	139332.73646485512
0.7301452509191123	139130.50449487992
0.7302669417942654	139125.63796985854
0.7303886529512311	139120.77063374966
0.7305103843933897	139115.90248641808
0.7306321361241218	139111.03352772864
0.7307539081468093	139106.16375754605
0.7308757004648336	139101.2931757351
0.7309975130815778	139096.42178216053
0.7311193460004248	139277.990547581
0.7312411992247582	139501.797430161
0.7313630727579622	139725.64161388806
0.7314849666034219	139949.5231049793
0.7316068807645224	140173.44190965226
0.7317288152446498	140397.3980341261
0.7318507700471907	140621.39148462078
0.7319727451755319	140845.42226735712
0.732094740633061	140338.58076650606
0.7322167564231665	139798.7490094069
0.7323387925492371	139258.82728034817
0.7324608490146619	138718.81556433477
0.732582925822831	138178.71384636857
0.7327050229771347	137638.52211144997
0.7328271404809642	137098.24034457502
0.7329492783377112	136567.54320867648
0.7330714365507675	136131.8699461489
0.7331936151235259	135696.124071411
0.7333158140593796	135260.30557236116
0.7334380333617229	134824.41443689412
0.7335602730339499	134388.4506529043
0.7336825330794556	133952.41420828376
0.7338048135016354	133516.30509092327
0.7339271143038857	133221.1249955994
0.734049435489603	133398.34810714188
0.7341717770621846	133575.60075586964
0.7342941390250283	133752.88294670542
0.7344165213815324	133930.19468457295
0.734538924135096	134107.53597439703
0.7346613472891185	134284.90682110254
0.734783790847	134462.3072296159
0.7349062548121412	134234.28910992693
0.7350287391879431	133289.58692061796
0.7351512439778078	132344.72728094217
0.7352737691851374	131399.7101646609
0.735396314813335	130454.5355455261
0.7355188808658037	129509.20339728968
0.7356414673459482	128563.71369369327
0.7357640742571725	127618.06640848026
0.7358867016028818	126861.11756492424
0.7360093493864824	126290.55494324761
0.7361320176113801	125719.8972278015
0.736254706280982	125149.14440273613
0.7363774153986956	124578.29645219917
0.7365001449679286	124007.3533603383
0.7366228949920899	123436.31511129497
0.7367456654745885	122865.18168921016
0.7368684564188344	122336.0018210099
0.7369912678282374	121830.49881943535
0.7371140997062088	121324.91156736034
0.7372369520561599	120819.24005074284
0.7373598248815024	120313.48425554037
0.7374827181856494	119807.64416770452
0.7376056319720137	119301.71977318733
0.7377285662440091	118795.71105793765
0.7378515210050496	117872.12818358096
0.7379744962585505	116822.7813912645
0.738097492007927	115773.25970781625
0.7382205082565949	114723.56310408807
0.738343545007971	113673.69155092615
0.7384666022654723	112623.64501917097
0.7385896800325165	111573.4234796621
0.7387127783125219	110523.02690322865
0.7388358971089073	110700.92430565982
0.7389590364250921	111002.0698520086
0.7390821962644963	111303.265589282
0.7392053766305403	111604.5115258445
0.7393285775266454	111905.80767006331
0.7394517989562333	112207.15403030645
0.7395750409227259	112508.55061494249
0.7396983034295463	112774.4631160552
0.739821586480118	112249.93262511896
0.7399448900778645	111725.31471243528
0.7400682142262109	111200.60936343124
0.740191558928582	110675.81656353624
0.7403149241884034	110150.93629817502
0.7404383100091014	109625.96855276942
0.7405617163941028	109100.91331273994
0.7406851433468352	108522.8875518217
0.7408085908707264	107702.8383927162
0.7409320589692048	106882.65255875127
0.7410555476456997	106062.33002714667
0.7411790569036406	105241.87077512074
0.7413025867464579	104421.2747798859
0.7414261371775823	103600.54201865164
0.7415497082004452	102779.67246862447
0.7416732998184786	101962.29441958305
0.741796912035115	101152.56358570809
0.7419205448537874	100342.69779669435
0.7420441982779297	99532.69703004914
0.742167872310976	98722.56126327539
0.7422915669563612	97912.29047387387
0.7424152822175206	97101.884639341
0.7425390180978901	96291.34373716955
0.7426627746009065	95667.26039865855
0.7427865517300065	95270.54285282885
0.7429103494886282	94873.75918740775
0.7430341678802096	94476.90939137607
0.7431580069081896	94079.99345371174
0.7432818665760077	93683.01136339057
0.7434057468871037	93285.963109388
0.7435296478449182	92888.84868067667
0.7436535694528923	92355.56540962588
0.7437775117144678	91729.02681489616
0.7439014746330868	91102.38379706827
0.7440254582121922	90475.63633873686
0.7441494624552276	89848.78442249548
0.7442734873656368	89221.82803093486
0.7443975329468645	88594.76714664181
0.7445215992023557	87967.60175220146
0.7446456861355559	87280.2203755938
0.7447697937499119	86570.58097162336
0.7448939220488703	85860.82329441911
0.7450180710358784	85150.94732426926
0.7451422407143843	84440.95304145766
0.7452664310878367	83730.84042626491
0.7453906421596846	83020.6094589704
0.7455148739333779	82310.26011984776
0.7456391264123667	81713.99593150184
0.7457633996001021	81135.89288070532
0.7458876935000356	80557.69347939928
0.7460120081156189	79979.39771152749
0.7461363434503048	79401.00556102743
0.7462606995075466	78822.51701183511
0.7463850762907978	78243.93204788545
0.7465094738035127	77665.06796329927
0.7466338920491467	77038.31676351011
0.746758331031155	76411.46110518703
0.7468827907529935	75784.50097092165
0.7470072712181189	75157.43634330053
0.7471317724299886	74530.26720490803
0.7472562943920602	73902.99353832623
0.7473808371077922	73275.61532613279
0.7475054005806435	72644.18046804742
0.7476299848140736	71988.29709032971
0.7477545898115426	71332.30439871557
0.7478792155765113	70676.202374986
0.7480038621124406	70019.99100091966
0.7481285294227926	69363.67025829114
0.7482532175110298	68707.24012887148
0.7483779263806148	68050.70059443115
0.7485026560350116	67397.38867740807
0.7486274064776842	66752.99945067498
0.748752177712097	66108.50282573861
0.7488769697417158	65463.898784696714
0.749001782570006	64819.187309648754
0.7491266162004343	64174.36838268848
0.7492514706364677	63529.44198590675
0.7493763458815739	62884.40810139157
0.7495012419392209	62226.88463650591
0.7496261588128773	61551.450876394905
0.7497510965060128	60875.90454399009
0.7498760550220971	60200.24562053011
0.7500010343646007	59524.474087249466
0.7501260345369949	58848.589925379594
0.750251055542751	58172.59311615018
0.7503760973853414	57496.483640785475
0.7505011600682389	56831.16376061252
0.750626243594917	56174.836148386436
0.7507513479688495	55518.39914822597
0.7508764731935109	54861.85274189859
0.7510016192723765	54205.196911169995
0.7511267862089218	53548.431637803544
0.7512519740066232	52891.55690355797
0.7513771826689577	52234.57269018965
0.7515024121994025	51610.63334718097
0.7516276626014359	51002.04844368936
0.751752933878536	50393.362109381575
0.7518782260341824	49784.5743273512
0.7520035390718548	49175.68508069021
0.7521288729950334	48566.69435248843
0.7522542278071992	47957.6021258319
0.7523796035118337	47348.408383803966
0.7525050001124189	46733.461722284555
0.7526304176124378	46117.183519327475
0.7527558560153731	45500.80260333736
0.752881315324709	44884.31895719398
0.7530067955439299	44267.73256377602
0.7531322966765205	43651.04340595999
0.7532578187259665	43034.25146661746
0.7533833616957542	42417.3567286184
0.75350892558937	41810.29185909972
0.7536345104103016	41203.59287530427
0.7537601161620366	40596.792775011825
0.7538857428480638	39989.89154136875
0.7540113904718717	39382.88915752085
0.7541370590369503	38775.78560660911
0.7542627485467898	38168.58087177183
0.7543884590048808	37565.35365656227
0.7545141904147151	37002.69936564588
0.7546399427797842	36439.95129901524
0.7547657161035808	35877.109441040084
0.754891510389598	35314.173776088624
0.7550173256413296	34751.14428852611
0.7551431618622698	34188.020962715804
0.7552690190559135	33624.80378301799
0.7553948972257561	33064.776302014805
0.7555207963752938	32515.677185424473
0.755646716508023	31966.486552315022
0.755772657627441	31417.204387433198
0.7558986197370455	30867.83067552381
0.756024602840335	30318.365401329247
0.7561506069408084	29768.80854958899
0.7562766320419653	29219.160105039613
0.7564026781473054	28673.219735574203
0.75652874526033	28133.874804677896
0.7566548333845401	27594.4399829595
0.7567809425234375	27054.91525543767
0.7569070726805247	26515.300607128233
0.7570332238593047	25975.596023044145
0.7571593960632813	25435.80148819553
0.7572855892959586	24895.91698759108
0.7574118035608413	24384.070297761118
0.7575380388614347	23899.65663655986
0.7576642952012449	23415.16223974822
0.7577905725837782	22930.587093871145
0.7579168710125422	22445.931185468893
0.7580431904910444	21961.194501081725
0.7581695310227928	21476.377027247774
0.7582958926112967	20991.478750500904
0.7584222752600652	20525.692114583144
0.7585486789726085	20070.85318176135
0.7586751037524372	19615.938442450577
0.7588015496030628	19160.9478840157
0.7589280165279966	18705.88149382198
0.7590545045307512	18250.7392592299
0.7591810136148396	17795.521167598727
0.7593075437837755	17340.227206284944
0.7594340950410726	16914.24181320064
0.7595606673902461	16496.710926298616
0.7596872608348112	16079.110450915021
0.7598138753782836	15661.440375452657
0.75994051102418	15243.700688310659
0.7600671677760173	14825.891377887796
0.7601938456373134	14408.012432579542
0.7603205446115863	13990.06384078064
0.7604472647023548	13599.27904507188
0.7605740059131385	13211.136120656854
0.7607007682474575	12822.928505754046
0.7608275517088319	12434.65618958295
0.7609543563007835	12046.319161358297
0.7610811820268336	11657.917410295842
0.7612080288905045	11269.450925608955
0.7613348968953197	10881.829509005373
0.7614617860448022	10512.810832393701
0.7615886963424764	10143.730652668755
0.7617156277918667	9774.58895958088
0.7618425803964988	9405.385742877186
0.7619695541598982	9036.12099230414
0.7620965490855914	8666.79469760627
0.7622235651771058	8297.406848525525
0.7623506024379685	7938.2146619577115
0.7624776608717082	7623.921156307663
0.7626047404818536	7309.575268406659
0.7627318412719337	6995.176989524878
0.762858963245479	6680.726310929753
0.7629861064060198	6366.223223888166
0.7631132707570876	6051.66771966508
0.7632404563022137	5737.059789524905
0.7633676630449308	5435.404302258101
0.7634948909887717	5161.381605462561
0.7636221401372697	4887.313238217911
0.7637494104939593	4613.199192911796
0.7638767020623748	4339.039461931859
0.7640040148460518	4064.834037663112
0.7641313488485262	3790.582912490331
0.7642587040733344	3516.286078796377
0.7643860805240132	3259.540258118556
0.7645134782041005	3023.749819335838
0.7646408971171346	2787.920082146558
0.764768337266654	2552.0510400011663
0.7648957986561985	2316.142686348674
0.7650232812893079	2080.195014637271
