#wavelength	surface flux
0.8	552511.485739286
0.8002000000000001	560815.1145715045
0.8004000500000003	569849.2608010799
0.8006001500125003	578893.0235434823
0.8008003000500035	587939.047226571
0.8010005001250161	596987.3324155846
0.8012007502500472	606037.8796758824
0.8014010504376099	614348.4095748777
0.8016014007002193	622412.3759844548
0.8018018010503944	630478.3583856341
0.8020022515006572	638546.3572824175
0.8022027520635323	646616.373178918
0.8024033027515483	655288.7251846946
0.8026039035772362	664551.5341154871
0.8028045545531306	673816.6587485129
0.8030052556917691	683084.0996627011
0.803206007005692	692353.8574371099
0.8034068085074435	701603.5030547624
0.8036076602095705	710792.5876355894
0.8038085621246229	719983.9694875544
0.8040095142651542	729177.649184988
0.8042105166437206	738373.6273023429
0.8044115692728815	747572.9996032347
0.8046126721651998	756821.7777561437
0.8048138253332411	766072.8681035835
0.8050150287895745	775326.2712236186
0.805216282546772	784581.9876944314
0.8054175866174087	793840.018094357
0.8056189410140631	802732.6963905516
0.8058203457493168	811523.5243590226
0.8060218008357541	820316.5500344746
0.8062233062859632	829111.7739663497
0.8064248621125346	837909.1967042017
0.806626468328063	847418.5608065566
0.8068281249451449	857539.8847750186
0.8070298319763813	867663.7390744849
0.8072315894343755	877790.1243375187
0.8074333973317341	887919.041196872
0.8076352556810671	896993.6129619331
0.8078371644949874	903526.3731732722
0.8080391237861113	910060.7665746658
0.8082411335670578	916596.7935744056
0.8084431938504498	923134.4545809022
0.8086453046489125	929546.0401100324
0.8088474659750746	933581.4991383293
0.8090496778415686	937617.9670313887
0.809251940261029	941655.4440414185
0.8094542532460944	945693.9304207042
0.8096566168094059	949733.42642158
0.8098590309636085	956010.4712677837
0.8100614957213493	962812.5655834043
0.8102640110952797	969616.3604226046
0.8104665770980536	976421.8562105173
0.8106691937423283	983229.0533723797
0.8108718610407639	990137.2180728613
0.8110745790060241	997123.0131152859
0.8112773476507757	1004110.5546064773
0.8114801669876885	1011099.8429830396
0.8116830370294355	1018090.8786816918
0.8118859577886929	1023921.1919195484
0.8120889292781401	1027338.4612570303
0.8122919515104597	1030756.5849118461
0.8124950244983374	1034175.5630975759
0.8126981482544621	1037595.3960278516
0.8129013227915257	1041555.3206089411
0.8131045481222237	1051690.577742258
0.8133078242592543	1061828.3686898595
0.8135111512153191	1071968.6940851952
0.813714529003123	1082111.5545618806
0.8139179576353739	1092256.9507536872
0.8141214371247829	1110722.5296482472
0.8143249674840641	1130805.6564668168
0.814528548725935	1150893.804067079
0.8147321808631167	1170986.9737042685
0.8149358639083326	1191085.1666338611
0.8151395978743097	1207221.6670870697
0.8153433827737784	1220682.1212144902
0.8155472186194719	1234145.9404554376
0.8157511054241268	1247613.1256511929
0.815955043200483	1261083.677643256
0.8161590319612831	1278510.0356711682
0.8163630717192736	1303183.1118702695
0.8165671624872033	1327862.3563383934
0.8167713042778252	1352547.7706176585
0.8169754971038948	1377239.3562505057
0.8171797409781707	1397971.7037003785
0.8173840359134155	1387052.1294659385
0.8175883819223938	1376129.8253379525
0.8177927790178745	1365204.790633928
0.8179972272126291	1354277.0246712249
0.8182017265194322	1343346.526767042
0.8184062769510622	1359511.6206601195
0.8186108785203001	1379850.7868798554
0.8188155312399301	1400195.037891119
0.8190202351227402	1420544.374965158
0.819224990181521	1440898.7993734528
0.8194297964290664	1465126.3347575509
0.8196346538781738	1491691.3706477021
0.8198395625416434	1518263.0477968152
0.8200445224322789	1544841.367865227
0.820249533562887	1571426.3325136479
0.8204545959462778	1594401.9002265017
0.8206597095952644	1611563.2879586676
0.8208648745226633	1628728.9660377796
0.8210700907412941	1645898.9355364088
0.8212753582639793	1663073.197527395
0.8214806771035456	1678000.466229018
0.8216860472728215	1679060.796877005
0.8218914687846397	1680121.392607654
0.822096941651836	1681182.253487236
0.822302465887249	1682243.3795820375
0.8225080415037209	1683304.770958363
0.8227136685140968	1684337.3423090398
0.8229193469312254	1685366.8700047825
0.8231250767679583	1686396.655082449
0.8233308580371503	1687426.6976063848
0.8235366907516598	1688456.9976409522
0.8237425749243477	1713787.8435017625
0.8239485105680789	1752004.6020320174
0.824154497695721	1790230.9147518803
0.824360536320145	1828466.7840499305
0.8245666264542252	1866712.2123153033
0.8247727681108388	1895985.9414251891
0.8249789613028664	1912404.1335255557
0.8251852060431922	1928826.4301739614
0.825391502344703	1945252.8323965222
0.8255978502202894	1961683.3412196531
0.8258042496828445	1978755.2239993212
0.8260107007452654	1998926.3035569738
0.8262172034204517	2019102.425884495
0.8264237577213068	2039283.5922426037
0.8266303636607373	2059469.8038923105
0.8268370212516525	2079661.06209492
0.8270437305069654	2085344.5952177874
0.8272504914395923	2089895.470342889
0.8274573040624523	2094447.4831867728
0.8276641683884679	2099000.6340338634
0.8278710844305652	2103554.923168672
0.8280780522016729	2118071.7557507968
0.8282850717147234	2137145.557262565
0.8284921429826521	2156224.1272246917
0.8286992660183978	2175307.4668293237
0.8289064408349024	2194395.5772688435
0.8291136674451112	2210176.738534706
0.8293209458619727	2221785.9306042893
0.8295282760984382	2233398.0249718744
0.829735658167463	2245013.022363065
0.8299430920820048	2256630.9235035884
0.8301505778550254	2268515.935332754
0.8303581154994891	2281458.4427818954
0.8305657050283641	2294404.1858579116
0.8307733464546212	2307353.1653696867
0.8309810397912352	2320305.382126361
0.8311887850511829	2333260.8369371993
0.8313965822474458	2367193.675702023
0.8316044313930077	2402108.518698118
0.8318123325008561	2437032.0904049953
0.8320202855839813	2471964.3930047816
0.8322282906553774	2506905.428680221
0.8324363477280413	2526978.2502798378
0.8326444568149735	2541066.6827665484
0.8328526179291771	2555158.6373613644
0.8330608310836596	2569254.11494485
0.8332690962914304	2583353.1163977133
0.8334774135655034	2589285.697595051
0.833685782918895	2586093.665071089
0.8338942043646247	2582900.8345389976
0.834102677915716	2579707.205799271
0.834311203585195	2576512.778652362
0.8345197813860912	2578881.1041006334
0.8347284113314379	2599977.4552573697
0.8349370934342709	2621079.0805018833
0.8351458277076294	2642185.9811526826
0.8353546141645565	2663298.15852868
0.8355634528180977	2684415.613949012
0.8357723436813022	2690927.3221202944
0.8359812867672226	2697260.2492690384
0.8361902820889144	2703594.759649567
0.8363993296594368	2709930.8536576917
0.8366084294918518	2716268.531689321
0.8368175815992247	2744328.712755892
0.8370267859946247	2779876.8163377796
0.8372360426911234	2815433.806945552
0.8374453517017962	2850999.6868009726
0.8376547130397217	2886574.458126353
0.8378641267179816	2914191.2131598964
0.8380735927496613	2933909.626672351
0.8382831111478488	2953632.9697881714
0.8384926819256358	2973361.2437397605
0.8387023050961173	2993094.449759855
0.8389119806723914	3010941.968027659
0.8391217086675596	3023473.1227498585
0.8393314890947265	3036007.410260728
0.8395413219670003	3048544.831343477
0.8397512072974922	3061085.3867815053
0.8399611450993165	3073608.3872963116
0.8401711353855914	3085107.057473193
0.8403811781694378	3096608.6023176154
0.8405912734639802	3108113.0225482523
0.8408014212823464	3119620.3188839518
0.8410116216376671	3131130.4920437336
0.8412218745430766	3143078.376434146
0.8414321800117124	3155155.767619011
0.8416425380567154	3167236.1781516783
0.8418529486912297	3179319.6087869816
0.8420634119284025	3191406.0602799333
0.8422739277813847	3236183.841351718
0.8424844962633302	3309772.484615123
0.842695117387396	3383379.52503925
0.8429057911667428	3457004.967223486
0.8431165176145345	3530648.8157683033
0.8433272967439382	3577214.4225747506
0.8435381285681244	3557695.4209404835
0.8437490131002665	3538171.5395558123
0.8439599503535415	3518642.777200807
0.84417094034113	3499109.1326551987
0.8443819830762154	3481834.91227533
0.8445930785719846	3510171.04304596
0.8448042268416277	3538514.257849267
0.8450154278983382	3566864.558456271
0.8452266817553128	3595221.946638425
0.8454379884257517	3623586.4241676275
0.8456493479228583	3674155.240495731
0.845860760259839	3730082.0630455636
0.846072225449904	3786022.8673010333
0.8462837435062666	3841977.6567575783
0.8464953144421433	3897946.43491152
0.8467069382707537	3938691.488619694
0.8469186150053215	3967569.3964477256
0.847130344659073	3996454.523752722
0.8473421272452377	4025346.872339517
0.8475539627770492	4054246.444013487
0.8477658512677435	4081288.845171069
0.8479777927305605	4104379.208784802
0.8481897871787432	4127475.3449894325
0.848401834625538	4150577.255228127
0.8486139350841944	4173684.940944367
0.8488260885679657	4193715.6242857506
0.8490382950901076	4176173.330067584
0.8492505546638802	4158626.6502758535
0.8494628673025462	4141075.5838141814
0.8496752330193721	4123520.129585868
0.8498876518276269	4105960.2864940213
0.8501001237405839	3951362.850706488
0.8503126487715191	3769372.5316020525
0.850525226933712	3587336.714917942
0.8507378582404455	3405255.3892796626
0.8509505427050057	3223128.5433098674
0.8511632803406821	3080119.035987002
0.8513760711607672	2963893.171104349
0.8515889151785576	2847638.249755295
0.8518018124073523	2731354.2646760005
0.8520147628604541	2615041.2086005053
0.8522277665511693	2583699.322468365
0.8524408234928071	2709547.2853491292
0.8526539336986805	2835426.7102206475
0.8528670971821053	2961337.6049483917
0.8530803139564007	3087279.9773996696
0.8532935840348901	3229288.566569518
0.8535069074308987	3506754.1560017993
0.8537202841577566	3784289.1118316716
0.8539337142287962	4061893.451400533
0.8541471976573534	4339567.192054112
0.8543607344567677	4617310.351142907
0.8545743246403821	4723711.381315383
0.8547879682215422	4802916.8961337395
0.8550016652135977	4882142.21233079
0.8552154156299011	4961387.334856895
0.8554292194838088	5040652.268663689
0.8556430767886797	5097928.799744751
0.855856987557877	5141856.8406781405
0.8560709518047664	5185795.863621736
0.8562849695427177	5229745.871321083
0.8564990407851035	5273706.866522368
0.8567131655452999	5313531.8181183785
0.8569273438366862	5346571.672584039
0.8571415756726455	5379619.787013322
0.8573558610665638	5412676.163471225
0.8575702000318304	5445740.804023206
0.8577845925818384	5479780.867359416
0.857999038729984	5519870.657288961
0.8582135384896665	5559970.46966598
0.858428091874289	5600080.306996096
0.8586426988972576	5640200.171785533
0.8588573595719821	5680330.066541182
0.8590720739118751	5712603.686255971
0.8592868419303532	5743957.913215286
0.8595016636408359	5775319.978731341
0.8597165390567462	5806689.884763764
0.8599314681915105	5838067.633272704
0.8601464510585584	5844141.125345216
0.860361487671323	5836780.649342229
0.8605765780432408	5829418.3332202425
0.8607917221877518	5822054.17651922
0.8610069201182988	5814688.178779024
0.8612221718483286	5772833.165686768
0.8614374773912907	5681249.760579781
0.8616528367606385	5589643.459621542
0.8618682499698288	5498014.2570880065
0.8620837170323213	5406362.147253851
0.8622992379615795	5335086.639771731
0.8625148127710699	5364742.699592507
0.8627304414742627	5394406.173428241
0.8629461240846313	5424077.06313244
0.8631618606156526	5453755.370559066
0.8633776510808066	5483441.097562544
0.8635934954935769	5553977.317538025
0.8638093938674504	5627879.152012888
0.8640253462159173	5701799.461946368
0.8642413525524714	5775738.25195733
0.8644574128906095	5849695.526665779
0.8646735272438323	5904925.122219605
0.8648896956256433	5951451.037400548
0.8651059180495498	5997988.584060288
0.8653221945290621	6044537.765106649
0.8655385250776946	6091098.583448336
0.8657549097089641	6146031.930533629
0.8659713484363913	6211682.786221081
0.8661878412735006	6277350.054622486
0.866404388233819	6343033.7398409825
0.8666209893308775	6408733.845980753
0.8668376445782103	6465096.005286869
0.8670543539893549	6483292.314913593
0.8672711175778525	6501493.173617736
0.8674879353572469	6519698.582536535
0.8677048073410862	6537908.542807571
0.8679217335429217	6556123.055568686
0.8681387139763074	6602579.560801842
0.8683557486548015	6650450.44418186
0.8685728375919655	6698333.295282783
0.8687899808013633	6746228.117096377
0.8690071782965637	6794134.9126154855
0.869224430091138	6825259.1348594185
0.8694417361986609	6849557.457005187
0.8696590966327107	6873861.853731487
0.869876511406869	6898172.326556969
0.8700939805347206	6922488.877000647
0.8703115040298544	6952015.123926728
0.870529081905862	6987497.992390088
0.8707467141763385	7022989.731570551
0.8709644008548827	7058490.343685809
0.8711821419550964	7093999.830954073
0.8713999374905854	7127913.108453871
0.871617787474958	7156295.151648919
0.8718356919218269	7184684.290354792
0.8720536508448075	7213080.526345343
0.8722716642575187	7241483.861394876
0.8724897321735832	7269894.2972781835
0.8727078546066265	7310742.268307746
0.8729260315702784	7351789.558985671
0.873144263078171	7392847.11148622
0.8733625491439405	7433914.928374899
0.8735808897812266	7474993.012217816
0.8737992850036719	7492597.223492177
0.874017734824923	7501888.138835652
0.8742362392586293	7511181.376907959
0.874454798318444	7520476.938289784
0.8746734120180236	7529774.823561952
0.8748920803710283	7547778.5161095895
0.875110803391121	7574532.880472112
0.8753295810919689	7601293.93342574
0.875548413487242	7628061.676642608
0.8757673005906139	7654836.11179528
0.8759862424157616	7699335.833968135
0.8762052389763657	7795116.267295948
0.8764242902861098	7890920.6457320275
0.8766433963586814	7986748.975262741
0.8768625572077712	8082601.261875867
0.8770817728470732	8177528.356542589
0.8773010432902849	8198371.554115372
0.8775203685511077	8219219.962487578
0.8777397486432454	8240073.582961852
0.8779591835804065	8260932.4168412695
0.8781786733763015	8281796.465429128
0.8783982180446457	8266730.510538925
0.878617817599157	8240970.7330423705
0.8788374720535569	8215204.515601454
0.8790571814215703	8189431.8566061845
0.8792769457169257	8163652.754446165
0.879496764953355	8161186.525323984
0.8797166391445934	8179685.277999077
0.8799365683043796	8198188.65536234
0.8801565524464557	8216696.658569943
0.8803765915845676	8235209.288778366
0.8805966857324639	8258476.122218185
0.880816834903897	8293678.281087585
0.881037039112623	8328889.240496716
0.8812572983724012	8364109.0026456965
0.8814776126969944	8399337.56973523
0.8816979821001687	8433343.783174247
0.8819184065956938	8438376.76588875
0.8821388861973429	8443411.006848937
0.8823594209188923	8448446.506369358
0.882580010774122	8453483.264764657
0.8828006557768155	8458521.282349559
0.8830213559407598	8498167.687024651
0.8832421112797452	8546528.047175903
0.8834629218075651	8594900.497417163
0.8836837875380171	8643285.040770998
0.8839047084849018	8691681.680260679
0.884125684662023	8721757.403956091
0.8843467160831886	8737149.076492162
0.8845678027622095	8752544.596946366
0.8847889447129001	8767943.966280688
0.8850101419490785	8783347.185457341
0.8852313944845657	8838457.86549736
0.885452702333187	8980488.655951414
0.8856740655087704	9122554.95410306
0.8858954840251476	9264656.768829208
0.8861169578961539	9406794.10900897
0.886338487135628	9529755.79334584
0.886560071757412	9397097.094792586
0.8867817117753515	9264405.231564697
0.8870034072032955	9131680.195370942
0.8872251580550963	8998921.977918293
0.8874469643446101	8866130.570911199
0.8876688260856963	8858473.224049931
0.8878907432922178	8876718.931006614
0.8881127159780409	8894969.199390026
0.8883347441570356	8913224.030340554
0.8885568278430749	8931483.424998801
0.8887789670500358	8911177.798309932
0.8890011617917983	8863506.847283218
0.8892234120822464	8815823.978518726
0.8894457179352669	8768129.18903708
0.8896680793647509	8720422.475858029
0.8898904963845921	8670736.72546837
0.8901129690086883	8617285.254965318
0.8903354972509405	8563820.421594655
0.8905580811252535	8510342.222015606
0.8907807206455347	8456850.652886737
0.8910034158256963	8393129.01809526
0.8912261666796527	8238085.238763984
0.8914489732213227	8083002.69848783
0.8916718354646282	7927881.387576455
0.8918947534234944	7772721.296337503
0.8921177271118502	7617522.415075837
0.8923407565436284	7238761.008827749
0.8925638417327644	6823442.114741303
0.8927869826931977	6408019.3909311965
0.8930101794388711	5992492.811440164
0.8932334319837308	5576862.350304327
0.8934567403417267	5318891.418818185
0.8936801045268123	5158887.399729583
0.8939035245529441	4998843.3796363175
0.8941270004340824	4838759.348537967
0.894350532184191	4678635.296431881
0.8945741198172371	4751374.491931313
0.8947977633471915	5210374.178248872
0.8950214627880284	5669488.614487992
0.8952452181537254	6128717.829335898
0.8954690294582639	6588061.851487793
0.8956928967156286	7034148.791846997
0.8959168199398075	7393568.270886857
0.8961407991447926	7753077.60479657
0.8963648343445789	8112676.8160397485
0.896588925553165	8472365.927085536
0.8968130727845534	8832144.96040913
0.8970372760527496	8916146.500780312
0.8972615353717629	8965652.469618384
0.8974858507556059	9015170.814948672
0.8977102222182949	9064701.539865278
0.8979346497738496	9114244.647463141
0.8981591334362931	9356458.86519061
0.8983836732196523	9704094.162731469
0.8986082691379572	10051816.369096484
0.8988329212052417	10399625.506013092
0.8990576294355432	10747521.59521423
0.8992823938429022	10964233.098919759
0.8995072144413631	10985814.65355811
0.8997320912449734	11007401.603585117
0.8999570242677847	11028993.950349623
0.9001820135238516	11050591.695200821
0.9004070590272328	11073422.476303902
0.9006321607919896	11102694.656114329
0.9008573188321878	11131974.153969739
0.9010825331618959	11161260.9716996
0.9013078037951865	11190555.111133896
0.9015331307461353	11219856.574103035
0.9017585140288219	11558431.795686886
0.9019839536573292	11923729.58058955
0.9022094496457435	12289118.689938173
0.9024350020081551	12654599.146564547
0.9026606107586572	13020170.97330496
0.902886275911347	13222449.002578702
0.9031119974803249	13346014.566914454
0.9033377754796951	13469611.022641294
0.903563609923565	13593238.37748201
0.903789500826046	13716896.63916152
0.9040154482012526	13761596.211148912
0.904241452063303	13703982.822667459
0.9044675124263188	13646355.030838897
0.9046936293044254	13588712.83206239
0.9049198027117517	13531056.222736157
0.9051460326624297	13496844.977337796
0.9053723191705955	13562522.371781636
0.9055986622503881	13628216.185574027
0.9058250619159507	13693926.422819866
0.9060515181814298	13759653.08762506
0.9062780310609752	13825396.184096409
0.9065046005687405	13671825.517502654
0.906731226718883	13505980.674902499
0.9069579095255627	13340094.371091912
0.907184649002944	13174166.595705358
0.907411445165195	13008197.33837479
0.9076382980264862	13264812.644007776
0.907865207600993	13697007.92148388
0.9080921739028933	14129311.247779228
0.9083191969463691	14561722.649906078
0.9085462767456058	14994242.154883673
0.9087734133147922	15150248.274480246
0.9090006066681211	14986792.116696138
0.909227856819788	14823295.094872799
0.9094551637839932	14659757.19879378
0.9096825275749393	14496178.418240791
0.9099099482068329	14332216.890769357
0.9101374256938848	14166999.424186032
0.9103649600503083	14001740.653236141
0.9105925512903209	13836440.567593543
0.9108201994281437	13671099.156929363
0.9110479044780008	13505716.410912704
0.9112756664541204	13925935.074241463
0.911503485370734	14359664.051652499
0.9117313612420768	14793501.461307889
0.9119592940823873	15227447.33031556
0.912187283905908	15661501.685790623
0.9124153307268845	15627083.429461256
0.9126434345595664	15422589.009352148
0.9128715954182063	15218043.465638204
0.9130998133170609	15013446.785538228
0.9133280882703902	14808798.95626824
0.913556420292458	14754154.020701388
0.9137848093975312	14854248.387111075
0.9140132555998806	14954367.777112354
0.9142417589137806	15054512.196961137
0.9144703193535092	15154681.652914947
0.9146989369333476	15231725.016937101
