#wavelength	surface flux
0.7	105204.79403271395
0.7001166666666666	105367.93371584654
0.7002333527777778	105356.84734514849
0.700350058336574	105345.75912672198
0.7004667833462966	105334.6690602591
0.7005835278101878	105323.57714545177
0.7007002917314895	105312.48338199199
0.7008170751134447	105301.38776957164
0.7009338779592968	105290.29030788256
0.7010507002722901	105285.16702029668
0.7011675420556689	105287.31530234488
0.701284403312678	105289.46394244011
0.7014012840465635	105291.61294064201
0.7015181842605713	105293.76229701028
0.701635103957948	105295.91201160461
0.701752043141941	105298.06208448471
0.701869001815798	105300.21251571029
0.7019859799827672	105460.31359496679
0.7021029776460976	105730.36586549289
0.7022199948090387	106000.46314473108
0.7023370314748403	106270.60544018236
0.7024540876467528	106540.79275934951
0.702571163328027	106811.02510973609
0.7026882585219152	107081.30249884844
0.7028053732316688	107351.62493419192
0.7029225074605406	107731.4692901454
0.7030396612117841	108153.65099252824
0.7031568344886527	108575.90305852823
0.7032740272944008	108998.22549987228
0.7033912396322832	109420.6183282901
0.7035084715055552	109843.08155551224
0.7036257229174727	110265.6151932724
0.7037429938712924	110688.21925330593
0.7038602843702709	110753.74701412638
0.7039775944176659	110758.71099674457
0.7040949240167356	110763.6758066932
0.7042122731707383	110768.64144411015
0.7043296418829335	110773.60790913335
0.7044470301565806	110778.5752019007
0.70456443799494	110783.54332255019
0.7046818654012724	110788.51227121979
0.7047993123788394	111140.21975847473
0.7049167789309024	111492.38376055354
0.7050342650607243	111844.6064566332
0.7051517707715678	112196.8878564954
0.7052692960666963	112549.22796992408
0.705386840949374	112901.62680670482
0.7055044054228656	113254.08437662561
0.7056219894904361	113559.09591323823
0.7057395931553511	113562.27048923682
0.705857216420877	113565.44559433141
0.7059748592902804	113568.62122861018
0.7060925217668288	113571.79739216134
0.70621020385379	113574.97408507309
0.7063279055544321	113578.15130743365
0.7064456268720246	113581.32905933128
0.7065633678098366	113626.25104797121
0.7066811283711383	113786.14345848402
0.7067989085592001	113946.06251773192
0.7069167083772933	114106.00823015627
0.7070345278286895	114265.98060019944
0.707152366916661	114425.97963230433
0.7072702256444803	114586.00533091438
0.7073881040154211	114746.05770047443
0.7075060020327569	114962.26070575808
0.7076239196997625	115260.23572660224
0.7077418570197124	115558.26040994961
0.7078598139958823	115856.3347640775
0.7079777906315483	116154.4587972647
0.7080957869299869	116452.63251779055
0.7082138028944751	116750.85593393631
0.7083318385282908	117049.129053985
0.7084498938347124	117110.43225005796
0.708567968817018	116970.79557273554
0.7086860634784875	116831.13562263342
0.7088041778224007	116691.45239587282
0.7089223118520377	116551.74588857463
0.7090404655706796	116412.01609685863
0.709158638981608	116272.26301684385
0.709276832088105	116132.48664464903
0.7093950448934531	116232.46478404611
0.7095132774009353	116446.81220966432
0.7096315296138355	116661.19535985355
0.7097498015354378	116875.61424056774
0.7098680931690269	117090.06885776184
0.7099864045178884	117304.55921739242
0.7101047355853081	117519.08532541624
0.7102230863745722	117733.64718779124
0.7103414568889679	117948.32701107048
0.7104598471317828	118163.06129223215
0.7105782571063047	118377.8313624405
0.7106966868158224	118592.63722766055
0.710815136263625	118807.47889385809
0.7109336054530023	119022.35636700015
0.7110520943872445	119237.2696530543
0.7111706030696424	119452.2187579896
0.7112891315034873	119438.18623370524
0.7114076796920712	119413.22428837114
0.7115262476386865	119388.25818271285
0.7116448353466263	119363.28791603693
0.711763442819184	119338.31348764991
0.711882070059654	119313.33489685813
0.7120007170713306	119288.3521429679
0.7121193838575091	119265.43969106302
0.7122380704214853	119264.15956746816
0.7123567767665555	119262.87923051936
0.7124755028960166	119261.59868018106
0.7125942488131658	119260.31791641773
0.7127130145213015	119259.03693919374
0.7128318000237216	119257.75574847357
0.7129506053237256	119256.4743442216
0.7130694304246129	119255.9019651095
0.7131882753296837	119257.80923897278
0.7133071400422386	119259.71683071506
0.7134260245655789	119261.62474038928
0.7135449289030065	119263.53296804844
0.7136638530578235	119265.44151374557
0.7137827970333332	119267.35037753363
0.7139017608328388	119269.25955946566
0.7140207444596443	119260.23398753503
0.7141397479170543	119231.69982807565
0.7142587712083737	119203.16091292306
0.7143778143369084	119174.6172412846
0.7144968773059646	119146.06881236754
0.7146159601188489	119117.51562537898
0.7147350627788687	119088.95767952592
0.7148541852893318	119060.39497401525
0.7149733276535467	118928.88776574231
0.7150924898748222	118693.55650429119
0.715211671956468	118458.1860209631
0.7153308739017941	118222.77630922095
0.715450095714111	117987.32736252695
0.71556933739673	117751.8391743418
0.7156885989529628	117516.31173812531
0.7158078803861218	117280.74504733577
0.7159271816995193	116679.00569425074
0.7160465028964692	115862.26858727886
0.7161658439802853	115045.39535745585
0.7162852049542819	114228.38598209471
0.7164045858217744	113411.24043850382
0.716523986586078	112593.95870398935
0.7166434072505089	111776.54075585287
0.716762847818384	110958.9865713914
0.7168823082930204	110361.20083483197
0.7170017886777359	109828.01049627017
0.7171212889758488	109294.73129265232
0.7172408091906781	108761.36320916702
0.7173603493255433	108227.90623100098
0.7174799093837642	107694.36034333886
0.7175994893686615	107160.72553136192
0.7177190892835562	106627.00178024989
0.7178387091317702	106912.98018685337
0.7179583489166254	107281.29924303155
0.7180780086414448	107649.67968571938
0.7181976883095517	108018.12152514765
0.7183173879242699	108386.62477154919
0.718437107488924	108755.18943515855
0.7185568470068389	109123.81552621198
0.7186766064813399	109476.91447146476
0.7187963859157535	109440.32332515153
0.7189161853134061	109403.72608031392
0.719036004677625	109367.12273593551
0.7191558440117378	109330.51329099972
0.7192757033190732	109293.89774448973
0.7193955826029597	109257.27609538869
0.7195154818667269	109220.64834267944
0.7196354011137046	109182.36105796686
0.7197553403472235	109136.45471684086
0.7198752995706147	109090.54072465801
0.7199952787872098	109044.61908014312
0.720115278000341	108998.6897820208
0.7202352972133411	108952.75282901546
0.7203553364295432	108906.80821985134
0.7204753956522815	108860.8559532523
0.7205954748848902	108992.8046072695
0.7207155741307044	109516.9971775995
0.7208356933930594	110041.27711335699
0.7209558326752915	110565.64442910388
0.7210759919807375	111090.0991394041
0.7211961713127342	111614.64125882203
0.7213163706746197	112139.27080192736
0.7214365900697322	112663.98778328931
0.7215568295014103	112835.70537800108
0.721677088972994	112586.15951075626
0.7217973684878227	112336.57205253399
0.7219176680492374	112086.9429964017
0.7220379876605789	111837.2723354269
0.722158327325189	111587.56006267517
0.7222786870464099	111337.80617121144
0.7223990668275843	111088.01065409904
0.7225194666720555	110732.61594177074
0.7226398865831676	110302.35070973197
0.7227603265642646	109872.01376682223
0.722880786618692	109441.60510108776
0.7230012667497951	109011.12470057594
0.7231217669609201	108580.57255333065
0.7232422872554135	108149.94864739454
0.7233628276366229	107719.2529708067
0.7234833881078956	107761.22131286978
0.7236039686725803	107982.6761896754
0.7237245693340255	108204.16797562681
0.7238451900955812	108425.69667687628
0.7239658309605971	108647.26229957571
0.7240864919324239	108868.86484987922
0.7242071730144127	109090.50433394112
0.724327874209915	109312.18075791658
0.7244485955222832	108504.16048874707
0.7245693369548704	107525.74779198584
0.7246900985110294	106547.17202644324
0.7248108801941148	105568.4331649371
0.7249316820074803	104589.53118029068
0.7250525039544815	103610.46604531187
0.7251733460384739	102631.23773281042
0.7252942082628137	101653.59990444109
0.7254150906308574	101691.94200077007
0.7255359931459625	101730.29048744844
0.7256569158114868	101768.64536554126
0.7257778586307888	101807.00663611379
0.7258988216072273	101845.3743002314
0.7260198047441617	101883.74835895965
0.7261408080449525	101922.12881336443
0.72626183151296	101961.17903113397
0.7263828751515454	102004.64420908947
0.7265039389640706	102048.1166312413
0.726625022953898	102091.59629879682
0.7267461271243904	102135.08321296364
0.7268672514789111	102178.57737494945
0.7269883960208241	102222.07878596224
0.7271095607534942	102265.5874472102
0.7272307456802866	102265.62809692907
0.7273519508045666	102148.23157437483
0.7274731761297006	102030.81548573358
0.7275944216590555	101913.37982774421
0.7277156873959987	101795.92459714515
0.7278369733438982	101678.44979067412
0.727958279506122	101560.95540506899
0.7280796058860397	101443.44143706613
0.7282009524870207	101096.2961574838
0.7283223193124353	100409.47170818952
0.7284437063656539	99722.5327881551
0.7285651136500483	99035.47937829957
0.7286865411689898	98348.3114595438
0.7288079889258514	97661.0290127999
0.7289294569240056	96973.63201898313
0.7290509451668262	96286.12045899994
0.7291724536576875	95741.68327648644
0.7292939823999636	95315.8028240321
0.7294155313970303	94889.85139150149
0.7295371006522632	94463.82896706558
0.7296586901690385	94037.7355388926
0.7297802999507332	93611.57109514844
0.7299019300007252	93185.33562399588
0.7300235803223919	92759.02911359929
0.7301452509191123	92592.00944949413
0.7302669417942654	92544.67363064004
0.7303886529512311	92497.3299224828
0.7305103843933897	92449.97832370752
0.7306321361241218	92402.61883299914
0.7307539081468093	92355.25144904223
0.7308757004648336	92307.87617052143
0.7309975130815778	92260.49299612083
0.7311193460004248	92315.70663561641
0.7312411992247582	92394.15787412133
0.7313630727579622	92472.62218783266
0.7314849666034219	92551.09957892967
0.7316068807645224	92629.59004959182
0.7317288152446498	92708.09360199912
0.7318507700471907	92786.61023833186
0.7319727451755319	92865.13996077063
0.732094740633061	92519.87842272005
0.7322167564231665	92155.47953507853
0.7323387925492371	91791.01991428903
0.7324608490146619	91426.49955022952
0.732582925822831	91061.91843277591
0.7327050229771347	90697.27655180314
0.7328271404809642	90332.57389718316
0.7329492783377112	89972.13671889172
0.7330714365507675	89654.17118307039
0.7331936151235259	89336.15265299316
0.7333158140593796	89018.08111982796
0.7334380333617229	88699.95657474006
0.7335602730339499	88381.7790088945
0.7336825330794556	88063.54841345458
0.7338048135016354	87745.26477958269
0.7339271143038857	87504.3225240754
0.734049435489603	87522.66450709561
0.7341717770621846	87541.009547113
0.7342941390250283	87559.35764463706
0.7344165213815324	87577.70880017737
0.734538924135096	87596.06301424361
0.7346613472891185	87614.42028734552
0.734783790847	87632.78061999296
0.7349062548121412	87437.55695757017
0.7350287391879431	86864.77691488338
0.7351512439778078	86291.90140885496
0.7352737691851374	85718.93042357621
0.735396314813335	85145.86394313276
0.7355188808658037	84572.70195161019
0.7356414673459482	83999.44443308783
0.7357640742571725	83426.09137164615
0.7358867016028818	82951.82953280384
0.7360093493864824	82575.44454169327
0.7361320176113801	82198.99681975135
0.736254706280982	81822.48635652245
0.7363774153986956	81445.91314154917
0.7365001449679286	81069.27716437419
0.7366228949920899	80692.57841453602
0.7367456654745885	80315.81688157289
0.7368684564188344	79943.10999417881
0.7369912678282374	79572.66807881002
0.7371140997062088	79202.16442312185
0.7372369520561599	78831.59901682405
0.7373598248815024	78460.97184962603
0.7374827181856494	78090.28291123286
0.7376056319720137	77719.53219134992
0.7377285662440091	77348.71967968029
0.7378515210050496	76764.76335066403
0.7379744962585505	76116.59979947035
0.738097492007927	75468.32822101831
0.7382205082565949	74819.94859730359
0.738343545007971	74171.46091031839
0.7384666022654723	73522.86514205138
0.7385896800325165	72874.16127449062
0.7387127783125219	72225.34928961779
0.7388358971089073	72234.94725432515
0.7389590364250921	72310.59781709503
0.7390821962644963	72386.26098829211
0.7392053766305403	72461.9367700176
0.7393285775266454	72537.62516437344
0.7394517989562333	72613.32617346174
0.7395750409227259	72689.03979938477
0.7396983034295463	72745.93999187685
0.739821586480118	72384.05012226482
0.7399448900778645	72022.09993767523
0.7400682142262109	71660.08942805378
0.740191558928582	71298.01858334777
0.7403149241884034	70935.88739350127
0.7404383100091014	70573.69584845637
0.7405617163941028	70211.44393815419
0.7406851433468352	69820.82349913959
0.7408085908707264	69300.63496279554
0.7409320589692048	68780.35972836235
0.7410555476456997	68259.99778138967
0.7411790569036406	67739.5491074262
0.7413025867464579	67219.01369201693
0.7414261371775823	66698.39152070494
0.7415497082004452	66177.68257903148
0.7416732998184786	65657.69809721639
0.741796912035115	65139.36723088707
0.7419205448537874	64620.94997608015
0.7420441982779297	64102.446318397444
0.742167872310976	63583.85624343797
0.7422915669563612	63065.17973679937
0.7424152822175206	62546.41678407646
0.7425390180978901	62027.56737086174
0.7426627746009065	61612.233698125914
0.7427865517300065	61323.12932243556
0.7429103494886282	61033.976762682294
0.7430341678802096	60744.77601083596
0.7431580069081896	60455.527058864325
0.7432818665760077	60166.229898733625
0.7434057468871037	59876.88452240982
0.7435296478449182	59587.49092185678
0.7436535694528923	59224.63502409094
0.7437775117144678	58811.464471049745
0.7439014746330868	58398.22505625034
0.7440254582121922	57984.916768214774
0.7441494624552276	57571.53959546437
0.7442734873656368	57158.0935265186
0.7443975329468645	56744.57854989434
0.7445215992023557	56330.99465410735
0.7446456861355559	55890.256355796904
0.7447697937499119	55439.46703243618
0.7448939220488703	54988.60257752167
0.7450180710358784	54537.662978531735
0.7451422407143843	54086.64822294191
0.7452664310878367	53635.55829822574
0.7453906421596846	53184.39319185593
0.7455148739333779	52733.15289130158
0.7456391264123667	52337.195587266506
0.7457633996001021	51950.023760933705
0.7458876935000356	51562.78740596248
0.7460120081156189	51175.486511599505
0.7461363434503048	50788.12106708728
0.7462606995075466	50400.6910616673
0.7463850762907978	50013.19648458032
0.7465094738035127	49625.57209586885
0.7466338920491467	49220.819508504195
0.746758331031155	48815.99946237459
0.7468827907529935	48411.11194623777
0.7470072712181189	48006.15694884826
0.7471317724299886	47601.134458959095
0.7472562943920602	47196.0444653219
0.7473808371077922	46790.88695668541
0.7475054005806435	46383.71509581728
0.7476299848140736	45964.483688429995
0.7477545898115426	45545.182409141395
0.7478792155765113	45125.81124630614
0.7480038621124406	44706.37018827741
0.7481285294227926	44286.85922340577
0.7482532175110298	43867.27834003955
0.7483779263806148	43447.62752652668
0.7485026560350116	43030.903916420764
0.7486274064776842	42622.22251364515
0.748752177712097	42213.47299730316
0.7488769697417158	41804.6553560409
0.749001782570006	41395.76957850559
0.7491266162004343	40986.81565334082
0.7492514706364677	40577.793569188325
0.7493763458815739	40168.703314688064
0.7495012419392209	39754.27281046249
0.7496261588128773	39332.19400844277
0.7497510965060128	38910.04485995576
0.7498760550220971	38487.82535327748
0.7500010343646007	38065.53547668136
0.7501260345369949	37643.17521843893
0.750251055542751	37220.744566820606
0.7503760973853414	36798.243510093416
0.7505011600682389	36382.977678994954
0.750626243594917	35973.74268133626
0.7507513479688495	35564.43947784524
0.7508764731935109	35155.068057153505
0.7510016192723765	34745.62840789155
0.7511267862089218	34336.120518688425
0.7512519740066232	33926.54437817029
0.7513771826689577	33516.89997496184
0.7515024121994025	33129.07674195009
0.7516276626014359	32751.394960767517
0.751752933878536	32373.650232622076
0.7518782260341824	31995.842547021817
0.7520035390718548	31617.97189347379
0.7521288729950334	31240.0382614837
0.7522542278071992	30862.041640554915
0.7523796035118337	30483.982020189127
0.7525050001124189	30104.445798898392
0.7526304176124378	29724.538897144284
0.7527558560153731	29344.568677573705
0.752881315324709	28964.53512963283
0.7530067955439299	28584.43824276716
0.7531322966765205	28204.278006420853
0.7532578187259665	27824.054410035038
0.7533833616957542	27443.76744304984
0.75350892558937	27069.256029553842
0.7536345104103016	26694.956760883535
0.7537601161620366	26320.595109001977
0.7538857428480638	25946.17106351141
0.7540113904718717	25571.684614013742
0.7541370590369503	25197.13575010791
0.7542627485467898	24822.524461391193
0.7543884590048808	24450.575566730116
0.7545141904147151	24105.736986825777
0.7546399427797842	23760.840933825344
0.7547657161035808	23415.887398149353
0.754891510389598	23070.876370217436
0.7550173256413296	22725.807840447393
0.7551431618622698	22380.681799255803
0.7552690190559135	22035.49823705742
0.7553948972257561	21692.018923145344
0.7555207963752938	21354.39599110355
0.755646716508023	21016.71678857327
0.755772657627441	20678.98130617579
0.7558986197370455	20341.18953453119
0.756024602840335	20003.34146425807
0.7561506069408084	19665.43708597324
0.7562766320419653	19327.476390291726
0.7564026781473054	18991.413457810366
0.75652874526033	18658.733191872852
0.7566548333845401	18325.997479224174
0.7567809425234375	17993.206310623507
0.7569070726805247	17660.359676828266
0.7570332238593047	17327.4575685941
0.7571593960632813	16994.499976674913
0.7572855892959586	16661.48689182372
0.7574118035608413	16344.807614199599
0.7575380388614347	16044.109752961345
0.7576642952012449	15743.36177541277
0.7577905725837782	15442.563673201706
0.7579168710125422	15141.715437973071
0.7580431904910444	14840.817061371783
0.7581695310227928	14539.868535041443
0.7582958926112967	14238.869850623003
0.7584222752600652	13948.57991929994
0.7585486789726085	13664.422194993655
0.7586751037524372	13380.217111066544
0.7588015496030628	13095.964659624891
0.7589280165279966	12811.664832775226
0.7590545045307512	12527.317622621089
0.7591810136148396	12242.923021265264
0.7593075437837755	11958.481020808793
0.7594340950410726	11690.43325423202
0.7595606673902461	11427.111134346578
0.7596872608348112	11163.74512744089
0.7598138753782836	10900.335226201008
0.75994051102418	10636.881423310673
0.7600671677760173	10373.383711453396
0.7601938456373134	10109.842083310608
0.7603205446115863	9846.256531563276
0.7604472647023548	9596.427388692808
0.7605740059131385	9347.92835975956
0.7607007682474575	9099.38791432125
0.7608275517088319	8850.806045475918
0.7609543563007835	8602.18274631856
0.7610811820268336	8353.518009944826
0.7612080288905045	8104.81182944884
0.7613348968953197	7856.447936294125
0.7614617860448022	7615.916113239472
0.7615886963424764	7375.344201547315
0.7617156277918667	7134.732194536776
0.7618425803964988	6894.08008552487
0.7619695541598982	6653.387867828193
0.7620965490855914	6412.655534762077
0.7622235651771058	6171.883079640172
0.7623506024379685	5936.685350164635
0.7624776608717082	5726.05894076317
0.7626047404818536	5515.397426960129
0.7627318412719337	5304.700802905149
0.762858963245479	5093.969062746029
0.7629861064060198	4883.202200630196
0.7631132707570876	4672.400210703791
0.7632404563022137	4461.563087112588
0.7633676630449308	4256.504545456497
0.7634948909887717	4063.7873100874867
0.7636221401372697	3871.037955179499
0.7637494104939593	3678.2564753788456
0.7638767020623748	3485.4428653318364
0.7640040148460518	3292.597119682933
0.7641313488485262	3099.719233076429
0.7642587040733344	2906.8092001552723
0.7643860805240132	2718.1188900750412
0.7645134782041005	2534.4708924909273
0.7646408971171346	2350.7922869071394
0.764768337266654	2167.083068222488
0.7648957986561985	1983.3432313346632
0.7650232812893079	1799.5727711407148
0.7651507851695227	1615.7716825367322
