#wavelength	surface flux
0.7	3267075.7755794064
0.7001166666666666	3274178.5515540373
0.7002333527777778	3275563.525735679
0.700350058336574	3276948.73074635
0.7004667833462966	3278334.166624521
0.7005835278101878	3279719.8334086756
0.7007002917314895	3281105.731137292
0.7008170751134447	3282491.859848863
0.7009338779592968	3283878.2195818853
0.7010507002722901	3283985.381541073
0.7011675420556689	3282535.5815300047
0.701284403312678	3281085.539885604
0.7014012840465635	3279635.2565675937
0.7015181842605713	3278184.7315356974
0.701635103957948	3276733.96474963
0.701752043141941	3275282.956169099
0.701869001815798	3273831.705753802
0.7019859799827672	3271234.7062245747
0.7021029776460976	3267840.0653247614
0.7022199948090387	3264444.8586514606
0.7023370314748403	3261049.0861103823
0.7024540876467528	3257652.747607215
0.702571163328027	3254255.843047635
0.7026882585219152	3250858.372337287
0.7028053732316688	3247460.335381825
0.7029225074605406	3251192.0016846787
0.7030396612117841	3257677.614026152
0.7031568344886527	3264164.307303017
0.7032740272944008	3270652.081695424
0.7033912396322832	3277140.937383566
0.7035084715055552	3283630.8745476496
0.7036257229174727	3290121.89336793
0.7037429938712924	3296613.9940246865
0.7038602843702709	3302468.467954919
0.7039775944176659	3308215.587953975
0.7040949240167356	3313963.6658063666
0.7042122731707383	3319712.7016717307
0.7043296418829335	3325462.6957097417
0.7044470301565806	3331213.648080092
0.70456443799494	3336965.558942499
0.7046818654012724	3342718.4284567204
0.7047993123788394	3346286.8601659127
0.7049167789309024	3349853.3787741163
0.7050342650607243	3353420.491802093
0.7051517707715678	3356988.1993489065
0.7052692960666963	3360556.5015136423
0.705386840949374	3364125.398395404
0.7055044054228656	3367694.890093319
0.7056219894904361	3371070.3357208036
0.7057395931553511	3373209.421178837
0.705857216420877	3375348.863151115
0.7059748592902804	3377488.661697054
0.7060925217668288	3379628.816876086
0.70621020385379	3381769.328747648
0.7063279055544321	3383910.197371185
0.7064456268720246	3386051.422806163
0.7065633678098366	3388545.2276491504
0.7066811283711383	3392009.4754523397
0.7067989085592001	3395474.300630163
0.7069167083772933	3398939.703278847
0.7070345278286895	3402405.683494641
0.707152366916661	3405872.2413738053
0.7072702256444803	3409339.3770126123
0.7073881040154211	3412807.0905073634
0.7075060020327569	3414327.368363821
0.7076239196997625	3413010.915140775
0.7077418570197124	3411694.2425088603
0.7078598139958823	3410377.350431507
0.7079777906315483	3409060.2388721392
0.7080957869299869	3407742.9077941794
0.7082138028944751	3406425.357161041
0.7083318385282908	3405107.586936129
0.7084498938347124	3403423.637456491
0.708567968817018	3401429.139269683
0.7086860634784875	3399434.308666508
0.7088041778224007	3397439.1455915645
0.7089223118520377	3395443.6499894443
0.7090404655706796	3393447.821804725
0.709158638981608	3391451.6609819722
0.709276832088105	3389455.167465749
0.7093950448934531	3392017.412278097
0.7095132774009353	3396754.354311451
0.7096315296138355	3401492.085835146
0.7097498015354378	3406230.6069807597
0.7098680931690269	3410969.9178798934
0.7099864045178884	3415710.018664183
0.7101047355853081	3420450.909465269
0.7102230863745722	3425192.590414819
0.7103414568889679	3421543.5707833883
0.7104598471317828	3415987.198554758
0.7105782571063047	3410429.900264093
0.7106966868158224	3404871.6757570473
0.710815136263625	3399312.524879251
0.7109336054530023	3393752.447476305
0.7110520943872445	3388191.443393794
0.7111706030696424	3382629.512477266
0.7112891315034873	3381456.276906255
0.7114076796920712	3380492.2873194898
0.7115262476386865	3379528.1370677934
0.7116448353466263	3378563.8261243887
0.711763442819184	3377599.354462493
0.711882070059654	3376634.72205532
0.7120007170713306	3375669.9288760796
0.7121193838575091	3375061.961488158
0.7122380704214853	3378177.1715287184
0.7123567767665555	3381292.9007709487
0.7124755028960166	3384409.149301388
0.7125942488131658	3387525.91720658
0.7127130145213015	3390643.2045730976
0.7128318000237216	3393761.0114875003
0.7129506053237256	3396879.3380363933
0.7130694304246129	3398121.130305586
0.7131882753296837	3392800.287502647
0.7133071400422386	3387478.5578925726
0.7134260245655789	3382155.941327567
0.7135449289030065	3376832.437659799
0.7136638530578235	3371508.0467414227
0.7137827970333332	3366182.7684245524
0.7139017608328388	3360856.602561297
0.7140207444596443	3356251.874528601
0.7141397479170543	3352934.936087984
0.7142587712083737	3349617.4448242984
0.7143778143369084	3346299.4006453995
0.7144968773059646	3342980.8034591367
0.7146159601188489	3339661.6531733437
0.7147350627788687	3336341.9496958368
0.7148541852893318	3333021.6929344176
0.7149733276535467	3330137.7288111877
0.7150924898748222	3327693.78978404
0.715211671956468	3325249.4434337206
0.7153308739017941	3322804.6896923413
0.715450095714111	3320359.5284920055
0.71556933739673	3317913.9597648033
0.7156885989529628	3315467.983442813
0.7158078803861218	3313021.5994580993
0.7159271816995193	3303480.8711461476
0.7160465028964692	3289774.8545103916
0.7161658439802853	3276066.5535385297
0.7162852049542819	3262355.9678498413
0.7164045858217744	3248643.0970635302
0.716523986586078	3234927.9407987604
0.7166434072505089	3221210.4986746204
0.716762847818384	3207490.7703101207
0.7168823082930204	3200188.8892805898
0.7170017886777359	3194774.567359346
0.7171212889758488	3189359.3430511192
0.7172408091906781	3183943.2162055057
0.7173603493255433	3178526.186672083
0.7174799093837642	3173108.254300408
0.7175994893686615	3167689.418940002
0.7177190892835562	3162269.680440372
0.7178387091317702	3164871.301273713
0.7179583489166254	3168278.653475244
0.7180780086414448	3171686.5735688116
0.7181976883095517	3175095.0616490617
0.7183173879242699	3178504.1178106586
0.718437107488924	3181913.742148283
0.7185568470068389	3185323.934756632
0.7186766064813399	3188430.901354873
0.7187963859157535	3183942.8568861103
0.7189161853134061	3179454.064409937
0.719036004677625	3174964.523801683
0.7191558440117378	3170474.2349366643
0.7192757033190732	3165983.1976901614
0.7193955826029597	3161491.4119374566
0.7195154818667269	3156998.877553789
0.7196354011137046	3151850.551173565
0.7197553403472235	3143685.430568672
0.7198752995706147	3135518.9491103473
0.7199952787872098	3127351.1065717745
0.720115278000341	3119181.9027261124
0.7202352972133411	3111011.3373464746
0.7203553364295432	3102839.410205953
0.7204753956522815	3094666.1210775627
0.7205954748848902	3088879.4161395496
0.7207155741307044	3088356.27608981
0.7208356933930594	3087833.0488500623
0.7209558326752915	3087309.734405775
0.7210759919807375	3086786.332742413
0.7211961713127342	3086262.843845441
0.7213163706746197	3085739.2677003187
0.7214365900697322	3085215.6042925064
0.7215568295014103	3082859.5014159004
0.721677088972994	3078316.7010074607
0.7217973684878227	3073773.1434656275
0.7219176680492374	3069228.828664198
0.7220379876605789	3064683.756476972
0.722158327325189	3060137.926777712
0.7222786870464099	3055591.3394401716
0.7223990668275843	3051043.9943380733
0.7225194666720555	3044595.1370002897
0.7226398865831676	3036798.0926635764
0.7227603265642646	3028999.7488194923
0.722880786618692	3021200.105251417
0.7230012667497951	3013399.161742753
0.7231217669609201	3005596.9180768356
0.7232422872554135	2997793.3740369817
0.7233628276366229	2989988.5294064404
0.7234833881078956	2983545.058857798
0.7236039686725803	2977617.869464809
0.7237245693340255	2971689.6922069304
0.7238451900955812	2965760.526919498
0.7239658309605971	2959830.3734378577
0.7240864919324239	2953899.2315972964
0.7242071730144127	2947967.1012330945
0.724327874209915	2942033.9821805106
0.7244485955222832	2929634.9347833106
0.7245693369548704	2916164.897752292
0.7246900985110294	2902692.615715122
0.7248108801941148	2889218.088297576
0.7249316820074803	2875741.3151255064
0.7250525039544815	2862262.295824552
0.7251733460384739	2848781.030020379
0.7252942082628137	2835309.8766292697
0.7254150906308574	2828997.8425270584
0.7255359931459625	2822684.7564191627
0.7256569158114868	2816370.618130247
0.7257778586307888	2810055.4274849473
0.7258988216072273	2803739.1843078746
0.7260198047441617	2797421.888423613
0.7261408080449525	2791103.539656693
0.72626183151296	2784747.8727422142
0.7263828751515454	2778150.1442233017
0.7265039389640706	2771551.3160829707
0.726625022953898	2764951.388137946
0.7267461271243904	2758350.360204927
0.7268672514789111	2751748.23210059
0.7269883960208241	2745145.003641575
0.7271095607534942	2738540.674644479
0.7272307456802866	2731070.9656723174
0.7273519508045666	2721265.384871049
0.7274731761297006	2711458.1698063184
0.7275944216590555	2701649.320205744
0.7277156873959987	2691838.835796899
0.7278369733438982	2682026.716307304
0.727958279506122	2672212.9614644866
0.7280796058860397	2662397.57099585
0.7282009524870207	2650684.4417125937
0.7283223193124353	2636164.8128782534
0.7284437063656539	2621642.764105804
0.7285651136500483	2607118.2949918685
0.7286865411689898	2592591.405133111
0.7288079889258514	2578062.0941260085
0.7289294569240056	2563530.3615671047
0.7290509451668262	2548996.207052758
0.7291724536576875	2537114.6693147905
0.7292939823999636	2527431.137053231
0.7294155313970303	2517745.990869608
0.7295371006522632	2508059.230494957
0.7296586901690385	2498370.8556602513
0.7297802999507332	2488680.866096411
0.7299019300007252	2478989.261534285
0.7300235803223919	2469296.0417047576
0.7301452509191123	2461192.9309379505
0.7302669417942654	2453823.161099442
0.7303886529512311	2446452.1629659575
0.7305103843933897	2439079.9363327823
0.7306321361241218	2431706.480995174
0.7307539081468093	2424331.79674833
0.7308757004648336	2416955.8833874604
0.7309975130815778	2409578.740707688
0.7311193460004248	2402512.6806568154
0.7312411992247582	2395516.146413659
0.7313630727579622	2388518.4460814637
0.7314849666034219	2381519.5794658726
0.7316068807645224	2374519.5463725165
0.7317288152446498	2367518.346606975
0.7318507700471907	2360515.979974802
0.7319727451755319	2353512.4462815267
0.732094740633061	2342743.954181421
0.7322167564231665	2331804.220262998
0.7323387925492371	2320862.663055587
0.7324608490146619	2309919.282255312
0.732582925822831	2298974.077558234
0.7327050229771347	2288027.048660386
0.7328271404809642	2277078.19525771
0.7329492783377112	2266118.0047155377
0.7330714365507675	2255062.471198387
0.7331936151235259	2244005.09509232
0.7333158140593796	2232945.8760902476
0.7334380333617229	2221884.813884991
0.7335602730339499	2210821.9081693627
0.7336825330794556	2199757.158636112
0.7338048135016354	2188690.564977961
0.7339271143038857	2178135.535097736
0.734049435489603	2169299.015596274
0.7341717770621846	2160461.0233415603
0.7342941390250283	2151621.558088142
0.7344165213815324	2142780.619590518
0.734538924135096	2133938.2076031314
0.7346613472891185	2125094.3218804253
0.734783790847	2116248.9621767625
0.7349062548121412	2105053.4100171444
0.7350287391879431	2089704.5365384673
0.7351512439778078	2074353.104914179
0.7352737691851374	2058999.114717972
0.735396314813335	2043642.5655233853
0.7355188808658037	2028283.4569039582
0.7356414673459482	2012921.788433063
0.7357640742571725	1997557.5596841
0.7358867016028818	1984042.623558981
0.7360093493864824	1972354.307107258
0.7361320176113801	1960664.0426028087
0.736254706280982	1948971.8297209418
0.7363774153986956	1937277.6681369129
0.7365001449679286	1925581.5575259773
0.7366228949920899	1913883.4975632636
0.7367456654745885	1902183.4879238897
0.7368684564188344	1890689.3234789562
0.7369912678282374	1879310.6848056023
0.7371140997062088	1867930.1496924649
0.7372369520561599	1856547.7178234644
0.7373598248815024	1845163.3888825115
0.7374827181856494	1833777.1625533826
0.7376056319720137	1822389.0385198647
0.7377285662440091	1810999.0164656725
0.7378515210050496	1797631.5490208662
0.7379744962585505	1783667.4716554293
0.738097492007927	1769701.0669437686
0.7382205082565949	1755732.334497998
0.738343545007971	1741761.2739301557
0.7384666022654723	1727787.8848522047
0.7385896800325165	1713812.1668760953
0.7387127783125219	1699834.1196136388
0.7388358971089073	1691894.295633082
0.7389590364250921	1684559.0308031077
0.7390821962644963	1677222.5434289894
0.7392053766305403	1669884.8333069861
0.7393285775266454	1662545.9002332909
0.7394517989562333	1655205.7440040759
0.7395750409227259	1647864.3644155015
0.7396983034295463	1640365.7797162232
0.739821586480118	1629396.0196472688
0.7399448900778645	1618424.431284991
0.7400682142262109	1607451.01432462
0.740191558928582	1596475.7684614335
0.7403149241884034	1585498.6933906118
0.7404383100091014	1574519.7888072757
0.7405617163941028	1563539.054406516
0.7406851433468352	1552168.6191511918
0.7408085908707264	1539021.873503105
0.7409320589692048	1525872.93673075
0.7410555476456997	1512721.808468922
0.7411790569036406	1499568.4883523937
0.7413025867464579	1486412.976015842
0.7414261371775823	1473255.2710938973
0.7415497082004452	1460095.3732211422
0.7416732998184786	1447075.7337450474
0.741796912035115	1434359.511300023
0.7419205448537874	1421641.1694845941
0.7420441982779297	1408920.7079455296
0.742167872310976	1396198.1263295303
0.7422915669563612	1383473.424283262
0.7424152822175206	1370746.601453323
0.7425390180978901	1358017.657486253
0.7426627746009065	1346350.3984270124
0.7427865517300065	1335978.0510016964
0.7429103494886282	1325603.9748517983
0.7430341678802096	1315228.169689217
0.7431580069081896	1304850.6352257754
0.7432818665760077	1294471.3711732423
0.7434057468871037	1284090.3772433756
0.7435296478449182	1273707.65314786
0.7436535694528923	1262744.6075763493
0.7437775117144678	1251383.6715288516
0.7439014746330868	1240020.8419920297
0.7440254582121922	1228656.1186502753
0.7441494624552276	1217289.5011879592
0.7442734873656368	1205920.989289402
0.7443975329468645	1194550.5826388528
0.7445215992023557	1183178.2809205295
0.7446456861355559	1171957.9081723248
0.7447697937499119	1160792.3301695422
0.7448939220488703	1149624.891237095
0.7450180710358784	1138455.5910648354
0.7451422407143843	1127284.429342546
0.7452664310878367	1116111.405759959
0.7453906421596846	1104936.520006787
0.7455148739333779	1093759.7717726524
0.7456391264123667	1083002.0586995354
0.7457633996001021	1072309.8519294108
0.7458876935000356	1061615.8631248053
0.7460120081156189	1050920.0919887528
0.7461363434503048	1040222.5382241728
0.7462606995075466	1029523.2015339555
0.7463850762907978	1018822.0816209727
0.7465094738035127	1008120.6739469744
0.7466338920491467	997808.7649292279
0.746758331031155	987495.1372599682
0.7468827907529935	977179.7906527759
0.7470072712181189	966862.7248211487
0.7471317724299886	956543.9394785477
0.7472562943920602	946223.4343383968
0.7473808371077922	935901.2091140465
0.7475054005806435	925579.080662928
0.7476299848140736	915266.4247520771
0.7477545898115426	904952.0500652387
0.7478792155765113	894635.95631595
0.7480038621124406	884318.1432177112
0.7481285294227926	873998.6104839585
0.7482532175110298	863677.3578280726
0.7483779263806148	853354.3849634251
0.7485026560350116	843162.1092804138
0.7486274064776842	833326.5183688155
0.748752177712097	823489.288192083
0.7488769697417158	813650.4184769669
0.749001782570006	803809.9089502434
0.7491266162004343	793967.7593386017
0.7492514706364677	784123.9693686869
0.7493763458815739	774278.5387671005
0.7495012419392209	764493.5607103169
0.7496261588128773	754796.2185577505
0.7497510965060128	745097.2601814851
0.7498760550220971	735396.6853121606
0.7500010343646007	725694.4936803564
0.7501260345369949	715990.6850166088
0.750251055542751	706285.2590514282
0.7503760973853414	696578.2155152474
0.7505011600682389	687114.6639934648
0.750626243594917	677854.1963372945
0.7507513479688495	668592.1852698623
0.7508764731935109	659328.6305339157
0.7510016192723765	650063.5318721774
0.7511267862089218	640796.8890273374
0.7512519740066232	631528.7017420201
0.7513771826689577	622258.9697588165
0.7515024121994025	613467.8797285816
0.7516276626014359	604899.2146383382
0.751752933878536	596329.1214372612
0.7518782260341824	587757.5998873146
0.7520035390718548	579184.6497504392
0.7521288729950334	570610.2707885454
0.7522542278071992	562034.4627634906
0.7523796035118337	553457.2254370941
0.7525050001124189	545029.4806635223
0.7526304176124378	536633.1534456151
0.7527558560153731	528235.426839849
0.752881315324709	519836.30061297386
0.7530067955439299	511435.7745317246
0.7531322966765205	503033.84836280625
0.7532578187259665	494630.5218728572
0.7533833616957542	486225.79482849344
0.75350892558937	478123.95558562025
0.7536345104103016	470035.0745553321
0.7537601161620366	461944.8453782097
0.7538857428480638	453853.26782955
0.7540113904718717	445760.3416846426
0.7541370590369503	437666.0667187129
0.7542627485467898	429570.4427069504
0.7543884590048808	421537.5444077031
0.7545141904147151	414142.27028481767
0.7546399427797842	406745.763616257
0.7547657161035808	399348.0241965838
0.754891510389598	391949.051820341
0.7550173256413296	384548.8462820325
0.7551431618622698	377147.40737613605
0.7552690190559135	369744.73489709024
0.7553948972257561	362416.92126692017
0.7555207963752938	355343.30063791043
0.755646716508023	348268.5010721332
0.755772657627441	341192.5223730926
0.7558986197370455	334115.36434426776
0.756024602840335	327037.02678910666
0.7561506069408084	319957.5095110197
0.7562766320419653	312876.81231338
0.7564026781473054	305892.326597178
0.75652874526033	299078.06002853566
0.7566548333845401	292262.657748795
0.7567809425234375	285446.11956867686
0.7569070726805247	278628.4452988659
0.7570332238593047	271809.63475001085
0.7571593960632813	264989.68773272453
0.7572855892959586	258168.6040576016
0.7574118035608413	251745.7158225439
0.7575380388614347	245712.43691519278
0.7576642952012449	239678.15246135485
0.7577905725837782	233642.86229345
0.7579168710125422	227606.56624383974
0.7580431904910444	221569.26414488562
0.7581695310227928	215530.95582892263
0.7582958926112967	209491.6411282327
0.7584222752600652	203776.8676628028
0.7585486789726085	198248.15651490394
0.7586751037524372	192718.523915145
0.7588015496030628	187187.96970994197
0.7589280165279966	181656.4937457157
0.7590545045307512	176124.09586882874
0.7591810136148396	170590.77592562904
0.7593075437837755	165056.53376243068
0.7594340950410726	159951.36481976588
0.7595606673902461	154970.10246319842
0.7596872608348112	149988.0098962332
0.7598138753782836	145005.08698051234
0.75994051102418	140021.33357763418
0.7600671677760173	135036.74954919278
0.7601938456373134	130051.33475674284
0.7603205446115863	125065.08906183028
0.7604472647023548	120550.87285774139
0.7605740059131385	116082.90656465583
0.7607007682474575	111614.19561051708
0.7608275517088319	107144.73987122922
0.7609543563007835	102674.53922264157
0.7610811820268336	98203.59354061517
0.7612080288905045	93731.9027009837
0.7613348968953197	89280.75108883319
0.7614617860448022	85265.56875174507
0.7615886963424764	81249.71721759529
0.7617156277918667	77233.19637486037
0.7618425803964988	73216.0061119817
0.7619695541598982	69198.1463173936
0.7620965490855914	65179.61687950937
0.7622235651771058	61160.41768671418
0.7623506024379685	57308.44019665688
0.7624776608717082	54191.707785282604
0.7626047404818536	51074.4559185063
0.7627318412719337	47956.68450975756
0.762858963245479	44838.39347243872
0.7629861064060198	41719.582719946724
0.7631132707570876	38600.2521656594
0.7632404563022137	35480.40172294917
0.7633676630449308	32622.86764525472
0.7634948909887717	30324.34861315618
0.7636221401372697	28025.446494555283
0.7637494104939593	25726.161225599117
0.7638767020623748	23426.492742434777
0.7640040148460518	21126.44098118729
0.7641313488485262	18826.005877979685
0.7642587040733344	16525.18736891893
0.7643860805240132	14634.286297771325
0.7645134782041005	13232.682055472416
0.7646408971171346	11830.844212465878
0.764768337266654	10428.77272981935
0.7648957986561985	9026.467568591928
0.7650232812893079	7623.9286898378205
0.7651507851695227	6221.156054603907
0.7652783103003843	4818.149623930962
