#wavelength	surface flux
0.676892	242654.0551836646
0.678297	255593.05395914245
0.679702	268166.9265822064
0.681109	280521.6113334264
0.682517	292817.9846311734
0.683926	305028.5253115986
0.685337	317013.36576068134
0.686749	328853.0238671828
0.688164	340455.24869895197
0.689581	350823.02649114415
0.691	356112.7984041905
0.692422	357893.1752364938
0.693847	370385.49457807135
0.695274	386289.6863154971
0.696705	401350.5834725417
0.698139	412352.4056454616
0.699576	420290.14426203613
0.701017	425062.588620165
0.702461	430409.42512185726
0.70391	439624.45001948474
0.705362	446240.9801036393
0.706819	450947.43730410124
0.70828	455245.68591066543
0.709745	457119.567014653
0.711216	460304.68112318026
0.71269	458880.94371450366
0.71417	455393.95810067514
0.715655	444623.24353721656
0.717145	424585.8433127616
0.71864	417388.07719548565
0.72014	415203.85215505975
0.721647	414007.37403349206
0.723158	404337.8678950732
0.724676	390010.71122708684
0.726199	374635.56354043755
0.727728	365045.3855694976
0.729264	345427.5360638146
0.730805	329502.05396471213
0.732353	317145.3950803451
0.733907	301272.98797923373
0.735468	283986.28184461466
0.737035	262269.9174681097
0.738609	240702.05859554664
0.74019	223573.37906138945
0.741777	201951.71898033164
0.743372	180040.45164405962
0.744973	159117.21128280577
0.746582	138178.40955176507
0.748197	117923.92718752054
0.74982	98215.9751900814
0.751451	79560.99753660287
0.753088	62771.32925533733
0.754734	47637.67000304409
0.756386	34514.95385633069
0.758047	23707.346547144036
0.759715	15285.089833419734
0.76139	8937.570223887453
0.763074	4571.935064956537
0.764765	1782.5451388608478
0.766464	437.3337667224347
0.768172	610.3049810850107
0.769887	597.6626802950117
0.77161	2746.5169860275587
0.773341	7470.50610907995
0.775081	14948.45029484392
0.776829	25423.85084828314
0.778585	34273.94232206025
0.780349	41950.8853912743
0.782121	76582.31327209328
0.783902	112221.06061142428
0.785691	147893.38028693327
0.787489	188288.7776208437
0.789295	232386.5269777972
0.79111	273155.4962768246
0.792933	225805.10374112875
0.794764	116951.51882100987
0.796604	360880.5007307476
0.798453	521467.9567399392
0.80031	614043.8828731169
0.802176	701519.0349763014
0.804051	793260.9855763895
0.805934	886785.4794910138
0.807826	975621.6012501508
0.809727	1039444.4173106396
0.811636	1103548.5594893652
0.813554	1186177.582080015
0.81548	1342926.5455977754
0.817416	1481036.8985249915
0.81936	1597140.4493986832
0.821313	1794853.209315606
0.823274	1887847.6389828036
0.825244	2105424.6218495984
0.827223	2284630.2282611467
0.829211	2427136.1659909426
0.831208	2603699.5869355486
0.833213	2814306.3348547546
0.835227	2924424.7392201694
0.837249	3121465.785554469
0.83928	3344361.42297429
0.841321	3512427.3873393475
0.843369	3837880.1963248383
0.845427	4064559.387590142
0.847493	4461637.082635355
0.849567	4354583.847461043
0.851651	3342296.1330943736
0.853742	4204164.215479004
0.855843	5636501.510727891
0.857952	6128964.472492274
0.86007	6400894.316746387
0.862196	5965693.693029274
0.864331	6249184.422267373
0.866474	6884663.50373191
0.868626	7318234.856539075
0.870786	7654127.597977774
0.872955	7988672.314068609
0.875132	8294532.019162261
0.877317	8834312.223740881
0.879511	8937288.367167747
0.881713	9130373.77800092
0.883923	9449005.120384676
0.886142	9972005.950709946
0.888369	9711283.873737143
0.890604	9108028.1353795
0.892847	6992078.463162416
0.895099	6847632.368624074
0.897358	9762297.786641201
0.899626	11648320.644225683
0.901901	12976814.785993757
0.904185	14535024.121229388
0.906476	14582628.442818515
0.908776	15339517.355352443
0.911083	15225578.75617825
0.913398	15941813.360820139
0.915721	15626780.322434472
0.918051	13989249.17441994
0.92039	15731342.623261452
0.922736	16859310.329399977
0.925089	13849965.416675461
0.927451	6106288.73366539
0.929819	3511036.3450928587
0.932195	6040420.717715258
0.934579	5089465.531272275
0.93697	7186696.197117352
0.939369	10025785.11320771
0.941774	9148544.892310284
0.944187	4235258.366951872
0.946607	4640395.167825266
0.949035	4547993.670081099
0.951469	6184423.2218539165
0.953911	7894983.549079192
0.956359	10725788.892487418
0.958814	7718081.632093074
0.961277	5578924.832520144
0.963746	5512725.002036389
0.966222	6277335.051161529
0.968705	6827855.066159416
0.971194	12425602.58420567
0.97369	16497958.5283938
0.976193	14985340.217295483
0.978702	15656590.001885643
0.981217	14196735.432070533
0.983739	17086301.275294248
0.986268	19114433.380990203
0.988802	20384231.00514605
0.991343	22509585.465216767
0.99389	23511180.367130905
0.996444	25026980.29921952
0.999003	23709998.489833705
1.00157	24222123.645324916
1.00414	25677814.33676508
1.00672	28122526.664435003
1.0093	29986378.273583792
1.01189	32596126.57779121
1.01448	35619327.69022049
1.01708	37148263.071051784
1.01969	38649972.36470837
1.0223	38624804.400265425
1.02492	37959317.383238904
1.02754	38466624.648414925
1.03017	39774907.081620544
1.0328	44152044.94425594
1.03544	45716155.7005703
1.03808	47131261.14296245
1.04073	47548032.825619265
1.04339	48487926.56851851
1.04604	49498614.82201174
1.04871	49723229.91808167
1.05138	49083098.67086298
1.05405	50732086.55698914
1.05673	53216597.55922328
1.05941	53327271.08106972
1.0621	54573508.99805554
1.06479	54373972.18369357
1.06749	54583082.59191595
1.07019	53225254.12840258
1.07289	54514321.56028876
1.0756	55689335.65385286
1.07832	55984345.43409954
1.08104	56842045.232716925
1.08376	56478863.2297411
1.08649	53994948.57108197
1.08922	47927224.93780947
1.09195	38015988.11625947
1.09469	28749905.393649537
1.09743	27581777.677960202
1.10018	17999018.737198487
1.10293	8742311.192624833
1.10568	5856279.124770009
1.10844	12574953.367447902
1.1112	6536001.1874718005
1.11396	5349077.968003879
1.11673	6161771.369968091
1.1195	5138521.58220202
1.12228	1841522.1333170836
1.12505	1795089.203340229
1.12783	5297281.715276284
1.13062	4382015.897560071
1.13341	1620068.7485030221
1.1362	5158450.081516794
1.13899	9448782.49165046
1.14178	6852216.299105779
1.14458	4943858.330098659
1.14738	7574599.173436055
1.15019	7825086.620046863
1.153	2653789.3862551423
1.1558	2686861.0590385385
1.15862	3132690.8088827045
1.16143	3239437.0698321587
1.16425	4556277.291051933
1.16707	5137582.353464029
1.16989	4588506.337166561
1.17271	5610056.611306711
1.17554	8617151.823613513
1.17837	11638008.760100503
1.1812	14895519.327088302
1.18403	24176141.48448029
1.18686	24873290.1415736
1.1897	21701463.542927634
1.19253	30761310.724220533
1.19537	38616452.25121555
1.19822	35031585.52106518
1.20106	40098190.798681
1.2039	44403874.19769785
1.20675	47989723.46706449
1.2096	45316398.94303634
1.21245	45609977.831991464
1.2153	51971063.40619981
1.21815	55607299.19051928
1.221	59783844.39219307
1.22385	63849818.69842429
1.22671	66240150.50430356
1.22957	66350431.06847782
1.23242	67843540.99817829
1.23528	70619889.45040415
1.23814	73002418.5060319
1.241	69659481.66346481
1.24387	65475631.4598815
1.24673	74984857.57564123
1.24959	71367707.24298051
1.25245	60921435.96980758
1.25532	76252073.86497195
1.25818	82014883.21320473
1.26105	79212356.12384537
1.26392	76782098.62559183
1.26678	76356333.90127718
1.26965	76580500.81667578
1.27252	74399880.71265475
1.27538	76166996.0472035
1.27825	73408401.27963406
1.28112	66408291.812336326
1.28399	63682364.6694662
1.28686	63202272.05888616
1.28973	53530375.97170389
1.2926	49635434.722235665
1.29546	51150864.609728605
1.29833	52870596.12011277
1.3012	45161975.99686131
1.30407	52395866.056274466
1.30694	49939797.74704573
1.30981	52683120.42100113
1.31267	43703402.229373336
1.31554	44059257.180048004
1.31841	46039722.22514202
1.32128	42050111.93417829
1.32414	29416557.72113326
1.32701	22703545.956452485
1.32987	15501815.19712051
1.33274	4803490.589162797
1.3356	2305730.427765594
1.33847	634447.9337130449
1.34133	212881.5385259511
1.34419	440949.6967513516
1.34705	476528.843989775
1.34991	117358.18445284467
1.35277	32355.3224909863
1.35563	148235.02034753215
1.35849	190521.12875509448
1.36135	95459.92351057535
1.3642	132882.48979232664
1.36706	113182.64874303374
1.36991	123961.89116662803
1.37277	257077.2820693613
1.37562	274189.53876269085
1.37847	153459.74125639288
1.38132	36902.999439390915
1.38417	12945.61331146555
1.38701	44962.78801341408
1.38986	76936.4851833206
1.39271	140756.95914192236
1.39555	209510.56562035962
1.39839	159843.2878321797
1.40123	352109.41434670147
1.40407	550745.761959787
1.40691	711045.8664078098
1.40974	346279.96726808476
1.41258	93331.99686596016
1.41541	126387.81743478126
1.41824	155548.33637481293
1.42107	184374.37682326027
1.4239	161925.5958980446
1.42673	336575.5569715052
1.42955	556519.0439284524
1.43237	324091.18065653025
1.43519	392309.7897068031
1.43801	345749.6825577685
1.44083	634167.8963650451
1.44365	1088238.5124150899
1.44646	864443.5013163397
1.44927	1363435.6667705472
1.45208	1489904.7615276738
1.45489	1529970.152562814
1.45769	2174026.7060074448
1.4605	3060204.210199986
1.4633	2372924.631837682
1.4661	2495020.7266662675
1.4689	2388761.8058511647
1.47169	2916961.933589864
1.47449	2956642.283289368
1.47728	2995453.2686060653
1.48007	2480715.952805149
1.48286	3046366.573516094
1.48564	3674383.92032357
1.48842	3129260.615012071
1.4912	3259748.311719466
1.49398	3973623.133316037
1.49676	4110022.4874871247
1.49953	5868790.777855559
1.5023	7727328.326391248
1.50507	8138192.837610995
1.50784	7234056.16417185
1.51061	7375320.092443833
1.51337	9570739.009791939
1.51613	11571664.509944126
1.51888	11515162.427253315
1.52164	15539111.094448332
1.52439	17786186.34646568
1.52714	15796048.494611904
1.52989	16532673.974031342
1.53263	19515758.80682694
1.53538	21229895.977253012
1.53812	20859146.355045162
1.54086	21594498.389731217
1.54359	22442144.087497916
1.54632	26350915.15269099
1.54905	27784465.604649656
1.55178	27525353.092082135
1.5545	28217620.10544207
1.55723	28276175.05298205
1.55995	30185921.294074986
1.56266	33178920.255929533
1.56538	35614398.27972029
1.56809	37945959.37329372
1.5708	38488604.67118446
1.57351	36871921.513589546
1.57621	37713640.54662775
1.57891	37540053.62878423
1.58161	40220394.82902445
1.5843	44281299.78195547
1.587	45666350.02025847
1.58969	44272539.325816646
1.59238	41942436.73943168
1.59506	41498526.02360487
1.59774	41360746.024835564
1.60042	40924236.21691945
1.6031	38924804.59789147
1.60577	37181918.16390523
1.60844	36465324.90251175
1.61111	35654365.12031371
1.61378	33709372.20477348
1.61644	31348308.59364162
1.6191	28723914.060381755
1.62176	25860002.087908104
1.62441	23691425.983006045
1.62707	22591681.561178625
1.62971	20518707.710259672
1.63236	20103534.19165531
1.635	25973106.321951102
1.63764	34022090.71118431
1.64028	36372327.86108344
1.64292	30796610.92544621
1.64555	20119915.884786844
1.64818	16045843.857538955
1.65081	21320046.553273465
1.65343	28158569.962152205
1.65605	28563535.293699224
1.65867	27642264.13868234
1.66128	27001465.240139715
1.6639	21967816.52863172
1.66651	11037880.818996454
1.66911	6547766.152208626
1.67172	12762311.565078257
1.67432	17610229.363649942
1.67692	16563226.660119934
1.67951	14781355.338596033
1.68211	16256130.799359392
1.6847	15597930.361914745
1.68728	12222137.133213783
1.68987	11066773.259726861
1.69245	9276735.237883905
1.69503	6132885.604192886
1.6976	5778957.509260999
1.70018	7175541.984366988
1.70275	6856200.767822595
1.70531	7795720.544523294
1.70788	9820570.217433123
1.71044	10436949.63330203
1.713	12489166.186565362
1.71556	13760085.459962161
1.71811	14134494.902750464
1.72066	14929074.04994175
1.72321	13647580.158674616
1.72575	12144379.265127797
1.7283	11609647.380404152
1.73084	10726314.096577303
1.73337	9857606.580720782
1.73591	9541540.253650727
1.73844	8975869.644890849
1.74097	8356371.956890669
1.74349	7718471.05541092
1.74602	7282102.866422289
1.74854	7201933.363332466
1.75105	6530305.525098639
1.75357	4812224.850968377
1.75608	3826991.4202653426
1.75859	3982908.3286117692
1.7611	4179604.2887702845
1.7636	4106177.720533959
1.7661	3338779.8812964545
1.7686	2542048.4499024996
1.7711	2336275.0864034584
1.77359	2007977.471659482
1.77608	1429957.2134245122
1.77857	1144447.0346705941
1.78105	1218006.3975543156
1.78354	1263995.6978036053
1.78602	992409.8252078797
1.78849	717642.5191496206
1.79097	600937.825646026
1.79344	548398.4742514824
1.79591	665402.1741068894
1.79837	836666.8773162211
1.80084	540087.9865363941
1.8033	256137.89491465606
1.80576	189151.55212823613
1.80821	172976.06436233327
1.81067	142359.75372342666
1.81312	115278.87999436965
1.81557	109435.79168384193
1.81801	113278.8552237182
1.82046	111312.62754058294
1.8229	116731.66214519467
1.82533	103711.17475042229
1.82777	84729.07835620738
1.8302	87317.47274984526
1.83263	100173.6766888584
1.83506	96774.95597547431
1.83749	97052.7192418159
1.83991	188616.61191558652
1.84233	393545.8000019181
1.84475	612565.1503555548
1.84716	611120.4685064555
1.84957	406013.09613533266
1.85198	265291.6351745252
1.85439	201784.62253229003
1.8568	279071.5864499118
1.8592	357297.5003533252
1.8616	260492.40771203046
1.864	184792.60216201548
1.86639	228202.87647465005
1.86878	239303.49568043064
1.87118	166851.3801432263
1.87356	183763.32512716946
1.87595	393228.5516634934
1.87833	828838.2928840171
1.88071	1192132.599993743
1.88309	964714.1820220107
1.88547	670055.2037878975
1.88784	640524.7583358914
1.89021	629217.7123837355
1.89258	1242775.586273454
1.89494	2014538.5131555349
1.89731	1509304.348595297
1.89967	621757.9460072102
1.90203	220615.649879991
1.90439	302410.8624364366
1.90674	575857.7344674248
1.90909	618150.0071544702
1.91144	382558.95356368425
1.91379	176867.62772489118
1.91613	127704.01579953231
1.91848	115548.84716621146
1.92082	86918.3756715468
1.92315	85047.19552431327
1.92549	118050.83488924766
1.92782	137840.43567413208
1.93015	156353.76180770295
1.93248	200080.86544108007
1.93481	261010.7603963933
1.93713	322714.8244266707
1.93945	400260.36417892115
1.94177	505034.5122493019
1.94409	524863.713062833
1.94641	453350.34995524073
1.94872	516107.5924078905
1.95103	632171.861269877
1.95334	460702.5799879484
1.95564	322280.76551832375
1.95795	349602.01434438303
1.96025	431370.3365414966
1.96255	578288.1320944505
1.96484	894685.2850969518
1.96714	1409492.8651677934
1.96943	1881841.7964276012
1.97172	1915048.4634531916
1.97401	1552143.3451626839
1.97629	1463652.860148044
1.97858	1557790.3634428564
1.98086	1912437.4850940534
1.98314	2745051.1230155444
1.98541	3425846.0970222405
1.98769	3343592.760937151
1.98996	2690213.278464282
1.99223	2482055.274304264
1.9945	2933932.28755018
1.99677	3183263.4800078124
1.99903	3343268.5561269317
2.00129	3577105.7594857537
2.00355	3788661.1451653615
2.00581	4027211.488408999
2.00806	4737834.269871503
2.01031	5943750.680212942
2.01256	6605486.917273413
2.01481	6371576.038965829
2.01706	6086646.819283608
2.0193	6518956.804583685
2.02154	7712805.526347676
2.02378	8672776.365876697
2.02602	8546189.640955422
2.02825	8397648.819293419
2.03049	8562405.801511282
2.03272	9059551.272897702
2.03494	9672537.354863996
2.03717	10091382.231915213
2.03939	10461520.311307132
2.04162	10880531.831780346
2.04384	11956753.529357834
2.04605	13527354.783586953
2.04827	14751323.943697726
2.05048	14269031.632169448
2.05269	13063350.412622627
2.0549	13446071.815026231
2.05711	14738158.657902418
2.05931	15902483.553053008
2.06151	16180572.059115555
2.06371	15947458.462413915
2.06591	16422874.260497011
2.06811	17093299.741160974
2.0703	17509173.64917938
2.07249	17416356.16774367
2.07468	16824501.918303512
2.07686	16510640.147008253
2.07905	16557604.456964582
2.08123	16672284.533675313
2.08341	16735497.248889051
2.08559	16833525.918877196
2.08776	17061359.35985638
2.08994	17239586.45778299
2.09211	17253206.63402118
2.09428	17132932.263041202
2.09645	17136240.630728032
2.09861	16964557.271913987
2.10077	16614541.848871179
2.10293	16169390.233473923
2.10509	15716027.85867499
2.10725	15338875.677814754
2.1094	15289317.511779744
2.11155	15360343.507203138
2.1137	15409256.728740664
2.11585	15261823.314682977
2.11799	15024213.409745589
2.12013	14873549.577804174
2.12227	14802796.24874978
2.12441	14780123.768634357
2.12655	14605105.004922388
2.12868	14408595.435110241
2.13081	14263693.52694775
2.13294	14138592.121650139
2.13507	13756583.849850716
2.13719	13286450.123795392
2.13931	12821127.642675214
2.14143	12297363.090992244
2.14355	11454525.531798499
2.14567	11125868.256613716
2.14778	10924802.454901846
2.14989	10690593.720889766
2.152	10175988.00118107
2.1541	10173153.217528148
2.15621	10194701.588314496
2.15831	10083900.965112641
2.16041	9586828.166551327
2.16251	9420923.760486225
2.1646	9277428.969089892
2.1667	9087483.58614704
2.16879	8870004.78136875
2.17087	8553726.67341032
2.17296	8223761.206220563
2.17504	7919782.6485597715
2.17713	7637812.962293616
2.1792	7347608.611053745
2.18128	7040779.331178199
2.18336	6711013.568114267
2.18543	6344787.34688263
2.1875	5965262.497329932
2.18957	5522619.118764133
2.19163	4796875.326164892
2.1937	3891174.1861197874
2.19576	2998693.671733441
2.19782	2209833.8958261535
2.19987	1687926.8340659945
2.20193	1343342.442363894
2.20398	1181452.9381413553
2.20603	1274270.7137118578
2.20808	1555762.96245982
2.21012	1873533.1367696277
2.21217	2151842.6253883326
2.21421	2234344.400466763
2.21625	2202986.135390631
2.21828	2072635.734429983
2.22032	1917861.7060592738
2.22235	1811869.8644514794
2.22438	1718926.0706304745
2.22641	1579789.9975709177
2.22843	1457367.6679365654
2.23046	1352917.3948346784
2.23248	1276562.3110336359
2.2345	1198788.7832862407
2.23651	1130988.2590319538
2.23853	1075446.134293714
2.24054	988139.2359323257
2.24255	870662.5236052558
2.24456	733168.8806189557
2.24657	707863.4132985665
2.24857	762200.4199372991
2.25057	859605.7066041202
2.25257	875930.3727732991
2.25457	863405.3746809505
2.25656	838235.311957922
2.25856	828567.6666400337
2.26055	780333.6406660569
2.26254	718311.5226708256
2.26453	673108.3119069453
2.26651	688904.0141281597
2.2685	742316.6059371432
2.27048	839983.1758506522
2.27246	929144.8127979579
2.27443	994847.3060691047
2.27641	981820.0296041016
2.27838	931409.2159613746
2.28036	864420.0183489925
2.28233	802234.8729266399
2.28429	755715.4128922496
2.28626	716286.8829312464
2.28823	672546.049825368
2.29019	640352.3087272956
2.29215	618316.9273830772
2.29411	629872.0598505962
2.29607	641597.4940189238
2.29802	653539.8846640931
2.29998	692033.5760483316
2.30193	784306.1386063566
2.30388	938264.7212310962
2.30583	1246548.5696444274
2.30778	1584428.2844371381
2.30972	1947430.9596596116
2.31167	2009679.965229598
2.31361	1873616.8456591563
2.31555	1360291.8759890625
2.31749	923627.6890736711
2.31943	566738.1330091273
2.32137	531778.3364860909
2.32331	534453.5721976819
2.32524	566929.1773047054
2.32718	560185.4376925192
2.32911	552126.9341034221
2.33104	543009.1528116985
2.33297	529790.2827745454
2.3349	513820.6091790398
2.33683	492030.0672212679
2.33876	464908.1896211374
2.34068	435063.722150729
2.34261	403452.59826801275
2.34453	384086.13634909975
2.34646	378381.7750789477
2.34838	412142.7306107046
2.3503	462021.54884713097
2.35223	540533.811915204
2.35415	624412.8845168322
2.35607	712475.5903255114
2.35799	820997.752854693
2.35991	927911.9995997782
2.36183	1032885.6583295518
2.36375	1000125.5879794204
2.36566	903894.3523140049
2.36758	674755.2265163579
2.3695	484246.9247478748
2.37142	318501.97171606787
2.37334	330604.03965651797
2.37526	368437.2218999559
2.37718	447603.7009226173
2.3791	507613.0751662713
2.38101	557994.7112812712
2.38293	586885.8907931205
2.38485	623813.8336648798
2.38677	668947.7349146432
2.3887	708846.5323847817
2.39062	740746.9191263586
2.39254	751107.4491666432
2.39446	759549.6288222085
2.39639	766799.6616295198
2.39831	802002.5043217422
2.40024	825092.7713358669
2.40216	823939.5632966573
2.40409	819655.8008554156
2.40602	821880.5660222784
2.40795	916495.8177165338
2.40989	1024116.6385522926
2.41182	1146495.7936099954
2.41376	1174926.1687698765
2.4157	1174455.9515775233
2.41764	1141727.114512315
2.41958	1139156.8936979878
2.42152	1161108.1646016722
2.42347	1185947.0234199653
2.42542	1234907.3094826625
2.42737	1343124.8664257408
