#wavelength	surface flux
0.8	4452064.04717995
0.8002000000000001	4512314.255472465
0.8004000500000003	4576306.600184956
0.8006001500125003	4640352.5900993375
0.8008003000500035	4704414.591511203
0.8010005001250161	4768492.608423451
0.8012007502500472	4832586.644839834
0.8014010504376099	4893951.717153615
0.8016014007002193	4954412.643747931
0.8018018010503944	5014888.685573895
0.8020022515006572	5075379.846410343
0.8022027520635323	5135886.130036948
0.8024033027515483	5198210.855295178
0.8026039035772362	5262318.340213718
0.8028045545531306	5326441.8520034915
0.8030052556917691	5390581.394671243
0.803206007005692	5454736.972224604
0.8034068085074435	5519056.646285136
0.8036076602095705	5583807.427470533
0.8038085621246229	5648574.396351175
0.8040095142651542	5713357.556974077
0.8042105166437206	5778156.913387113
0.8044115692728815	5842920.601381987
0.8046126721651998	5905469.535169518
0.8048138253332411	5968034.106190444
0.8050150287895745	6030614.318354184
0.805216282546772	6093210.175570948
0.8054175866174087	6155821.681751983
0.8056189410140631	6220439.571826261
0.8058203457493168	6285637.122366662
0.8060218008357541	6350850.972294616
0.8062233062859632	6416081.125685084
0.8064248621125346	6481327.586613854
0.806626468328063	6549200.238341474
0.8068281249451449	6619331.428722544
0.8070298319763813	6689480.1519012945
0.8072315894343755	6759646.4122607885
0.8074333973317341	6829830.214185398
0.8076352556810671	6895576.014797664
0.8078371644949874	6950613.005604447
0.8080391237861113	7005663.755658944
0.8082411335670578	7060728.268400921
0.8084431938504498	7115806.54727114
0.8086453046489125	7170581.908201893
0.8088474659750746	7219474.80892554
0.8090496778415686	7268379.932874434
0.809251940261029	7317297.283104279
0.8094542532460944	7366226.862671724
0.8096566168094059	7415168.674634004
0.8098590309636085	7474606.506532668
0.8100614957213493	7536513.0132506415
0.8102640110952797	7598434.996595303
0.8104665770980536	7660372.4604358245
0.8106691937423283	7722325.408642329
0.8108718610407639	7785221.092995583
0.8110745790060241	7848841.519078609
0.8112773476507757	7912477.850268211
0.8114801669876885	7976130.090540594
0.8116830370294355	8039798.243873008
0.8118859577886929	8099348.64604318
0.8120889292781401	8150328.126204836
0.8122919515104597	8201320.351236531
0.8124950244983374	8252325.324324486
0.8126981482544621	8303343.048655705
0.8129013227915257	8356395.432495124
0.8131045481222237	8432612.201681836
0.8133078242592543	8508848.025060851
0.8135111512153191	8585102.90739569
0.813714529003123	8661376.853451125
0.8139179576353739	8737669.867993085
0.8141214371247829	8849003.330871899
0.8143249674840641	8967155.860798215
0.814528548725935	9085337.928856943
0.8147321808631167	9203549.542432845
0.8149358639083326	9321790.708912104
0.8151395978743097	9421575.04341394
0.8153433827737784	9508894.141760444
0.8155472186194719	9596235.069881503
0.8157511054241268	9683597.833234577
0.815955043200483	9770982.437278546
0.8161590319612831	9849896.89699211
0.8163630717192736	9913270.547894489
0.8165671624872033	9976660.042209523
0.8167713042778252	10040065.383898199
0.8169754971038948	10103486.57692233
0.8171797409781707	10136827.024668127
0.8173840359134155	9929905.323925918
0.8175883819223938	9722931.892758762
0.8177927790178745	9515906.718233695
0.8179972272126291	9308829.787414944
0.8182017265194322	9101701.087363698
0.8184062769510622	9078412.122141754
0.8186108785203001	9083415.51741442
0.8188155312399301	9088420.163535897
0.8190202351227402	9093426.06081891
0.819224990181521	9098433.209576242
0.8194297964290664	9382003.427368032
0.8196346538781738	9833547.178945215
0.8198395625416434	10285203.816460114
0.8200445224322789	10736973.368134582
0.820249533562887	11188855.862196835
0.8204545959462778	11535901.105105931
0.8206597095952644	11714118.560659818
0.8208648745226633	11892380.570577733
0.8210700907412941	12070687.145998098
0.8212753582639793	12249038.298062138
0.8214806771035456	12411928.577165386
0.8216860472728215	12479327.049619194
0.8218914687846397	12546742.37169112
0.822096941651836	12614174.5475936
0.822302465887249	12681623.581540013
0.8225080415037209	12749089.47774495
0.8227136685140968	12813393.837631775
0.8229193469312254	12877353.458463423
0.8231250767679583	12941329.069200298
0.8233308580371503	13005320.673839822
0.8235366907516598	13069328.276380556
0.8237425749243477	13215258.331940332
0.8239485105680789	13404636.728974277
0.824154497695721	13594062.470607359
0.824360536320145	13783535.568675885
0.8245666264542252	13973056.035018919
0.8247727681108388	14135292.599919679
0.8249789613028664	14258426.184673455
0.8251852060431922	14381590.552823527
0.825391502344703	14504785.71206558
0.8255978502202894	14628011.670097556
0.8258042496828445	14751325.761216734
0.8260107007452654	14874949.091518244
0.8262172034204517	14998603.327652203
0.8264237577213068	15122288.47734523
0.8266303636607373	15246004.548325732
0.8268370212516525	15369751.54832392
0.8270437305069654	15447787.031397667
0.8272504914395923	15522267.547874462
0.8274573040624523	15596766.684480391
0.8276641683884679	15671284.445870409
0.8278710844305652	15745820.836700862
0.8280780522016729	15851061.97701706
0.8282850717147234	15970355.994136661
0.8284921429826521	16089679.83476042
0.8286992660183978	16209033.506344428
0.8289064408349024	16328417.01634625
0.8291136674451112	16443980.732372783
0.8293209458619727	16554719.13637695
0.8295282760984382	16665485.224981975
0.829735658167463	16776279.005109277
0.8299430920820048	16887100.48368147
0.8301505778550254	16999542.88021828
0.8303581154994891	17118372.365373075
0.8305657050283641	17237231.55789928
0.8307733464546212	17356120.465223525
0.8309810397912352	17475039.094774794
0.8311887850511829	17593987.453983217
0.8313965822474458	17769427.443732932
0.8316044313930077	17947531.988624267
0.8318123325008561	18125681.05965199
0.8320202855839813	18303874.66794738
0.8322282906553774	18482112.824644864
0.8324363477280413	18617057.532590363
0.8326444568149735	18734588.247465465
0.8328526179291771	18852148.345019154
0.8330608310836596	18969737.832597405
0.8332690962914304	19087356.717547398
0.8334774135655034	19179473.292045787
0.833685782918895	19243093.131396797
0.8338942043646247	19306728.8757076
0.834102677915716	19370380.52895453
0.834311203585195	19434048.09511472
0.8345197813860912	19512640.228162628
0.8347284113314379	19641435.91932907
0.8349370934342709	19770263.809418228
0.8351458277076294	19899123.90647975
0.8353546141645565	20028016.218565755
0.8355634528180977	20156940.753729727
0.8357723436813022	20236220.471334055
0.8359812867672226	20314906.623894263
0.8361902820889144	20393612.44799257
0.8363993296594368	20472337.948546927
0.8366084294918518	20551083.13047645
0.8368175815992247	20721200.78548502
0.8370267859946247	20922823.80797419
0.8372360426911234	21124497.236218918
0.8374453517017962	21326221.082820687
0.8376547130397217	21527995.360384084
0.8378641267179816	21692884.270779558
0.8380735927496613	21821164.477655716
0.8382831111478488	21949476.75458352
0.8384926819256358	22077821.109580487
0.8387023050961173	22206197.550666314
0.8389119806723914	22330983.674014606
0.8391217086675596	22445606.343294065
0.8393314890947265	22560257.66824076
0.8395413219670003	22674937.6560187
0.8397512072974922	22789646.313793667
0.8399611450993165	22903689.64196834
0.8401711353855914	22983297.353068903
0.8403811781694378	23062924.966097225
0.8405912734639802	23142572.48602882
0.8408014212823464	23222239.917840436
0.8410116216376671	23301927.266509995
0.8412218745430766	23403947.737173505
0.8414321800117124	23512485.993163545
0.8416425380567154	23621051.383717634
0.8418529486912297	23729643.91561939
0.8420634119284025	23838263.595654026
0.8422739277813847	24075275.378995396
0.8424844962633302	24425440.91585039
0.842695117387396	24775693.99408915
0.8429057911667428	25126034.635597482
0.8431165176145345	25476462.862266365
0.8433272967439382	25709406.871517297
0.8435381285681244	25655618.834192313
0.8437490131002665	25601817.34985801
0.8439599503535415	25548002.41515265
0.84417094034113	25494174.02671358
0.8443819830762154	25450545.93753963
0.8445930785719846	25612663.93640668
0.8448042268416277	25774822.464773357
0.8450154278983382	25937021.532772105
0.8452266817553128	26099261.15053784
0.8454379884257517	26261541.328208037
0.8456493479228583	26521461.619140897
0.845860760259839	26804950.03314824
0.846072225449904	27088509.31925908
0.8462837435062666	27372139.49519151
0.8464953144421433	27655840.578668084
0.8467069382707537	27871711.707327053
0.8469186150053215	28034710.153096847
0.847130344659073	28197749.34847813
0.8473421272452377	28360829.3036581
0.8475539627770492	28523950.02882703
0.8477658512677435	28665823.93105582
0.8479777927305605	28762531.879728157
0.8481897871787432	28859264.005387634
0.848401834625538	28956020.31407858
0.8486139350841944	29052800.811846644
0.8488260885679657	29126089.44732204
0.8490382950901076	28912744.013279427
0.8492505546638802	28699345.24287819
0.8494628673025462	28485893.122784436
0.8496752330193721	28272387.63966034
0.8498876518276269	28058828.78016575
0.8501001237405839	26687631.558152314
0.8503126487715191	25085017.245783255
0.850525226933712	23482002.279836997
0.8507378582404455	21878586.560149267
0.8509505427050057	20274769.986530684
0.8511632803406821	19049200.862664662
0.8513760711607672	18082630.166312046
0.8515889151785576	17115817.827283837
0.8518018124073523	16148763.78517168
0.8520147628604541	15181467.979549566
0.8522277665511693	14881915.170040539
0.8524408234928071	15817644.653036619
0.8526539336986805	16753608.068403699
0.8528670971821053	17689805.47462468
0.8530803139564007	18626236.930196114
0.8532935840348901	19688441.1891799
0.8535069074308987	21811149.433511525
0.8537202841577566	23934388.354906015
0.8539337142287962	26058158.086031094
0.8541471976573534	28182458.75958763
0.8543607344567677	30307290.50831294
0.8545743246403821	30973577.478307173
0.8547879682215422	31408313.07695546
0.8550016652135977	31843157.35950335
0.8552154156299011	32278110.353121903
0.8554292194838088	32713172.084989175
0.8556430767886797	32996325.90047133
0.855856987557877	33187249.99020616
0.8560709518047664	33378221.810963303
0.8562849695427177	33569241.374675706
0.8564990407851035	33760308.693279095
0.8567131655452999	33904517.88298724
0.8569273438366862	33971906.24946387
0.8571415756726455	34039311.46303213
0.8573558610665638	34106733.52790381
0.8575702000318304	34174172.44829163
0.8577845925818384	34276238.24473625
0.857999038729984	34594516.47004454
0.8582135384896665	34912874.26490908
0.858428091874289	35231311.64922236
0.8586426988972576	35549828.642881624
0.8588573595719821	35868425.26578942
0.8590720739118751	35868784.00173009
0.8592868419303532	35831612.23871639
0.8595016636408359	35794431.18276194
0.8597165390567462	35757240.831543505
0.8599314681915105	35720041.18273726
0.8601464510585584	35098464.02119153
0.860361487671323	34166552.897262245
0.8605765780432408	33234408.795552246
0.8607917221877518	32302031.657816052
0.8610069201182988	31369421.425795678
0.8612221718483286	29646987.798443098
0.8614374773912907	26785822.372394536
0.8616528367606385	23923941.65499024
0.8618682499698288	21061345.467404783
0.8620837170323213	18198033.630772904
0.8622992379615795	15809275.977243014
0.8625148127710699	15771850.334270064
0.8627304414742627	15734415.334886365
0.8629461240846313	15696970.976752816
0.8631618606156526	15659517.25752973
0.8633776510808066	15622054.174876845
0.8635934954935769	16398029.979193576
0.8638093938674504	17240879.60197015
0.8640253462159173	18083939.93715239
0.8642413525524714	18927211.037418406
0.8644574128906095	19770692.955459315
0.8646735272438323	20224931.687126305
0.8648896956256433	20498177.05077958
0.8651059180495498	20771490.72577379
0.8653221945290621	21044872.729186483
0.8655385250776946	21318323.078100413
0.8657549097089641	21842648.298686918
0.8659713484363913	22688192.065841686
0.8661878412735006	23533947.218938634
0.866404388233819	24379913.810823742
0.8666209893308775	25226091.894356433
0.8668376445782103	25870594.917358022
0.8670543539893549	25691257.34508731
0.8672711175778525	25511874.938423406
0.8674879353572469	25332447.68615804
0.8677048073410862	25152975.577079535
0.8679217335429217	24973458.599973653
0.8681387139763074	25310390.1940588
0.8683557486548015	25673064.099777017
0.8685728375919655	26035828.673972107
0.8687899808013633	26398683.93930996
0.8690071782965637	26761629.918464612
0.869224430091138	26640139.629633814
0.8694417361986609	26321465.54261983
0.8696590966327107	26002711.787084162
0.869876511406869	25683878.343109597
0.8700939805347206	25364965.190774187
0.8703115040298544	25170739.18424404
0.870529081905862	25119109.25201344
0.8707467141763385	25067466.4122998
0.8709644008548827	25015810.661876235
0.8711821419550964	24964141.997515094
0.8713999374905854	24913703.025123864
0.871617787474958	24867540.118255235
0.8718356919218269	24821365.670659844
0.8720536508448075	24775179.679452553
0.8722716642575187	24728982.14174749
0.8724897321735832	24682773.054657977
0.8727078546066265	25122268.246704187
0.8729260315702784	25569262.643681474
0.873144263078171	26016368.78925753
0.8733625491439405	26463586.711370025
0.8735808897812266	26910916.437963217
0.8737992850036719	26897957.532370012
0.874017734824923	26721929.112742286
0.8742362392586293	26545856.68600972
0.874454798318444	26369740.24117048
0.8746734120180236	26193579.76722005
0.8748920803710283	26074487.815081343
0.875110803391121	26012758.772625476
0.8753295810919689	25951014.297908958
0.875548413487242	25889254.387073763
0.8757673005906139	25827479.03626086
0.8759862424157616	26131745.737517383
0.8762052389763657	27495293.145103127
0.8764242902861098	28859181.43953982
0.8766433963586814	30223410.706050485
0.8768625572077712	31587981.029878203
0.8770817728470732	32935288.617132466
0.8773010432902849	32908466.565649755
0.8775203685511077	32881637.808654137
0.8777397486432454	32854802.344469305
0.8779591835804065	32827960.17141839
0.8781786733763015	32801111.28782425
0.8783982180446457	31880308.78096737
0.878617817599157	30693343.576596577
0.8788374720535569	29506081.630925253
0.8790571814215703	28318522.869767807
0.8792769457169257	27130667.218920045
0.879496764953355	26655342.49718815
0.8797166391445934	26820778.039486364
0.8799365683043796	26986254.940670162
0.8801565524464557	27151773.21107925
0.8803765915845676	27317332.8610561
0.8805966857324639	27491920.457934406
0.880816834903897	27689123.238808896
0.881037039112623	27886375.320378684
0.8812572983724012	28083676.714968845
0.8814776126969944	28281027.434907738
0.8816979821001687	28480201.17757922
0.8819184065956938	28721177.55837216
0.8821388861973429	28962214.183260538
0.8823594209188923	29203311.06730491
0.882580010774122	29444468.225570183
0.8828006557768155	29685685.67312516
0.8830213559407598	30275754.23264941
0.8832421112797452	30953694.737903707
0.8834629218075651	31631804.72828391
0.8836837875380171	32310084.246161908
0.8839047084849018	32988533.333919484
0.884125684662023	32923707.67534471
0.8843467160831886	32263090.105705254
0.8845678027622095	31602307.38167339
0.8847889447129001	30941359.461960394
0.8850101419490785	30280246.305267587
0.8852313944845657	30813444.331854146
0.885452702333187	33961338.128985636
0.8856740655087704	37110018.89956595
0.8858954840251476	40259486.840338066
0.8861169578961539	43409742.14809391
0.886338487135628	46189596.534319125
0.886560071757412	44030589.70032315
0.8867817117753515	41871043.11461873
0.8870034072032955	39710956.64226692
0.8872251580550963	37550330.14829955
0.8874469643446101	35389163.49770736
0.8876688260856963	34953485.33200099
0.8878907432922178	34874922.02241005
0.8881127159780409	34796339.07199177
0.8883347441570356	34717736.475835785
0.8885568278430749	34639114.22903085
0.8887789670500358	34053117.81638038
0.8890011617917983	33107070.986552782
0.8892234120822464	32160787.6450173
0.8894457179352669	31214267.732647203
0.8896680793647509	30267511.19029826
0.8898904963845921	29585164.39861076
0.8901129690086883	29407599.393616922
0.8903354972509405	29229989.997371875
0.8905580811252535	29052336.19877763
0.8907807206455347	28874637.98673398
0.8910034158256963	28723564.30590774
0.8912261666796527	28810792.35076286
0.8914489732213227	28898042.20262922
0.8916718354646282	28985313.866958633
0.8918947534234944	29072607.34920404
0.8921177271118502	29159922.654819958
0.8923407565436284	28686494.245912742
0.8925638417327644	28121471.371850275
0.8927869826931977	27556307.242069103
0.8930101794388711	26991001.821255524
0.8932334319837308	26425555.07408683
0.8934567403417267	26135123.56368204
0.8936801045268123	26015596.881266188
0.8939035245529441	25896040.317179818
0.8941270004340824	25776453.86395238
0.894350532184191	25656837.51411166
0.8945741198172371	26614514.190306567
0.8947977633471915	29359041.858192615
0.8950214627880284	32104255.657995526
0.8952452181537254	34850155.761246756
0.8954690294582639	37596742.33952545
0.8956928967156286	40208979.38463636
0.8959168199398075	41945532.78574175
0.8961407991447926	43682520.32519785
0.8963648343445789	45419942.11153878
0.896588925553165	47157798.25332531
0.8968130727845534	48896088.85914751
0.8970372760527496	48462221.40369298
0.8972615353717629	47756410.39086832
0.8974858507556059	47050422.92529037
0.8977102222182949	46344258.962846205
0.8979346497738496	45637918.45941105
0.8981591334362931	45332341.05192048
0.8983836732196523	45245951.73414126
0.8986082691379572	45159540.81903265
0.8988329212052417	45073108.30119526
0.8990576294355432	44986654.175228335
0.8992823938429022	44838388.73395598
0.8995072144413631	44598212.79205357
0.8997320912449734	44357976.80616578
0.8999570242677847	44117680.761281565
0.9001820135238516	43877324.642386116
0.9004070590272328	43957462.57005669
0.9006321607919896	45718074.67227548
0.9008573188321878	47479126.927521616
0.9010825331618959	49240619.44583072
0.9013078037951865	51002552.33726968
0.9015331307461353	52764925.71193057
0.9017585140288219	55188198.69319305
0.9019839536573292	57668964.53942052
0.9022094496457435	60150350.577107765
0.9024350020081551	62632356.961307235
0.9026606107586572	65114983.84710196
0.902886275911347	65937868.65807732
0.9031119974803249	65960548.781715795
0.9033377754796951	65983234.575385176
0.903563609923565	66005926.040502965
0.903789500826046	66028623.178487055
0.9040154482012526	65171475.465458184
0.904241452063303	63174343.9338637
0.9044675124263188	61176713.11938677
0.9046936293044254	59178582.89720654
0.9049198027117517	57179953.142469764
0.9051460326624297	55536376.04775512
0.9053723191705955	55406412.54076882
0.9055986622503881	55276416.5429059
0.9058250619159507	55146388.04604349
0.9060515181814298	55016327.0420568
0.9062780310609752	54886233.5228192
0.9065046005687405	56824275.19201016
0.906731226718883	58878178.333687335
0.9069579095255627	60932594.95114724
0.907184649002944	62987525.17276167
0.907411445165195	65042969.12693359
0.9076382980264862	66590285.845722735
0.907865207600993	67926751.6884192
0.9080921739028933	69263551.64757593
0.9083191969463691	70600685.80672225
0.9085462767456058	71938154.249409
0.9087734133147922	71756735.34375697
0.9090006066681211	69820551.17092372
0.909227856819788	67883882.95204982
0.9094551637839932	65946730.56611852
0.9096825275749393	64009093.89209136
0.9099099482068329	62671061.63537078
0.9101374256938848	63465420.96518355
0.9103649600503083	64259978.8848284
0.9105925512903209	65054735.44395301
0.9108201994281437	65849690.69221823
0.9110479044780008	66644844.6792946
0.9112756664541204	68848387.5827154
0.911503485370734	71084714.59563056
0.9117313612420768	73321600.69029894
0.9119592940823873	75559046.0064903
0.912187283905908	77797050.68401143
0.9124153307268845	78106877.59513532
0.9126434345595664	77716763.07258052
0.9128715954182063	77326551.02139544
0.9130998133170609	76936241.41719738
0.9133280882703902	76545834.23559828
0.913556420292458	75905498.41446163
0.9137848093975312	75007348.07129209
0.9140132555998806	74108973.19053684
0.9142417589137806	73210373.71606137
0.9144703193535092	72311549.59171669
