#wavelength	surface flux
0.8	75828.78293911665
0.8002000000000001	76952.650696069
0.8004000500000003	78309.15854184829
0.8006001500125003	79668.35257050011
0.8008003000500035	81027.88639765918
0.8010005001250161	82387.76010827569
0.8012007502500472	83747.97378731788
0.8014010504376099	84924.3575161877
0.8016014007002193	86039.34401638499
0.8018018010503944	87154.60926320733
0.8020022515006572	88270.15332634187
0.8022027520635323	89385.97627549124
0.8024033027515483	90619.31423662862
0.8026039035772362	91967.84729834832
0.8028045545531306	93316.71749333352
0.8030052556917691	94665.92490586812
0.803206007005692	96015.46962025466
0.8034068085074435	97359.92420130783
0.8036076602095705	98689.50076267999
0.8038085621246229	100019.40971819145
0.8040095142651542	101349.6511509426
0.8042105166437206	102680.2251440515
0.8044115692728815	104012.94648165032
0.8046126721651998	105424.05448652925
0.8048138253332411	106835.51526840827
0.8050150287895745	108247.32891548407
0.805216282546772	109659.49551597126
0.8054175866174087	111072.01515810782
0.8056189410140631	112401.88740621581
0.8058203457493168	113708.59759082392
0.8060218008357541	115015.6344529765
0.8062233062859632	116322.99807434528
0.8064248621125346	117630.68853661849
0.806626468328063	119062.64415709513
0.8068281249451449	120601.40571751472
0.8070298319763813	122140.55196832628
0.8072315894343755	123680.08300569942
0.8074333973317341	125219.99892583246
0.8076352556810671	126571.54551571068
0.8078371644949874	127469.0668514263
0.8080391237861113	128366.81256747605
0.8082411335670578	129264.78271995427
0.8084431938504498	130162.97736497154
0.8086453046489125	131030.05206392717
0.8088474659750746	131313.76519618396
0.8090496778415686	131597.54925672416
0.809251940261029	131881.4042632793
0.8094542532460944	132165.33023358637
0.8096566168094059	132449.32718538566
0.8098590309636085	133121.52156930955
0.8100614957213493	133884.72816260796
0.8102640110952797	134648.12555755477
0.8104665770980536	135411.7138018506
0.8106691937423283	136175.49294320782
0.8108718610407639	136955.08626555878
0.8110745790060241	137746.82075496222
0.8112773476507757	138538.7531779887
0.8114801669876885	139330.88358412075
0.8116830370294355	140123.21202285387
0.8118859577886929	140643.6244937866
0.8120889292781401	140598.97428721192
0.8122919515104597	140554.31291808558
0.8124950244983374	140509.64038361696
0.8126981482544621	140464.9566810147
0.8129013227915257	140538.0711963174
0.8131045481222237	141960.13950360805
0.8133078242592543	143382.56332797563
0.8135111512153191	144805.34275829894
0.813714529003123	146228.47788348
0.8139179576353739	147651.96879244258
0.8141214371247829	150777.18647181574
0.8143249674840641	154233.10988941992
0.814528548725935	157689.8972878764
0.8147321808631167	161147.5488831872
0.8149358639083326	164606.06489139574
0.8151395978743097	167360.04348848027
0.8153433827737784	169638.11136579156
0.8155472186194719	171916.74876007135
0.8157511054241268	174195.9558136993
0.815955043200483	176475.7326690922
0.8161590319612831	179766.8083824001
0.8163630717192736	184910.7443962169
0.8165671624872033	190055.9663940315
0.8167713042778252	195202.47469735058
0.8169754971038948	200350.26962774806
0.8171797409781707	204556.21685231492
0.8173840359134155	201233.87951877998
0.8175883819223938	197910.71160091547
0.8177927790178745	194586.71289106962
0.8179972272126291	191261.88318154542
0.8182017265194322	187936.2222645972
0.8184062769510622	191888.08895648769
0.8186108785203001	196960.9753437378
0.8188155312399301	202035.12995257787
0.8190202351227402	207110.55310007586
0.819224990181521	212187.24510335748
0.8194297964290664	216653.86017115062
0.8196346538781738	220753.1041102272
0.8198395625416434	224853.3728602869
0.8200445224322789	228954.66667753583
0.820249533562887	233056.98581823788
0.8204545959462778	236734.92942834954
0.8206597095952644	239729.1209215334
0.8208648745226633	242724.06096259286
0.8210700907412941	245719.74973866215
0.8212753582639793	248716.1874369224
0.8214806771035456	251172.35068953605
0.8216860472728215	250295.76373020402
0.8218914687846397	249418.95762413213
0.822096941651836	248541.93231653326
0.822302465887249	247664.68775260798
0.8225080415037209	246787.22387754128
0.8227136685140968	245852.77889211726
0.8229193469312254	244911.65665114336
0.8231250767679583	243970.2991296089
0.8233308580371503	243028.70626869457
0.8235366907516598	242086.8780095643
0.8237425749243477	247262.30037831998
0.8239485105680789	255681.39176950944
0.824154497695721	264102.58793354133
0.824360536320145	272525.88939661585
0.8245666264542252	280951.2966850557
0.8247727681108388	286743.9592118022
0.8249789613028664	288764.4671970291
0.8251852060431922	290785.48030925397
0.825391502344703	292806.998674756
0.8255978502202894	294829.0224198512
0.8258042496828445	297282.93159151915
0.8260107007452654	301832.4812045322
0.8262172034204517	306383.1682049439
0.8264237577213068	310934.9928771069
0.8266303636607373	315487.9555054399
0.8268370212516525	320042.05637442775
0.8270437305069654	320248.00933141
0.8272504914395923	320114.1453082134
0.8274573040624523	319980.24781901104
0.8276641683884679	319846.3168554364
0.8278710844305652	319712.3524091208
0.8280780522016729	322176.26138335105
0.8282850717147234	325828.28477324627
0.8284921429826521	329481.2211689852
0.8286992660183978	333135.07079882594
0.8289064408349024	336789.8338910716
0.8291136674451112	339496.9465565982
0.8293209458619727	341008.6441800658
0.8295282760984382	342520.7197279372
0.829735658167463	344033.17329469736
0.8299430920820048	345546.00497484725
0.8301505778550254	347039.64781061537
0.8303581154994891	348455.56622137554
0.8305657050283641	349871.83861173975
0.8307733464546212	351288.4650702005
0.8309810397912352	352705.44568527816
0.8311887850511829	354122.78054550674
0.8313965822474458	361610.6276143594
0.8316044313930077	369382.09478156106
0.8318123325008561	377155.5048155618
0.8320202855839813	384930.85820206726
0.8322282906553774	392708.15542692
0.8324363477280413	396549.0188323588
0.8326444568149735	398805.2653070513
0.8328526179291771	401062.0758433598
0.8330608310836596	403319.4505823058
0.8332690962914304	405577.3896649335
0.8334774135655034	405578.9766997863
0.833685782918895	403059.5142490571
0.8338942043646247	400539.42193271674
0.834102677915716	398018.69959329546
0.834311203585195	395497.34707329137
0.8345197813860912	394576.5268470123
0.8347284113314379	399045.1395688864
0.8349370934342709	403514.86944393854
0.8351458277076294	407985.716751454
0.8353546141645565	412457.68177080376
0.8355634528180977	416930.7647814065
0.8357723436813022	417739.08530596347
0.8359812867672226	418502.3436240167
0.8361902820889144	419265.792756649
0.8363993296594368	420029.4327515648
0.8366084294918518	420793.2636564795
0.8368175815992247	426486.5018100917
0.8370267859946247	433878.83599259064
0.8372360426911234	441273.0182586329
0.8374453517017962	448669.04907024093
0.8376547130397217	456066.92888955097
0.8378641267179816	461770.2500018799
0.8380735927496613	465791.7190502111
0.8382831111478488	469814.19346580206
0.8384926819256358	473837.67349999474
0.8387023050961173	477862.15940419945
0.8389119806723914	481294.5020602367
0.8391217086675596	483058.386658123
0.8393314890947265	484822.7122271574
0.8395413219670003	486587.4788775842
0.8397512072974922	488352.6867196749
0.8399611450993165	490131.9542428477
0.8401711353855914	492587.95042323525
0.8403811781694378	495044.5606026672
0.8405912734639802	497501.78493464465
0.8408014212823464	499959.62357270624
0.8410116216376671	502418.076670427
0.8412218745430766	504456.2518275357
0.8414321800117124	506372.47303693474
0.8416425380567154	508289.17330163706
0.8418529486912297	510206.352741406
0.8420634119284025	512124.0114760333
0.8422739277813847	521991.6725993582
0.8424844962633302	538865.6388492285
0.842695117387396	555743.82359064
0.8429057911667428	572626.2278782373
0.8431165176145345	589512.8527669148
0.8433272967439382	600047.992497875
0.8435381285681244	595082.434656112
0.8437490131002665	590115.6354248895
0.8439599503535415	585147.5944938625
0.84417094034113	580178.311552599
0.8443819830762154	575723.4502201007
0.8445930785719846	581655.5691147429
0.8448042268416277	587589.1710391055
0.8450154278983382	593524.2563639485
0.8452266817553128	599460.8254601221
0.8454379884257517	605398.8786985705
0.8456493479228583	616591.2386066855
0.845860760259839	629051.3393107876
0.846072225449904	641514.5550400654
0.8462837435062666	653980.8865732783
0.8464953144421433	666450.3346893816
0.8467069382707537	675402.9475461958
0.8469186150053215	681614.1035919501
0.847130344659073	687826.8124267177
0.8473421272452377	694041.0744386879
0.8475539627770492	700256.8900161674
0.8477658512677435	706281.5112367002
0.8479777927305605	711898.3629559763
0.8481897871787432	717516.6188881807
0.848401834625538	723136.2793843712
0.8486139350841944	728757.3447956825
0.8488260885679657	733841.3302139036
0.8490382950901076	732362.6424789263
0.8492505546638802	730883.5850720146
0.8494628673025462	729404.1579007516
0.8496752330193721	727924.3608726936
0.8498876518276269	726444.1938953806
0.8501001237405839	702862.2307906062
0.8503126487715191	674862.5393845611
0.850525226933712	646855.8480556799
0.8507378582404455	618842.1550539669
0.8509505427050057	590821.4586289871
0.8511632803406821	568483.6529089502
0.8513760711607672	550036.799499257
0.8515889151785576	531585.3343761828
0.8518018124073523	513129.25638684316
0.8520147628604541	494668.56437801715
0.8522277665511693	490459.8312133579
0.8524408234928071	512615.8562182461
0.8526539336986805	534777.4202293915
0.8528670971821053	556944.5246315411
0.8530803139564007	579117.1708097651
0.8532935840348901	603862.4479617344
0.8535069074308987	650294.2797909545
0.8537202841577566	696737.7195781709
0.8539337142287962	743192.7702253393
0.8541471976573534	789659.4346351405
0.8543607344567677	836137.7157110526
0.8545743246403821	854508.7946309276
0.8547879682215422	868418.8760483139
0.8550016652135977	882332.4349860526
0.8552154156299011	896249.4723135266
0.8554292194838088	910169.9889003424
0.8556430767886797	920615.8966223284
0.855856987557877	928952.6120458886
0.8560709518047664	937291.4116482994
0.8562849695427177	945632.2959506139
0.8564990407851035	953975.2654740064
0.8567131655452999	961562.6218512673
0.8569273438366862	967910.3601522218
0.8571415756726455	974259.6853877526
0.8573558610665638	980610.5979545946
0.8575702000318304	986963.0982495716
0.8577845925818384	993541.9840667844
0.857999038729984	1001526.6819641732
0.8582135384896665	1009513.3760360345
0.858428091874289	1017502.0667814144
0.8586426988972576	1025492.7546994784
0.8588573595719821	1033485.4402895246
0.8590720739118751	1040840.8323791669
0.8592868419303532	1048122.6889185312
0.8595016636408359	1055406.3659220303
0.8597165390567462	1062691.8638447777
0.8599314681915105	1069979.1831420078
0.8601464510585584	1075496.8800420242
0.860361487671323	1080075.686136404
0.8605765780432408	1084655.6369323065
0.8607917221877518	1089236.7327159112
0.8610069201182988	1093818.973773461
0.8612221718483286	1097970.6608395644
0.8614374773912907	1101501.0325016896
0.8616528367606385	1105032.2867567295
0.8618682499698288	1108564.4238253352
0.8620837170323213	1112097.4439282075
0.8622992379615795	1116620.0189638454
0.8625148127710699	1126036.2819978911
0.8627304414742627	1135454.899097696
0.8629461240846313	1144875.8708517773
0.8631618606156526	1154299.1978487978
0.8633776510808066	1163724.880677566
0.8635934954935769	1171747.3750146718
0.8638093938674504	1179656.6599167737
0.8640253462159173	1187567.9221401007
0.8642413525524714	1195481.1621789834
0.8644574128906095	1203396.3805278745
0.8646735272438323	1210427.337872855
0.8648896956256433	1217047.9268896782
0.8651059180495498	1223670.171053756
0.8653221945290621	1230294.0707788689
0.8655385250776946	1236919.626478922
0.8657549097089641	1245232.12915109
0.8659713484363913	1255704.252365039
0.8661878412735006	1266178.9936097963
0.866404388233819	1276656.3535398636
0.8666209893308775	1287136.3328099083
0.8668376445782103	1296756.916203895
0.8670543539893549	1302861.5803805287
0.8672711175778525	1308967.770723211
0.8674879353572469	1315075.4876134722
0.8677048073410862	1321184.7314329583
0.8679217335429217	1327295.502563403
0.8681387139763074	1337022.4326892057
0.8683557486548015	1346931.3602215692
0.8685728375919655	1356842.764985828
0.8687899808013633	1366756.6476012561
0.8690071782965637	1376673.0086873511
0.869224430091138	1387017.256279305
0.8694417361986609	1397537.1876727787
0.8696590966327107	1408059.7490490985
0.869876511406869	1418584.941065763
0.8700939805347206	1429112.7643804264
0.8703115040298544	1439870.4818462108
0.870529081905862	1450890.7151750892
0.8707467141763385	1461913.7035622962
0.8709644008548827	1472939.4476965996
0.8711821419550964	1483967.9482669297
0.8713999374905854	1494550.3314116434
0.871617787474958	1503586.1383354007
0.8718356919218269	1512624.204210897
0.8720536508448075	1521664.529602863
0.8722716642575187	1530707.1150761712
0.8724897321735832	1539751.9611958521
0.8727078546066265	1547072.9594973444
0.8729260315702784	1554369.5282677726
0.873144263078171	1561667.9211803856
0.8733625491439405	1568968.1386912274
0.8735808897812266	1576270.1812564498
0.8737992850036719	1582936.3666003593
0.874017734824923	1589378.3617522258
0.8742362392586293	1595821.9674028778
0.874454798318444	1602267.183954942
0.8746734120180236	1608714.0118111437
0.8748920803710283	1616386.982413714
0.875110803391121	1625292.4082719705
0.8753295810919689	1634200.0604866964
0.875548413487242	1643109.9396144762
0.8757673005906139	1652022.0462120383
0.8759862424157616	1661453.8869717706
0.8762052389763657	1672385.5141173536
0.8764242902861098	1683319.8741697152
0.8766433963586814	1694256.9678120932
0.8768625572077712	1705196.7957278849
0.8770817728470732	1716090.5006453812
0.8773010432902849	1723172.2231214596
0.8775203685511077	1730255.7160281672
0.8777397486432454	1737340.9798080926
0.8779591835804065	1744428.0149039717
0.8781786733763015	1751516.8217586156
0.8783982180446457	1757074.1163764829
0.878617817599157	1762176.6768568365
0.8788374720535569	1767280.5129773081
0.8790571814215703	1772385.6250568083
0.8792769457169257	1777492.0134143285
0.879496764953355	1779689.8508981795
0.8797166391445934	1779272.1118242845
0.8799365683043796	1778854.2683156212
0.8801565524464557	1778436.3203460805
0.8803765915845676	1778018.2678895472
0.8805966857324639	1778364.6151545309
0.880816834903897	1780631.2544547408
0.881037039112623	1782898.4604147766
0.8812572983724012	1785166.2331763022
0.8814776126969944	1787434.5728810192
0.8816979821001687	1789243.2744834002
0.8819184065956938	1780219.1206917486
0.8821388861973429	1771192.7108616396
0.8823594209188923	1762164.0444290817
0.882580010774122	1753133.12082992
0.8828006557768155	1744099.9394998534
0.8830213559407598	1744065.4573989236
0.8832421112797452	1746294.7988610414
0.8834629218075651	1748524.6976585232
0.8836837875380171	1750755.1539307053
0.8839047084849018	1752986.1678169556
0.884125684662023	1766690.9200018717
0.8843467160831886	1789593.3872880337
0.8845678027622095	1812501.5801910176
0.8847889447129001	1835415.5001422314
0.8850101419490785	1858335.1485734289
0.8852313944845657	1874004.3603028266
0.885452702333187	1873794.6305910347
0.8856740655087704	1873584.8484468148
0.8858954840251476	1873375.0138570587
0.8861169578961539	1873165.1268086554
0.886338487135628	1871179.3502411963
0.886560071757412	1845561.2911845536
0.8867817117753515	1819936.8276131474
0.8870034072032955	1794305.9579258368
0.8872251580550963	1768668.6805211345
0.8874469643446101	1743024.993797065
0.8876688260856963	1747434.4238374408
0.8878907432922178	1758066.1607253128
0.8881127159780409	1768700.5555473997
0.8883347441570356	1779337.608968205
0.8885568278430749	1789977.3216523544
0.8887789670500358	1796275.9893744108
0.8890011617917983	1799494.9219942319
0.8892234120822464	1802714.6593472091
0.8894457179352669	1805935.201634522
0.8896680793647509	1809156.5490574096
0.8898904963845921	1806668.3763541796
0.8901129690086883	1793284.1303121236
0.8903354972509405	1779896.5382085606
0.8905580811252535	1766505.599206961
0.8907807206455347	1753111.3124706293
0.8910034158256963	1736551.8993205691
0.8912261666796527	1691731.6519865785
0.8914489732213227	1646900.1995907417
0.8916718354646282	1602057.5393317617
0.8918947534234944	1557203.6684077606
0.8921177271118502	1512338.5840160563
0.8923407565436284	1424983.6877950602
0.8925638417327644	1330677.5388671583
0.8927869826931977	1236347.8134019934
0.8930101794388711	1141994.5055054678
0.8932334319837308	1047617.6092819835
0.8934567403417267	988941.1649347821
0.8936801045268123	952448.3408702376
0.8939035245529441	915946.3935997016
0.8941270004340824	879435.3208423337
0.894350532184191	842915.1203167858
0.8945741198172371	854316.3813626226
0.8947977633471915	945207.661588707
0.8950214627880284	1036121.664634844
0.8952452181537254	1127058.3961816886
0.8954690294582639	1218017.8619114747
0.8956928967156286	1304339.9921209626
0.8959168199398075	1360441.4736540823
0.8961407991447926	1416556.9805575998
0.8963648343445789	1472686.5163378415
0.896588925553165	1528830.0845019966
0.8968130727845534	1584987.6885582
0.8970372760527496	1608502.4848974973
0.8972615353717629	1627937.1307128486
0.8974858507556059	1647376.635189656
0.8977102222182949	1666820.9995425774
0.8979346497738496	1686270.2249865977
0.8981591334362931	1769312.3633750116
0.8983836732196523	1887150.0720114924
0.8986082691379572	2005017.2400750546
0.8988329212052417	2122913.874930633
0.8990576294355432	2240839.983945027
0.8992823938429022	2313847.995078781
0.8995072144413631	2320042.9195982227
0.8997320912449734	2326239.392848792
0.8999570242677847	2332437.415217672
0.9001820135238516	2338636.9870921453
0.9004070590272328	2339865.5245792284
0.9006321607919896	2315026.3859402835
0.9008573188321878	2290181.037516653
0.9010825331618959	2265329.477755929
0.9013078037951865	2240471.705105261
0.9015331307461353	2215607.718011443
0.9017585140288219	2297278.6614684043
0.9019839536573292	2388146.6877677077
0.9022094496457435	2479037.431073521
0.9024350020081551	2569950.8970652632
0.9026606107586572	2660887.0914234743
0.902886275911347	2729144.2299638633
0.9031119974803249	2786474.589882539
0.9033377754796951	2843819.282391195
0.903563609923565	2901178.311072953
0.903789500826046	2958551.6795119196
0.9040154482012526	2995188.7808744353
0.904241452063303	3004954.437548446
0.9044675124263188	3014722.535636623
0.9046936293044254	3024493.0757493204
0.9049198027117517	3034266.0584970512
0.9051460326624297	3044116.006912364
0.9053723191705955	3054285.7516238224
0.9055986622503881	3064458.038771449
0.9058250619159507	3074632.868990863
0.9060515181814298	3084810.2429178385
0.9062780310609752	3094990.161188288
0.9065046005687405	2988463.7895148257
0.906731226718883	2875399.945399713
0.9069579095255627	2762307.8353237193
0.907184649002944	2649187.452220198
0.907411445165195	2536038.7890207865
0.9076382980264862	2603111.232453465
0.907865207600993	2745057.6834036484
0.9080921739028933	2887039.6209665276
0.9083191969463691	3029057.0540137743
0.9085462767456058	3171109.991419352
0.9087734133147922	3233972.7361211614
0.9090006066681211	3205344.5241294783
0.909227856819788	3176709.155084835
0.9094551637839932	3148066.627197891
0.9096825275749393	3119416.9386789845
0.9099099482068329	3080801.326683876
0.9101374256938848	3006782.451318289
0.9103649600503083	2932745.071233895
0.9105925512903209	2858689.181804495
0.9108201994281437	2784614.7784026596
0.9110479044780008	2710521.8564000586
0.9112756664541204	2836080.9996015416
0.911503485370734	2966241.957157052
0.9117313612420768	3096435.4549519517
0.9119592940823873	3226661.5011212607
0.912187283905908	3356920.103802153
0.9124153307268845	3338133.908156565
0.9126434345595664	3265236.647007162
0.9128715954182063	3192321.1615425413
0.9130998133170609	3119387.4472065177
0.9133280882703902	3046435.4994419147
0.913556420292458	3031953.3136445745
0.9137848093975312	3077787.0452521304
0.9140132555998806	3123632.235292583
