#wavelength	surface flux
0.8	5133684.14060282
0.8002000000000001	5206102.08032911
0.8004000500000003	5281477.216662544
0.8006001500125003	5356900.884504292
0.8008003000500035	5432343.408263007
0.8010005001250161	5507804.792652696
0.8012007502500472	5583285.042388373
0.8014010504376099	5655704.170977003
0.8016014007002193	5727109.701389707
0.8018018010503944	5798533.083185012
0.8020022515006572	5869974.320825799
0.8022027520635323	5941433.418775935
0.8024033027515483	6015307.284322975
0.8026039035772362	6091548.4896880025
0.8028045545531306	6167808.755354376
0.8030052556917691	6244088.086087201
0.803206007005692	6320386.486652643
0.8034068085074435	6396636.758059798
0.8036076602095705	6472717.710042124
0.8038085621246229	6548817.682262384
0.8040095142651542	6624936.679475747
0.8042105166437206	6701074.706438389
0.8044115692728815	6777168.191658055
0.8046126721651998	6850546.173736582
0.8048138253332411	6923942.500310568
0.8050150287895745	6997357.1759662675
0.805216282546772	7070790.20529086
0.8054175866174087	7144241.592872745
0.8056189410140631	7218540.373448887
0.8058203457493168	7293092.398021603
0.8060218008357541	7367663.060600367
0.8062233062859632	7442252.365844813
0.8064248621125346	7516860.318415519
0.806626468328063	7594379.3650546
0.8068281249451449	7674402.049291208
0.8070298319763813	7754444.739198973
0.8072315894343755	7834507.439779157
0.8074333973317341	7914590.156034514
0.8076352556810671	7989869.683471628
0.8078371644949874	8053557.760143768
0.8080391237861113	8117261.758835092
0.8082411335670578	8180981.683526049
0.8084431938504498	8244717.538198246
0.8086453046489125	8308114.152446377
0.8088474659750746	8364913.9050748255
0.8090496778415686	8421727.857641507
0.809251940261029	8478556.013696289
0.8094542532460944	8535398.376790132
0.8096566168094059	8592254.950474687
0.8098590309636085	8659150.586792422
0.8100614957213493	8728409.344663914
0.8102640110952797	8797685.417224882
0.8104665770980536	8866978.808804018
0.8106691937423283	8936289.523731075
0.8108718610407639	9005970.602733819
0.8110745790060241	9075939.050409464
0.8112773476507757	9145924.99019709
0.8114801669876885	9215928.426469646
0.8116830370294355	9285949.363601228
0.8118859577886929	9352025.055373307
0.8120889292781401	9409886.459802426
0.8122919515104597	9467762.32958265
0.8124950244983374	9525652.668330321
0.8126981482544621	9583557.47966267
0.8129013227915257	9643362.000229338
0.8131045481222237	9724767.67835995
0.8133078242592543	9806193.707910106
0.8135111512153191	9887640.093967626
0.813714529003123	9969106.841621669
0.8139179576353739	10050593.955962641
0.8141214371247829	10163049.410832806
0.8143249674840641	10281534.311246613
0.814528548725935	10400048.832885453
0.8147321808631167	10518592.983154863
0.8149358639083326	10637166.769461805
0.8151395978743097	10736598.854292845
0.8153433827737784	10823102.832155338
0.8155472186194719	10909628.436012264
0.8157511054241268	10996175.67127014
0.815955043200483	11082744.543336889
0.8161590319612831	11161781.229314603
0.8163630717192736	11226996.204864968
0.8165671624872033	11292227.484159147
0.8167713042778252	11357475.071273215
0.8169754971038948	11422738.970284093
0.8171797409781707	11457437.904111693
0.8173840359134155	11248005.673881061
0.8175883819223938	11038521.085593114
0.8177927790178745	10828984.126157973
0.8179972272126291	10619394.78248292
0.8182017265194322	10409753.04147216
0.8184062769510622	10376234.029912097
0.8186108785203001	10369817.385104652
0.8188155312399301	10363399.136136012
0.8190202351227402	10356979.282605125
0.819224990181521	10350557.824110856
0.8194297964290664	10638680.72712446
0.8196346538781738	11104412.719928578
0.8198395625416434	11570261.145730712
0.8200445224322789	12036226.03363949
0.820249533562887	12502307.412770111
0.8204545959462778	12848424.297532989
0.8206597095952644	13001360.560098628
0.8208648745226633	13154335.056730026
0.8210700907412941	13307347.79698556
0.8212753582639793	13460398.790426001
0.8214806771035456	13600148.266428307
0.8216860472728215	13657743.381391166
0.8218914687846397	13715352.895132769
0.822096941651836	13772976.811252836
0.822302465887249	13830615.133351902
0.8225080415037209	13888267.865031522
0.8227136685140968	13944874.493325876
0.8229193469312254	14001374.882482173
0.8231250767679583	14057889.39673578
0.8233308580371503	14114418.039617918
0.8235366907516598	14170960.814660821
0.8237425749243477	14293556.848618576
0.8239485105680789	14451185.427821182
0.824154497695721	14608853.414168486
0.824360536320145	14766560.81751241
0.8245666264542252	14924307.64770716
0.8247727681108388	15059972.580148293
0.8249789613028664	15163989.514356747
0.8251852060431922	15268032.452798843
0.825391502344703	15372101.401975503
0.8255978502202894	15476196.36838955
0.8258042496828445	15579107.644354738
0.8260107007452654	15676169.585980682
0.8262172034204517	15773255.793091934
0.8264237577213068	15870366.271754988
0.8266303636607373	15967501.02803775
0.8268370212516525	16064660.068009537
0.8270437305069654	16127978.060348807
0.8272504914395923	16188665.526164751
0.8274573040624523	16249368.163847163
0.8276641683884679	16310085.977188941
0.8278710844305652	16370818.96998413
0.8280780522016729	16455576.774854634
0.8282850717147234	16551330.526051424
0.8284921429826521	16647108.215685917
0.8286992660183978	16742909.849742893
0.8289064408349024	16838735.434208315
0.8291136674451112	16927560.36304108
0.8293209458619727	17007549.814336542
0.8295282760984382	17087559.26299472
0.829735658167463	17167588.714015156
0.8299430920820048	17247638.172398247
0.8301505778550254	17329092.810819533
0.8303581154994891	17416096.422714826
0.8305657050283641	17503121.78551318
0.8307733464546212	17590168.90465217
0.8309810397912352	17677237.785571083
0.8311887850511829	17764328.433710054
0.8313965822474458	17896460.140622243
0.8316044313930077	18030714.46367019
0.8318123325008561	18165002.350299027
0.8320202855839813	18299323.80889945
0.8322282906553774	18433678.847864542
0.8324363477280413	18530448.29049914
0.8326444568149735	18612096.574292473
0.8328526179291771	18693765.27015666
0.8330608310836596	18775454.383194935
0.8332690962914304	18857163.91851136
0.8334774135655034	18919424.784259513
0.833685782918895	18959953.59457763
0.8338942043646247	19000492.537098307
0.834102677915716	19041041.61435464
0.834311203585195	19081600.828880254
0.8345197813860912	19133796.25786912
0.8347284113314379	19225139.190244116
0.8349370934342709	19316504.958352156
0.8351458277076294	19407893.56790211
0.8353546141645565	19499305.024604607
0.8355634528180977	19590739.33417124
0.8357723436813022	19642945.458163712
0.8359812867672226	19694679.983304128
0.8361902820889144	19746427.442075804
0.8363993296594368	19798187.837712187
0.8366084294918518	19849961.173447497
0.8368175815992247	19964706.45445469
0.8370267859946247	20101164.148711197
0.8372360426911234	20237655.957391225
0.8374453517017962	20374181.88902341
0.8376547130397217	20510741.952138484
0.8378641267179816	20621111.054931123
0.8380735927496613	20705485.633226745
0.8382831111478488	20789881.30516689
0.8384926819256358	20874298.076024976
0.8387023050961173	20958735.951075852
0.8389119806723914	21039371.20505
0.8391217086675596	21109265.390639633
0.8393314890947265	21179177.049775608
0.8395413219670003	21249106.186826378
0.8397512072974922	21319052.806161456
0.8399611450993165	21388631.960194685
0.8401711353855914	21439111.932425603
0.8403811781694378	21489604.524649568
0.8405912734639802	21540109.7400216
0.8408014212823464	21590627.581697505
0.8410116216376671	21641158.052833814
0.8412218745430766	21707230.10335
0.8414321800117124	21777836.99614515
0.8416425380567154	21848461.540663537
0.8418529486912297	21919103.74131807
0.8420634119284025	21989763.602522705
0.8422739277813847	22136960.966220297
0.8424844962633302	22351612.075375963
0.842695117387396	22566316.847308643
0.8429057911667428	22781075.295434315
0.8431165176145345	22995887.43317212
0.8433272967439382	23138937.773129568
0.8435381285681244	23106845.95473553
0.8437490131002665	23074746.11338689
0.8439599503535415	23042638.247077942
0.84417094034113	23010522.35380239
0.8443819830762154	22985120.51929337
0.8445930785719846	23095129.366498012
0.8448042268416277	23205165.7159144
0.8450154278983382	23315229.57441812
0.8452266817553128	23425320.948886458
0.8454379884257517	23535439.84619843
0.8456493479228583	23696440.68594174
0.845860760259839	23869728.129665803
0.846072225449904	24043058.895250797
0.8462837435062666	24216432.993527222
0.8464953144421433	24389850.43532832
0.8467069382707537	24520346.179933406
0.8469186150053215	24617384.610320047
0.847130344659073	24714447.300314315
0.8473421272452377	24811534.255980987
0.8475539627770492	24908645.48338667
0.8477658512677435	24997812.020230975
0.8479777927305605	25070079.793750107
0.8481897871787432	25142365.6342126
0.848401834625538	25214669.546135243
0.8486139350841944	25286991.534035828
0.8488260885679657	25348335.45083844
0.8490382950901076	25275655.519328535
0.8492505546638802	25202957.417835716
0.8494628673025462	25130241.14181755
0.8496752330193721	25057506.686730273
0.8498876518276269	24984754.048029326
0.8501001237405839	24274081.220485646
0.8503126487715191	23435894.282028668
0.850525226933712	22597497.796837542
0.8507378582404455	21758891.712525126
0.8509505427050057	20920075.97669114
0.8511632803406821	20157639.52474257
0.8513760711607672	19447461.89560957
0.8515889151785576	18737106.72206818
0.8518018124073523	18026573.959734
0.8520147628604541	17315863.56420966
0.8522277665511693	17108784.892512735
0.8524408234928071	17833389.04011626
0.8526539336986805	18558174.33875688
0.8528670971821053	19283140.833722208
0.8530803139564007	20008288.57031042
0.8532935840348901	20781723.329224378
0.8535069074308987	21961628.964274324
0.8537202841577566	23141829.57573402
0.8539337142287962	24322325.237346712
0.8541471976573534	25503116.022874072
0.8543607344567677	26684202.00609803
0.8545743246403821	27062339.577806443
0.8547879682215422	27313007.40642886
0.8550016652135977	27563737.9020084
0.8552154156299011	27814531.080211848
0.8554292194838088	28065386.95671003
0.8556430767886797	28239816.837217852
0.855856987557877	28367848.400695127
0.8560709518047664	28495911.97206319
0.8562849695427177	28624007.55932415
0.8564990407851035	28752135.170481954
0.8567131655452999	28864987.924081773
0.8569273438366862	28952788.041653927
0.8571415756726455	29040610.109255493
0.8573558610665638	29128454.13237399
0.8575702000318304	29216320.11649817
0.8577845925818384	29308875.260787915
0.857999038729984	29430606.554932162
0.8582135384896665	29552368.281899914
0.858428091874289	29674160.449299417
0.8586426988972576	29795983.064740736
0.8588573595719821	29917836.13583596
0.8590720739118751	29997237.94532132
0.8592868419303532	30071650.88296105
0.8595016636408359	30146082.42383519
0.8597165390567462	30220532.57259452
0.8599314681915105	30295001.33389106
0.8601464510585584	30187806.66752183
0.860361487671323	29984149.641336914
0.8605765780432408	29780441.70089551
0.8607917221877518	29576682.833468832
0.8610069201182988	29372873.02632535
0.8612221718483286	28643686.849070422
0.8614374773912907	27156990.693370394
0.8616528367606385	25669922.863631845
0.8618682499698288	24182483.26693492
0.8620837170323213	22694671.810339067
0.8622992379615795	21460083.391906407
0.8625148127710699	21480130.78001084
0.8627304414742627	21500183.1799623
0.8629461240846313	21520240.593013752
0.8631618606156526	21540303.02041847
0.8633776510808066	21560370.463430036
0.8635934954935769	22252793.28053002
0.8638093938674504	23000502.978153154
0.8640253462159173	23748399.603200667
0.8642413525524714	24496483.20240443
0.8644574128906095	25244753.822507832
0.8646735272438323	25618003.95214986
0.8648896956256433	25816865.483292155
0.8651059180495498	26015776.72981725
0.8653221945290621	26214737.704153784
0.8655385250776946	26413748.41873418
0.8657549097089641	26742643.577691734
0.8659713484363913	27237837.9067724
0.8661878412735006	27733156.03443557
0.866404388233819	28228597.991630584
0.8666209893308775	28724163.809314672
0.8668376445782103	29110198.116147242
0.8670543539893549	29048769.569226027
0.8672711175778525	28987325.665168043
0.8674879353572469	28925866.40013411
0.8677048073410862	28864391.770283896
0.8679217335429217	28802901.771776184
0.8681387139763074	28994728.726416867
0.8683557486548015	29199188.542313408
0.8685728375919655	29403699.473164175
0.8687899808013633	29608261.53174721
0.8690071782965637	29812874.730845157
0.869224430091138	29803120.73770836
0.8694417361986609	29706117.75233099
0.8696590966327107	29609090.516207293
0.869876511406869	29512039.02327456
0.8700939805347206	29414963.267468642
0.8703115040298544	29375330.67530314
0.870529081905862	29401390.07513694
0.8707467141763385	29427455.989820696
0.8709644008548827	29453528.42098312
0.8711821419550964	29479607.370253317
0.8713999374905854	29501785.884072598
0.871617787474958	29510485.684604194
0.8718356919218269	29519187.660085928
0.8720536508448075	29527891.811061535
0.8722716642575187	29536598.138074882
0.8724897321735832	29545306.641669985
0.8727078546066265	29797891.09759198
0.8729260315702784	30054248.81974991
0.873144263078171	30310670.6313381
0.8733625491439405	30567156.548379216
0.8735808897812266	30823706.58689969
0.8737992850036719	30838240.71425745
0.874017734824923	30767037.702374227
0.8742362392586293	30695816.88973806
0.874454798318444	30624578.27189874
0.8746734120180236	30553321.844404962
0.8748920803710283	30511545.18043351
0.875110803391121	30499400.32708581
0.8753295810919689	30487252.437524766
0.875548413487242	30475101.510991335
0.8757673005906139	30462947.546726268
0.8759862424157616	30614345.519356955
0.8762052389763657	31239035.38136572
0.8764242902861098	31863881.415839553
0.8766433963586814	32488883.661822174
0.8768625572077712	33114042.158366483
0.8770817728470732	33731557.47924729
0.8773010432902849	33740264.609191485
0.8775203685511077	33748973.91591818
0.8777397486432454	33757685.399971545
0.8779591835804065	33766399.06189594
0.8781786733763015	33775114.9022358
0.8783982180446457	33426035.211178664
0.878617817599157	32970430.11911906
0.8788374720535569	32514711.12578665
0.8790571814215703	32058878.202706024
0.8792769457169257	31602931.32139462
0.879496764953355	31439510.949291963
0.8797166391445934	31539152.748909872
0.8799365683043796	31638819.458977696
0.8801565524464557	31738511.085723035
0.8803765915845676	31838227.635375153
0.8805966857324639	31957257.220993947
0.880816834903897	32124762.506026722
0.881037039112623	32292309.66738082
0.8812572983724012	32459898.715525243
0.8814776126969944	32627529.660931777
0.8816979821001687	32794968.385620896
0.8819184065956938	32956937.546783324
0.8821388861973429	33118947.200236212
0.8823594209188923	33280997.35610231
0.882580010774122	33443088.0245073
0.8828006557768155	33605219.21557948
0.8830213559407598	33874192.12642055
0.8832421112797452	34170093.86312128
0.8834629218075651	34466069.575256
0.8836837875380171	34762119.28131884
0.8839047084849018	35058242.99980825
0.884125684662023	35042577.91536571
0.8843467160831886	34776990.682779476
0.8845678027622095	34511337.053385094
0.8847889447129001	34245617.01058331
0.8850101419490785	33979830.537770875
0.8852313944845657	34102857.61058779
0.885452702333187	35077126.046812095
0.8856740655087704	36051638.050145306
0.8858954840251476	37026393.6814791
0.8861169578961539	38001393.001720265
0.886338487135628	38873276.34432226
0.886560071757412	38369927.714890726
0.8867817117753515	37866453.248301856
0.8870034072032955	37362852.91309611
0.8872251580550963	36859126.67780715
0.8874469643446101	36355274.51095906
0.8876688260856963	36240964.829027034
0.8878907432922178	36207273.44887209
0.8881127159780409	36173573.64587212
0.8883347441570356	36139865.41792137
0.8885568278430749	36106148.76291366
0.8887789670500358	35861893.1972819
0.8890011617917983	35468231.79282181
0.8892234120822464	35074471.97301043
0.8894457179352669	34680613.713244416
0.8896680793647509	34286656.98891315
0.8898904963845921	33999866.58807614
0.8901129690086883	33917668.57574319
0.8903354972509405	33835450.01390719
0.8905580811252535	33753210.89743065
0.8907807206455347	33670951.22117511
0.8910034158256963	33587664.07887226
0.8912261666796527	33495357.475783825
0.8914489732213227	33403027.79604459
0.8916718354646282	33310675.033885334
0.8918947534234944	33218299.183535628
0.8921177271118502	33125900.239223387
0.8923407565436284	32532426.574636713
0.8925638417327644	31857069.398089554
0.8927869826931977	31181543.382248033
0.8930101794388711	30505848.48490259
0.8932334319837308	29829984.663832925
0.8934567403417267	29407173.24116617
0.8936801045268123	29141603.385628596
0.8939035245529441	28875967.137627315
0.8941270004340824	28610264.48056393
0.894350532184191	28344495.397836346
0.8945741198172371	28724972.357266165
0.8947977633471915	30177376.59680212
0.8950214627880284	31630143.9373979
0.8952452181537254	33083274.469827965
0.8954690294582639	34536768.284892015
0.8956928967156286	35889783.215334274
0.8959168199398075	36588706.06747026
0.8961407991447926	37287803.65031946
0.8963648343445789	37987076.00756435
0.896588925553165	38686523.182898164
0.8968130727845534	39386145.2200259
0.8970372760527496	39407525.70090046
0.8972615353717629	39344027.96547451
0.8974858507556059	39280514.35561469
0.8977102222182949	39216984.867352426
0.8979346497738496	39153439.496718064
0.8981591334362931	39323491.90735406
0.8983836732196523	39621344.65282468
0.8986082691379572	39919271.86148147
0.8988329212052417	40217273.55194043
0.8990576294355432	40515349.74282226
0.8992823938429022	40688825.0332564
0.8995072144413631	40676967.18754246
0.8997320912449734	40665106.3773671
0.8999570242677847	40653242.601989195
0.9001820135238516	40641375.86066745
0.9004070590272328	40682563.4672335
0.9006321607919896	41001905.91489634
0.9008573188321878	41321328.198171414
0.9010825331618959	41640830.33701716
0.9013078037951865	41960412.35139767
0.9015331307461353	42280074.2612816
0.9017585140288219	42835532.80668386
0.9019839536573292	43411433.10879663
0.9022094496457435	43987477.3859845
0.9024350020081551	44563665.67424233
0.9026606107586572	45139998.00957204
0.902886275911347	45406079.52941291
0.9031119974803249	45522595.62303821
0.9033377754796951	45639140.84568692
0.903563609923565	45755715.204641245
0.903789500826046	45872318.70718538
0.9040154482012526	45837903.32059134
0.904241452063303	45607809.7830273
0.9044675124263188	45377658.72207893
0.9046936293044254	45147450.12336535
0.9049198027117517	44917183.972501986
0.9051460326624297	44746984.948585935
0.9053723191705955	44832768.306939
0.9055986622503881	44918573.11113157
0.9058250619159507	45004399.366525196
0.9060515181814298	45090247.078482725
0.9062780310609752	45176116.25236818
0.9065046005687405	45306507.72976128
0.906731226718883	45439414.37510871
0.9069579095255627	45572354.24711731
0.907184649002944	45705327.35409392
0.907411445165195	45838333.7043474
0.9076382980264862	46166392.38157545
0.907865207600993	46575524.134289086
0.9080921739028933	46984758.169940785
0.9083191969463691	47394094.514101334
0.9085462767456058	47803533.192348115
0.9087734133147922	47902091.3194699
0.9090006066681211	47641484.96944963
0.909227856819788	47380813.46784219
0.9094551637839932	47120076.798359
0.9096825275749393	46859274.94470851
0.9099099482068329	46649986.58465971
0.9101374256938848	46623957.475582115
0.9103649600503083	46597921.85922727
0.9105925512903209	46571879.73396833
0.9108201994281437	46545831.09817806
0.9110479044780008	46519775.95022887
0.9112756664541204	46936990.51771753
0.911503485370734	47364455.90358737
0.9117313612420768	47792028.15580367
0.9119592940823873	48219707.301082894
0.912187283905908	48647493.366148576
0.9124153307268845	48694945.09907045
0.9126434345595664	48604330.74816173
0.9128715954182063	48513693.74366537
0.9130998133170609	48423034.07991784
0.9133280882703902	48332351.75125438
0.913556420292458	48297036.98103183
0.9137848093975312	48318838.14316699
0.9140132555998806	48340644.75559268
0.9142417589137806	48362456.81967148
0.9144703193535092	48384274.33676632
