#wavelength	surface flux
0.428837	51182.9076937086
0.43312537	68850.32229836425
0.43745662370000005	64038.74589745932
0.4418311899370001	63220.62184327996
0.44624950183637	77929.40564034648
0.4507119968547338	95589.04892062482
0.45521911682328114	114253.6388426234
0.4597713079915139	139050.08701938888
0.4643690210714291	136642.4772774698
0.4690127112821433	129346.14696353699
0.47370283839496474	119998.19948666169
0.47843986677891437	107382.71379503884
0.48322426544670355	95313.21760661728
0.48805650810117057	86196.75103037541
0.4929370731821824	74327.53320377896
0.49786644391400414	62461.1272015675
0.5028451083531442	52115.20729483951
0.5078735594366757	42875.7776962118
0.5129522950310424	35117.626650882194
0.5180818179813528	28181.901218938914
0.5232626361611664	22162.622456883022
0.5284952625227781	16900.21167924815
0.5337802151480058	12461.693496248066
0.5391180172994858	8856.846560446036
0.5445091974724807	6017.141488557937
0.5499542894472055	3882.9715719201968
0.5554538323416777	2367.408561154602
0.5610083706650945	1362.365805429524
0.5666184543717453	744.5792391158308
0.5722846389154628	386.95709847673817
0.5780074853046174	181.460688991524
0.5837875601576636	62.36912557660504
0.5896254357592402	6.946960052206292
0.5955216901168326	109.4994522849467
0.6014769070180009	381.0945185263147
0.607491676088181	969.0794158782189
0.6135665928490629	2137.4421314148353
0.6197022587775535	4319.403945234323
0.625899281365329	8139.362910994084
0.6321582741789823	14387.156175332624
0.6384798569207721	23996.185314174712
0.6448646554899798	37884.683017042305
0.6513133020448797	57186.06480484809
0.6578264350653285	82587.60329410134
0.6644046994159818	114015.79101191406
0.6710487464101416	103681.08457655595
0.677759233874243	197035.80661182583
0.6845368262129854	246898.57382500745
0.6913821944751153	291519.1383246738
0.6982960164198664	335389.1672072833
0.7052789765840651	362887.3292418956
0.7123317663499058	370207.6168525927
0.7194550840134049	340961.59306599246
0.7266496348535388	293754.2200145243
0.7339161312020743	224097.245870053
0.741255292514095	143889.05892165983
0.748667845439236	71938.36446602948
0.7561545238936284	24867.561750824312
0.7637160691325647	3921.2833819170137
0.7713532298238903	3158.6919278016794
0.7790667621221293	27029.909025265482
0.7868574297433505	113588.04888126848
0.7947260040407841	143911.43119798362
0.8026732640811919	541194.0997698599
0.8106999967220039	890621.4681873647
0.8188069966892239	1374117.6826336132
0.8269950666561161	2023403.209215077
0.8352650173226772	2773674.1647034604
0.8436176674959041	3721538.9388918886
0.852053844170863	3605177.3820578484
0.8605743826125718	6295532.176503208
0.8691801264386976	7857626.066634657
0.8778719277030844	9739852.988620205
0.8866506469801153	11514798.991058232
0.8955171534499164	9780520.577820051
0.9044723249844157	17081866.162714683
0.9135170482342599	19808823.97191445
0.9226522187166025	21878009.652727053
0.9318787409037684	11594833.164497077
0.941197528312806	18494227.10539127
0.9506095035959342	15612590.840487128
0.9601155986318936	18032017.025850642
0.9697167546182125	22051978.480777223
0.9794139221643946	30344265.464134227
0.9892080613860387	37554526.977546796
0.9991001419998989	39628722.1192667
1.0090911434198981	46224390.344183035
1.019182054854097	54933876.451371506
1.0293738754026378	59500866.01350864
1.0396676141566643	67020076.28959748
1.050064290298231	71107668.69637983
1.0605649332012133	76475544.32764722
1.0711705825332256	78352886.09549974
1.0818822883585577	81201959.2462436
1.0927011112421434	62150007.37947315
1.1036281223545648	25215569.164618958
1.1146644035781104	14982418.530702425
1.1258110476138916	13324138.189139966
1.1370691580900303	18598584.18590843
1.1484398496709307	23351794.023873184
1.1599242481676402	13691999.488233266
1.1715234906493166	17790233.752785582
1.1832387255558097	42432581.453258954
1.1950711128113678	64789671.22097251
1.2070218239394814	78156021.73156254
1.2190920421788762	89725681.0311564
1.2312829626006652	100204394.40218338
1.2435957922266716	100877649.3026124
1.2560317501489384	108289507.35360552
1.2685920676504279	116023443.19935551
1.281277988326932	110968100.9580313
1.2940907682102014	96450483.6879721
1.3070316758923035	94493698.12260486
1.3201019926512265	83865499.07145154
1.3333030125777388	15429621.5583927
1.3466360427035162	1306742.9452479319
1.3601024031305513	644404.5469921163
1.373703427161857	1253433.2745983042
1.3874404614334754	308517.98968224577
1.4013148660478103	1370798.789625947
1.4153280147082883	632038.7913220543
1.4294812948553712	1517436.9987444014
1.443776107803925	2707753.6608970645
1.4582138688819641	6128482.785713409
1.4727960075707838	7615826.737432685
1.4875239676464918	8642473.30745402
1.5023992073229566	15907688.618137984
1.5174231993961862	23138938.8845403
1.532597431390148	34066068.353016585
1.5479234057040496	44073181.401399076
1.5634026397610903	53881307.33971974
1.579036666158701	58109525.49436312
1.594827032820288	58697812.30940293
1.610775303148491	51021183.67730188
1.6268830561799759	38119183.58028036
1.6431518867417756	40860576.82546298
1.6595834056091934	38206540.85579682
1.6761792396652853	28202002.943851177
1.6929410320619382	19250917.718569078
1.7098704423825577	20333562.62449645
1.7269691468063835	20804666.442177195
1.744238838274447	14582922.595554965
1.7616812266571917	8521954.683657063
1.7792980389237634	3388913.8791723223
1.7970910193130012	1841531.5452174863
1.815061929506131	494454.26162323065
1.8332125488011928	475886.15309929824
1.8515446742892046	1083026.8891091035
1.8700601210320964	850404.8921854412
1.8887607222424174	2472357.359250129
1.9076483294648416	1538339.813850059
1.92672481275949	532252.0438293192
1.9459920608870853	1387403.9141377574
1.9654519814959561	2355637.0850188285
1.9851065013109155	4892734.647319964
2.0049575663240247	6655565.607093619
2.025007141987265	9803539.392807906
2.0452572134071376	12970831.456679944
2.065709785541209	14933937.638552954
2.086366883396621	14830978.863982134
2.107230552230587	14024953.416791178
2.1283028577528933	13329217.597036712
2.1495858863304225	11518146.88411394
2.1710817451937263	10152295.841481669
2.1927925626456637	6406227.886177261
2.2147204882721203	4284433.459144144
2.2368676931548412	2994387.044261497
2.25923637008639	2316647.6548379376
2.281828733787254	2322889.836018534
2.3046470211251266	2872006.6431470653
2.327693491336378	1580229.85168357
2.3509704262497415	1677505.662609239
2.374480130512239	1358038.271689349
2.3982249318173614	2265116.079649812
2.4222071811355352	2957537.6114344266
2.4464292529468903	3283879.211174139
2.4708935454763594	2397670.11909627
2.4956024809311232	1209580.5630694737
2.5205585057404343	525163.9346636187
2.5457640907978387	248076.53447167235
2.5712217317058172	400583.82541761565
2.5969339490228753	127362.34574887916
2.622903288513104	211754.22851607171
2.6491323213982354	976905.7815731436
2.6756236446122177	113298.17245582405
2.7023798810583397	469626.7095268603
2.729403679868923	958469.7759811959
2.7566977166676123	513442.58682922414
2.7842646938342885	499740.56677057967
2.812107340772631	369231.1132613157
2.8402284141803578	992269.95834749
2.8686306983221614	862264.7945512938
2.897317005305383	1213879.8920971348
2.926290175358437	1937451.6694379929
2.9555530771120213	2149804.2925945637
2.9851086078831415	2799481.531509578
3.014959693961973	3848626.5374185005
3.0451092909015927	3374708.3931383835
3.0755603838106085	3530881.3602228328
3.1063159876487147	1929034.2725204912
3.137379147525202	1273621.5246013873
3.168752939000454	508340.4250386362
3.200440468390459	423396.1251407144
3.232444873074363	594705.7787462156
3.264769321805107	680342.0515236892
3.297417015023158	1363143.4189136957
3.330391185173389	300391.6232135057
3.3636950970251234	864499.6927713904
3.397332047995375	977226.7420172438
3.4313053684753285	683968.4954359925
3.465618422160081	792053.8808098226
3.5002746063816828	1112778.5938432673
3.5352773524454997	1629727.0254242935
3.570630125969955	2390795.26803339
3.606336427229654	3141249.977293197
3.6423997915019504	4236351.670912968
3.67882378941697	5557398.4130316395
3.7156120273111397	6431644.419510618
3.7527681475842516	7588229.760620739
3.7902958290600934	7483621.835115125
3.8281987873506953	10146928.569446526
3.8664807752242023	9971129.11217543
3.905145582976444	10977963.621543646
3.9441970388062084	12106840.182092275
3.983639009194271	12683295.665867465
4.023475399286213	13125095.93634271
4.063710153279075	13430851.430253224
4.1043472548118665	12612923.675868059
4.145390727359985	11612207.059303902
4.186844634633585	10876697.144025084
4.2287130809799205	9739529.31607081
4.27100021178972	9326792.137514124
4.313710213907617	8365427.754920377
4.356847316046694	8403978.702976113
4.40041578920716	8110872.866673267
4.444419947099232	7140326.471193674
4.488864146570225	7383507.032444382
4.533752788035927	6199383.6638337495
4.579090315916286	7009419.637648963
4.624881219075449	5844006.032889859
4.671130031266204	4773947.57522664
4.717841331578866	4989780.264808051
4.765019744894654	6226183.844865251
4.812669942343601	4838534.49874642
4.8607966417670365	5293843.75362228
4.9094046081847065	3951275.6981264907
4.958498654266554	2890793.1015839046
5.008083640809219	3312787.3715758068
5.058164477217312	3574443.599164479
5.108746121989485	2558073.9484621994
5.15983358320938	1850595.4154326378
5.211431919041474	1206007.6440633032
5.263546238231889	1727759.8667330842
5.316181700614208	1774133.4239798945
5.36934351762035	1129211.0499100443
5.423036952796553	881525.7227731884
5.4772673223245185	781434.4462646872
5.532039995547764	964822.8112332968
5.587360395503242	599017.5595640983
5.643233999458275	600324.4700418189
5.6996663394528575	681743.4310627483
5.756663002847385	534978.084759145
5.814229632875859	659556.7054184054
5.872371929204618	550257.5459086018
5.931095648496664	529122.8512196904
5.990406604981631	622909.319028747
6.050310671031448	538715.8353610286
6.110813777741763	532040.8687786856
6.17192191551918	514286.56205423456
6.233641134674372	1512979.7040390521
6.295977546021115	1759556.5183033487
6.358937321481327	952031.8234163463
6.42252669469614	355869.3056433376
6.486751961643101	341654.2341271463
6.551619481259532	426395.7353417986
6.617135676072128	353383.02369132155
6.683307032832849	484879.6544058355
6.750140103161177	671035.5291890568
6.81764150419279	620612.043287288
6.885817919234718	522125.2036178126
6.954676098427065	633490.9261343423
7.024222859411336	493300.5426447509
7.094465088005449	664996.3114597668
7.165409738885503	440241.54353643407
7.237063836274358	525131.9572321032
7.309434474637103	430086.95978049876
7.382528819383473	380567.4235645774
7.456354107577308	351513.47141408717
7.530917648653081	472286.6152553718
7.606226825139612	494628.6869578854
7.682289093391009	276971.2397760249
7.759111984324918	396390.8695596528
7.836703104168168	466043.515997844
7.91507013520985	425638.62167641614
7.994220836561947	484232.41163855745
8.074163044927568	469216.49964628514
8.154904675376844	510707.76345961477
8.23645372213061	535720.033878492
8.318818259351918	665301.8741624407
8.402006441945437	629472.4565163252
8.486026506364892	613458.0673113809
8.57088677142854	853509.7443961082
8.656595639142825	759770.4162786439
8.743161595534254	924518.2400306548
8.830593211489598	893334.8714770863
8.918899143604493	727093.7408422886
9.00808813504054	858432.053399805
9.098169016390944	993435.6993323143
9.189150706554853	1010372.1121996853
9.281042213620402	805243.298759493
9.373852635756606	613516.5750947032
9.467591162114172	886723.044762402
9.562267073735315	995836.4960826349
9.657889744472667	710600.7877322619
9.754468641917395	746212.3400272081
9.852013328336568	901220.8295475824
9.950533461619933	973287.3221885387
10.050038796236134	956696.5276644259
10.150539184198495	1015505.8421742893
10.252044576040479	931254.1142796976
10.354565021800884	239984.03318946477
10.458110672018893	420483.59237941675
10.562691778739081	603878.4611915544
10.668318696526473	504180.44470375875
10.775001883491738	338725.31654290704
10.882751902326655	559065.6271292791
10.991579421349924	508518.4417397135
11.101495215563421	604827.0687949365
11.212510167719055	486630.97657272656
11.324635269396246	449612.89803778613
11.43788162209021	657569.4771112222
11.552260438311112	249399.619105848
11.667783042694223	436788.1229155526
11.784460873121166	380662.5037732588
11.902305481852377	492991.28266575834
12.0213285366709	344103.17337647075
12.14154182203761	490879.90088360937
12.262957240257986	393698.35561177763
12.385586812660566	322063.2409576927
12.509442680787172	298255.8105125656
12.634537107595044	342581.7430447751
12.760882478670995	322163.9939639022
12.888491303457704	332682.165053733
13.01737621649228	291886.3667645412
13.147549978657205	306509.7711573249
13.279025478443776	254113.2571421616
13.411815733228213	239913.39852690973
13.545933890560496	270405.99088186875
13.681393229466101	250889.12310380125
13.818207161760762	223043.85788743116
13.956389233378369	235943.69364599368
14.095953125712155	224642.22677767687
14.236912656969274	184999.98395013367
14.379281783538968	178738.27592722108
14.523074601374358	159069.6275393184
14.6683053473881	214307.61189440847
14.814988400861985	200431.21634898824
