#wavelength	surface flux
0.7	429302475.75138134
0.7001166666666666	428454500.2246761
0.7002333527777778	438025080.0249763
0.700350058336574	447597254.92190534
0.7004667833462966	457171025.1813047
0.7005835278101878	466746391.06910706
0.7007002917314895	476323352.8512087
0.7008170751134447	485901910.79360586
0.7009338779592968	495482065.1623224
0.7010507002722901	504482798.6009762
0.7011675420556689	512777972.34306484
0.701284403312678	521074528.61409706
0.7014012840465635	529372467.6445196
0.7015181842605713	537671789.6647791
0.701635103957948	545972494.9053693
0.701752043141941	554274583.5968316
0.701869001815798	562578055.9697543
0.7019859799827672	565989452.4742509
0.7021029776460976	565995845.0772611
0.7022199948090387	566002238.7457051
0.7023370314748403	566008633.4797605
0.7024540876467528	566015029.279605
0.702571163328027	566021426.145416
0.7026882585219152	566027824.0773715
0.7028053732316688	566034223.0756488
0.7029225074605406	567583388.4218131
0.7030396612117841	569728544.3903707
0.7031568344886527	571874057.8849233
0.7032740272944008	574019928.9650571
0.7033912396322832	576166157.690372
0.7035084715055552	578312744.1204723
0.7036257229174727	580459688.3149784
0.7037429938712924	582606990.333519
0.7038602843702709	592200789.8503294
0.7039775944176659	603059108.1019833
0.7040949240167356	613919236.0733501
0.7042122731707383	624781174.0660397
0.7043296418829335	635644922.3817341
0.7044470301565806	646510481.3221462
0.70456443799494	657377851.18904
0.7046818654012724	668247032.2842513
0.7047993123788394	593295209.7255965
0.7049167789309024	518232409.7076551
0.7050342650607243	443157099.2229281
0.7051517707715678	368069276.1864888
0.7052692960666963	292968938.5129138
0.705386840949374	217856084.11642516
0.7055044054228656	142730710.91074806
0.7056219894904361	77619419.43428625
0.7057395931553511	76215268.37591977
0.705857216420877	74810883.29237579
0.7059748592902804	73406264.14465201
0.7060925217668288	72001410.89373553
0.70621020385379	70596323.5006108
0.7063279055544321	69191001.92625564
0.7064456268720246	67785446.13163595
0.7065633678098366	67043227.19034428
0.7066811283711383	68128371.55829574
0.7067989085592001	69213696.78364187
0.7069167083772933	70299202.89652485
0.7070345278286895	71384889.92709403
0.707152366916661	72470757.90550184
0.7072702256444803	73556806.86190481
0.7073881040154211	74643036.82646865
0.7075060020327569	75746064.030804
0.7076239196997625	76873474.0341948
0.7077418570197124	78001071.93925172
0.7078598139958823	79128857.77729276
0.7079777906315483	80256831.57964122
0.7080957869299869	81384993.37762254
0.7082138028944751	82513343.2025696
0.7083318385282908	83641881.08582164
0.7084498938347124	82900575.17844878
0.708567968817018	80573694.48137079
0.7086860634784875	78246425.9708406
0.7088041778224007	75918769.58222343
0.7089223118520377	73590725.2508779
0.7090404655706796	71262292.91214517
0.709158638981608	68933472.50135323
0.709276832088105	66604263.95382576
0.7093950448934531	65573752.76287125
0.7095132774009353	65162617.73722246
0.7096315296138355	64751414.189069234
0.7097498015354378	64340142.106991425
0.7098680931690269	63928801.479567006
0.7099864045178884	63517392.295370825
0.7101047355853081	63105914.54297736
0.7102230863745722	62694368.21095877
0.7103414568889679	63245644.5543587
0.7104598471317828	64015804.358620405
0.7105782571063047	64786092.522848904
0.7106966868158224	65556509.068438075
0.710815136263625	66327054.01678469
0.7109336054530023	67097727.38928984
0.7110520943872445	67868529.20735681
0.7111706030696424	68639459.49239391
0.7112891315034873	69577395.81728625
0.7114076796920712	70523450.67348233
0.7115262476386865	71469663.2054878
0.7116448353466263	72416033.43958129
0.711763442819184	73362561.40204763
0.711882070059654	74309247.1191752
0.7120007170713306	75256090.61725505
0.7121193838575091	76005689.56622706
0.7122380704214853	74696557.40138787
0.7123567767665555	73387207.04785588
0.7124755028960166	72077638.46926433
0.7125942488131658	70767851.62924398
0.7127130145213015	69457846.4914134
0.7128318000237216	68147623.01939721
0.7129506053237256	66837181.1768005
0.7130694304246129	65670970.90070597
0.7131882753296837	65009614.2505088
0.7133071400422386	64348147.3742031
0.7134260245655789	63686570.25341847
0.7135449289030065	63024882.86978017
0.7136638530578235	62363085.20491161
0.7137827970333332	61701177.24043129
0.7139017608328388	61039158.95795704
0.7140207444596443	60878931.41139928
0.7141397479170543	61614018.860383436
0.7142587712083737	62349228.8239414
0.7143778143369084	63084561.32249388
0.7144968773059646	63820016.376462944
0.7146159601188489	64555594.00627409
0.7147350627788687	65291294.232356936
0.7148541852893318	66027117.07514383
0.7149733276535467	66745212.56757794
0.7150924898748222	67445428.21417457
0.715211671956468	68145760.56337912
0.7153308739017941	68846209.6346424
0.715450095714111	69546775.44741724
0.71556933739673	70247458.02116098
0.7156885989529628	70948257.37533358
0.7158078803861218	71649173.52939957
0.7159271816995193	72127969.9218795
0.7160465028964692	72476407.10574307
0.7161658439802853	72824902.3624706
0.7162852049542819	73173455.70174085
0.7164045858217744	73522067.13323453
0.716523986586078	73870736.66663331
0.7166434072505089	74219464.31162082
0.716762847818384	74568250.0778826
0.7168823082930204	75107236.40607296
0.7170017886777359	75702251.65933926
0.7171212889758488	76297366.08181405
0.7172408091906781	76892579.69002609
0.7173603493255433	77487892.50050636
0.7174799093837642	78083304.52978803
0.7175994893686615	78678815.79440817
0.7177190892835562	79274426.31090549
0.7178387091317702	80501083.83221199
0.7179583489166254	81791282.14251138
0.7180780086414448	83081695.48586349
0.7181976883095517	84372323.89810611
0.7183173879242699	85663167.41508424
0.718437107488924	86954226.07264884
0.7185568470068389	88245499.90665685
0.7186766064813399	89544788.64504074
0.7187963859157535	91039303.42241795
0.7189161853134061	92534067.2855913
0.719036004677625	94029080.27607536
0.7191558440117378	95524342.43539022
0.7192757033190732	97019853.80506706
0.7193955826029597	98515614.42663707
0.7195154818667269	100011624.34164527
0.7196354011137046	101200919.8786971
0.7197553403472235	100977097.82728693
0.7198752995706147	100753238.47220163
0.7199952787872098	100529341.80722366
0.720115278000341	100305407.82613488
0.7202352972133411	100081436.52271587
0.7203553364295432	99857427.89074664
0.7204753956522815	99633381.92400509
0.7205954748848902	99618662.24976061
0.7207155741307044	100065508.68535173
0.7208356933930594	100512429.595348
0.7209558326752915	100959424.99216272
0.7210759919807375	101406494.88821082
0.7211961713127342	101853639.29590769
0.7213163706746197	102300858.22767322
0.7214365900697322	102748151.6959269
0.7215568295014103	104075395.73789747
0.721677088972994	106452701.31132977
0.7217973684878227	108830403.10235368
0.7219176680492374	111208501.17701222
0.7220379876605789	113586995.60134846
0.722158327325189	115965886.44142294
0.7222786870464099	118345173.76330288
0.7223990668275843	120724857.63307078
0.7225194666720555	122253794.19605851
0.7226398865831676	123179758.57687205
0.7227603265642646	124105877.28508018
0.722880786618692	125032150.34640832
0.7230012667497951	125958577.7865794
0.7231217669609201	126885159.63132396
0.7232422872554135	127811895.90637514
0.7233628276366229	128738786.63747378
0.7234833881078956	131014965.48391137
0.7236039686725803	133803737.66866876
0.7237245693340255	136592974.64878583
0.7238451900955812	139382676.50173813
0.7239658309605971	142172843.30499598
0.7240864919324239	144963475.13605803
0.7242071730144127	147754572.07242545
0.724327874209915	150546134.19160974
0.7244485955222832	154241474.27911267
0.7245693369548704	158086785.381263
0.7246900985110294	161932737.3685913
0.7248108801941148	165779330.34792778
0.7249316820074803	169626564.42608124
0.7250525039544815	173474439.70992067
0.7251733460384739	177322956.30630803
0.7252942082628137	181172980.12137064
0.7254150906308574	185525317.11153644
0.7255359931459625	189878379.49120098
0.7256569158114868	194232167.38126352
0.7257778586307888	198586680.9026432
0.7258988216072273	202941920.17627522
0.7260198047441617	207297885.32311466
0.7261408080449525	211654576.4641527
0.72626183151296	215627683.55009106
0.7263828751515454	217047491.23885262
0.7265039389640706	218467535.5622287
0.726625022953898	219887816.55965957
0.7267461271243904	221308334.27059066
0.7268672514789111	222729088.73447266
0.7269883960208241	224150079.99076405
0.7271095607534942	225571308.07893243
0.7272307456802866	227682339.7181767
0.7273519508045666	231656409.24080867
0.7274731761297006	235631141.1083592
0.7275944216590555	239606535.43122086
0.7277156873959987	243582592.31980446
0.7278369733438982	247559311.88454255
0.727958279506122	251536694.23586413
0.7280796058860397	255514739.48424911
0.7282009524870207	260575936.37627378
0.7283223193124353	267239098.03970665
0.7284437063656539	273903370.23006976
0.7285651136500483	280568753.1324755
0.7286865411689898	287235246.9320179
0.7288079889258514	293902851.8138764
0.7289294569240056	300571567.9631998
0.7290509451668262	307241395.56522244
0.7291724536576875	314900670.81420577
0.7292939823999636	323380165.3846458
0.7294155313970303	331861073.20419794
0.7295371006522632	340343394.5083843
0.7296586901690385	348827129.53278136
0.7297802999507332	357312278.5130122
0.7299019300007252	365798841.6847615
0.7300235803223919	374286819.2836834
0.7301452509191123	382806498.04247123
0.7302669417942654	391341576.0694193
0.7303886529512311	399878076.6093746
0.7305103843933897	408415999.899422
0.7306321361241218	416955346.1766778
0.7307539081468093	425496115.6783284
0.7308757004648336	434038308.64154434
0.7309975130815778	442581925.30359775
0.7311193460004248	451636643.0108515
0.7312411992247582	460808254.2286516
0.7313630727579622	469981394.04831934
0.7314849666034219	479156062.7246328
0.7316068807645224	488332260.5123868
0.7317288152446498	497509987.66644293
0.7318507700471907	506689244.4416962
0.7319727451755319	515870031.09307516
0.732094740633061	528253178.6200556
0.7322167564231665	540782492.4187937
0.7323387925492371	553313894.4364988
0.7324608490146619	565847385.0212034
0.732582925822831	578382964.5210085
0.7327050229771347	590920633.2840492
0.7328271404809642	603460391.6585631
0.7329492783377112	616035119.7964005
0.7330714365507675	628935186.9882785
0.7331936151235259	641837404.191352
0.7333158140593796	654741771.7639446
0.7334380333617229	667648290.0644857
0.7335602730339499	680556959.4514161
0.7336825330794556	693467780.2832471
0.7338048135016354	706380752.9185251
0.7339271143038857	717057283.3963879
0.734049435489603	720234767.3119485
0.7341717770621846	723412780.8081622
0.7342941390250283	726591323.9732902
0.7344165213815324	729770396.8956113
0.734538924135096	732949999.663424
0.7346613472891185	736130132.3650273
0.734783790847	739310795.0887486
0.7349062548121412	740627103.4911132
0.7350287391879431	738647371.8817232
0.7351512439778078	736667310.3170611
0.7352737691851374	734686918.7421404
0.735396314813335	732706197.1019555
0.7355188808658037	730725145.3415006
0.7356414673459482	728743763.4057482
0.7357640742571725	726762051.2396747
0.7358867016028818	732082951.3840503
0.7360093493864824	744617052.7404187
0.7361320176113801	757153243.1136628
0.736254706280982	769691522.8519694
0.7363774153986956	782231892.303582
0.7365001449679286	794774351.816744
0.7366228949920899	807318901.7398353
0.7367456654745885	819865542.4212468
0.7368684564188344	826200958.9284848
0.7369912678282374	829025796.4839
0.7371140997062088	831851104.8455756
0.7372369520561599	834676884.0919807
0.7373598248815024	837503134.3015873
0.7374827181856494	840329855.5529003
0.7376056319720137	843157047.924422
0.7377285662440091	845984711.4946727
0.7378515210050496	852899828.394281
0.7379744962585505	861045746.3808091
0.738097492007927	869193022.0203328
0.7382205082565949	877341655.5391247
0.738343545007971	885491647.1635015
0.7384666022654723	893642997.1198238
0.7385896800325165	901795705.6344599
0.7387127783125219	909949772.9338588
0.7388358971089073	925781493.6861267
0.7389590364250921	942385804.4440886
0.7390821962644963	958992882.5871893
0.7392053766305403	975602728.576623
0.7393285775266454	992215342.8737335
0.7394517989562333	1008830725.9399095
0.7395750409227259	1025448878.2365698
0.7396983034295463	1042498104.3917744
0.739821586480118	1069078117.016008
0.7399448900778645	1095662559.6422927
0.7400682142262109	1122251433.0090961
0.740191558928582	1148844737.854766
0.7403149241884034	1175442474.9178889
0.7404383100091014	1202044644.9371955
0.7405617163941028	1228651248.6514885
0.7406851433468352	1248406843.1956718
0.7408085908707264	1236803724.5219722
0.7409320589692048	1225198671.9951656
0.7410555476456997	1213591685.2929287
0.7411790569036406	1201982764.0929165
0.7413025867464579	1190371908.072701
0.7414261371775823	1178759116.9098122
0.7415497082004452	1167144390.2817388
0.7416732998184786	1160383423.4166505
0.741796912035115	1164037752.694588
0.7419205448537874	1167692691.027404
0.7420441982779297	1171348238.516609
0.742167872310976	1175004395.2637322
0.7422915669563612	1178661161.3703132
0.7424152822175206	1182318536.9379108
0.7425390180978901	1185976522.0681007
0.7426627746009065	1187266172.7643557
0.7427865517300065	1185668125.9108212
0.7429103494886282	1184069812.7161431
0.7430341678802096	1182471233.1359339
0.7431580069081896	1180872387.1257944
0.7432818665760077	1179273274.6413178
0.7434057468871037	1177673895.6380951
0.7435296478449182	1176074250.0717063
0.7436535694528923	1178369062.6904109
0.7437775117144678	1183330316.3617535
0.7439014746330868	1188292396.9087005
0.7440254582121922	1193255304.4690762
0.7441494624552276	1198219039.180714
0.7442734873656368	1203183601.1814694
0.7443975329468645	1208148990.6092288
0.7445215992023557	1213115207.6018925
0.7446456861355559	1211807539.845663
0.7447697937499119	1208188216.6835248
0.7448939220488703	1204568290.3008606
0.7450180710358784	1200947760.5971355
0.7451422407143843	1197326627.471793
0.7452664310878367	1193704890.8242593
0.7453906421596846	1190082550.5539548
0.7455148739333779	1186459606.560271
0.7456391264123667	1195508867.863902
0.7457633996001021	1206585949.4801242
0.7458876935000356	1217664877.2766356
0.7460120081156189	1228745651.561092
0.7461363434503048	1239828272.6412675
0.7462606995075466	1250912740.8249664
0.7463850762907978	1261999056.4200127
0.7465094738035127	1273039654.5895689
0.7466338920491467	1271639315.5985298
0.746758331031155	1270238743.2176573
0.7468827907529935	1268837937.4080565
0.7470072712181189	1267436898.1308208
0.7471317724299886	1266035625.3470383
0.7472562943920602	1264634119.0177932
0.7473808371077922	1263232379.1041584
0.7475054005806435	1261803617.0774314
0.7476299848140736	1260209610.3324716
0.7477545898115426	1258615337.9197204
0.7478792155765113	1257020799.7949004
0.7480038621124406	1255425995.9137273
0.7481285294227926	1253830926.2319076
0.7482532175110298	1252235590.7051394
0.7483779263806148	1250639989.289119
0.7485026560350116	1249902162.946944
0.7486274064776842	1251486469.4861763
0.748752177712097	1253071040.0764954
0.7488769697417158	1254655874.7619162
0.749001782570006	1256240973.5864494
0.7491266162004343	1257826336.5941198
0.7492514706364677	1259411963.8289585
0.7493763458815739	1260997855.3350048
0.7495012419392209	1264820241.5317402
0.7496261588128773	1271858112.4482515
0.7497510965060128	1278897156.3432536
0.7498760550220971	1285937373.4122357
0.7500010343646007	1292978763.8507307
0.7501260345369949	1300021327.854302
0.750251055542751	1307065065.6185327
0.7503760973853414	1314109977.3390615
0.7505011600682389	1317813650.7835686
0.750626243594917	1318727103.5574062
0.7507513479688495	1319640708.5733712
0.7508764731935109	1320554465.8568394
0.7510016192723765	1321468375.4331882
0.7511267862089218	1322382437.327799
0.7512519740066232	1323296651.566059
0.7513771826689577	1324211018.1733596
0.7515024121994025	1324455194.6174054
0.7516276626014359	1324386860.3859425
0.751752933878536	1324318514.7654407
0.7518782260341824	1324250157.7540023
0.7520035390718548	1324181789.3497288
0.7521288729950334	1324113409.5507212
0.7522542278071992	1324045018.3550804
0.7523796035118337	1323976615.760907
0.7525050001124189	1328739195.7195408
0.7526304176124378	1334553202.5840068
0.7527558560153731	1340368178.4496093
0.752881315324709	1346184123.4778616
0.7530067955439299	1352001037.8302875
0.7531322966765205	1357818921.668431
0.7532578187259665	1363637775.1538825
0.7533833616957542	1369457598.4482481
0.75350892558937	1367631947.6769145
0.7536345104103016	1365446434.9780927
0.7537601161620366	1363260558.0271556
0.7538857428480638	1361074316.7633913
0.7540113904718717	1358887711.126086
0.7541370590369503	1356700741.054508
0.7542627485467898	1354513406.487917
0.7543884590048808	1352524846.062292
0.7545141904147151	1352521787.8585644
0.7546399427797842	1352518729.145136
0.7547657161035808	1352515669.9219222
0.754891510389598	1352512610.1888375
0.7550173256413296	1352509549.9457977
0.7551431618622698	1352506489.192717
0.7552690190559135	1352503427.929511
0.7553948972257561	1349435154.3397577
0.7555207963752938	1336077607.3008006
0.755646716508023	1322717834.0040112
0.755772657627441	1309355834.0783346
0.7558986197370455	1295991607.152668
0.756024602840335	1282625152.855851
0.7561506069408084	1269256470.816651
0.7562766320419653	1255885560.663766
0.7564026781473054	1244646983.0891745
0.75652874526033	1237162790.405937
0.7566548333845401	1229677350.3572483
0.7567809425234375	1222190662.735221
0.7569070726805247	1214702727.3319275
0.7570332238593047	1207213543.9394011
0.7571593960632813	1199723112.3496356
0.7572855892959586	1192231432.3546047
0.7574118035608413	1181294890.1068
0.7575380388614347	1166987525.494802
0.7576642952012449	1152677776.3220298
0.7577905725837782	1138365642.1910827
0.7579168710125422	1124051122.7044218
0.7580431904910444	1109734217.4645078
0.7581695310227928	1095414926.0737383
0.7582958926112967	1081093248.134386
0.7584222752600652	1011867226.2139091
0.7585486789726085	911090587.5948272
0.7586751037524372	810297152.8692704
0.7588015496030628	709486919.2377293
0.7589280165279966	608659883.9007823
0.7590545045307512	507816044.0579461
0.7591810136148396	406955396.9084716
0.7593075437837755	306077939.65099
0.7594340950410726	293075108.8144258
0.7595606673902461	305570631.73706543
0.7596872608348112	318068237.2468713
0.7598138753782836	330567925.690915
0.75994051102418	343069697.4163778
0.7600671677760173	355573552.77045166
0.7601938456373134	368079492.1004275
0.7603205446115863	380587515.75361794
0.7604472647023548	384548251.2134943
0.7605740059131385	387659840.1545389
0.7607007682474575	390771947.6937434
0.7608275517088319	393884573.9175309
0.7609543563007835	396997718.9123626
0.7610811820268336	400111382.76469153
0.7612080288905045	403225565.56098986
0.7613348968953197	406193963.6707624
0.7614617860448022	406161027.285983
0.7615886963424764	406128085.41180605
0.7617156277918667	406095138.0473168
0.7618425803964988	406062185.1916001
0.7619695541598982	406029226.84374076
0.7620965490855914	405996263.0028235
0.7622235651771058	405963293.6679327
0.7623506024379685	402401019.3632814
0.7624776608717082	383368846.49352205
0.7626047404818536	364333501.5949502
0.7627318412719337	345294984.1389279
0.762858963245479	326253293.59665096
0.7629861064060198	307208429.439282
0.7631132707570876	288160391.137867
0.7632404563022137	269109178.1634188
0.7633676630449308	252862574.23213774
0.7634948909887717	242590102.95287675
0.7636221401372697	232315919.59508258
0.7637494104939593	222040023.87338576
0.7638767020623748	211762415.5024168
0.7640040148460518	201483094.19670767
0.7641313488485262	191202059.67078128
0.7642587040733344	180919311.63908893
0.7643860805240132	170832434.77362663
0.7645134782041005	160979654.8465608
0.7646408971171346	151125232.78950307
0.764768337266654	141269168.32877275
0.7648957986561985	131411461.19062912
0.7650232812893079	121552111.10129711
0.7651507851695227	111691117.78695011
0.7652783103003843	101828480.97371861
0.7654058566854343	91137691.89934118
