#wavelength	surface flux
0.8	17734550.55881353
0.8002000000000001	17888045.492172077
0.8004000500000003	18051123.046084933
0.8006001500125003	18214337.775676347
0.8008003000500035	18377593.308950175
0.8010005001250161	18540889.656107392
0.8012007502500472	18704226.827351164
0.8014010504376099	18855713.102452487
0.8016014007002193	19003253.882732287
0.8018018010503944	19150831.54820716
0.8020022515006572	19298446.108098466
0.8022027520635323	19446097.57162962
0.8024033027515483	19585855.059209146
0.8026039035772362	19717875.524209358
0.8028045545531306	19849928.994325828
0.8030052556917691	19982015.47780989
0.803206007005692	20114134.98291471
0.8034068085074435	20245474.577369407
0.8036076602095705	20374568.215181317
0.8038085621246229	20503694.12640258
0.8040095142651542	20632852.31910173
0.8042105166437206	20762042.801349007
0.8044115692728815	20890919.986399647
0.8046126721651998	21004964.748765856
0.8048138253332411	21119038.022322565
0.8050150287895745	21233139.81419777
0.805216282546772	21347270.131520916
0.8054175866174087	21461428.98142333
0.8056189410140631	21582016.44847103
0.8058203457493168	21704445.69939847
0.8060218008357541	21826905.557638485
0.8062233062859632	21949396.030843124
0.8064248621125346	22071917.12666598
0.806626468328063	22194707.766357474
0.8068281249451449	22317734.30158404
0.8070298319763813	22440791.59344456
0.8072315894343755	22563879.649627954
0.8074333973317341	22686998.47782544
0.8076352556810671	22800840.620621525
0.8078371644949874	22892306.60126263
0.8080391237861113	22983795.448398914
0.8082411335670578	23075307.16774693
0.8084431938504498	23166841.765024878
0.8086453046489125	23257923.11762381
0.8088474659750746	23340162.584113438
0.8090496778415686	23422422.610469796
0.809251940261029	23504703.201832682
0.8094542532460944	23587004.36334348
0.8096566168094059	23669326.100144565
0.8098590309636085	23764586.803407464
0.8100614957213493	23862894.975578103
0.8102640110952797	23961227.724791802
0.8104665770980536	24059585.057192843
0.8106691937423283	24157966.97892702
0.8108718610407639	24253083.39187704
0.8110745790060241	24345707.813884694
0.8112773476507757	24438355.391997933
0.8114801669876885	24531026.132005677
0.8116830370294355	24623720.03969837
0.8118859577886929	24709144.94361866
0.8120889292781401	24779445.032746803
0.8122919515104597	24849762.696897224
0.8124950244983374	24920097.940463684
0.8126981482544621	24990450.767841026
0.8129013227915257	25063564.253259193
0.8131045481222237	25168104.586021185
0.8133078242592543	25272671.05386638
0.8135111512153191	25377263.663328506
0.813714529003123	25481882.42094301
0.8139179576353739	25586527.33324694
0.8141214371247829	25734788.569483586
0.8143249674840641	25891539.736756306
0.814528548725935	26048330.091820747
0.8147321808631167	26205159.64447417
0.8149358639083326	26362028.40451571
0.8151395978743097	26489467.08505084
0.8153433827737784	26597026.93198313
0.8155472186194719	26704613.668877114
0.8157511054241268	26812227.3024553
0.815955043200483	26919867.83944195
0.8161590319612831	27019619.1525301
0.8163630717192736	27104890.052768596
0.8165671624872033	27190182.27073206
0.8167713042778252	27275495.8117501
0.8169754971038948	27360830.68115343
0.8171797409781707	27401375.43675513
0.8173840359134155	27084186.66447955
0.8175883819223938	26766918.595011268
0.8177927790178745	26449571.208525438
0.8179972272126291	26132144.485192902
0.8182017265194322	25814638.405179854
0.8184062769510622	25746597.450022746
0.8186108785203001	25716940.6899446
0.8188155312399301	25687276.515676472
0.8190202351227402	25657604.925364744
0.819224990181521	25627925.91715546
0.8194297964290664	26004975.558315482
0.8196346538781738	26627278.9060775
0.8198395625416434	27249737.82967621
0.8200445224322789	27872352.368006084
0.820249533562887	28495122.559970357
0.8204545959462778	28942421.632322624
0.8206597095952644	29107165.916572362
0.8208648745226633	29271951.386893287
0.8210700907412941	29436778.053581767
0.8212753582639793	29601645.92693675
0.8214806771035456	29751100.99970464
0.8216860472728215	29805377.859768394
0.8218914687846397	29859668.289047167
0.822096941651836	29913972.29093329
0.822302465887249	29968289.86881985
0.8225080415037209	30022621.026100915
0.8227136685140968	30076873.97834582
0.8229193469312254	30131130.073992286
0.8231250767679583	30185399.73366268
0.8233308580371503	30239682.96074796
0.8235366907516598	30293979.758640055
0.8237425749243477	30421769.99422793
0.8239485105680789	30588537.796760775
0.824154497695721	30755347.291244145
0.824360536320145	30922198.48810117
0.8245666264542252	31089091.3977574
0.8247727681108388	31228181.061504617
0.8249789613028664	31327426.261085942
0.8251852060431922	31426696.271967247
0.825391502344703	31525991.100351226
0.8255978502202894	31625310.75244239
0.8258042496828445	31723544.461427614
0.8260107007452654	31816408.181449026
0.8262172034204517	31909295.11740035
0.8264237577213068	32002205.275085684
0.8266303636607373	32095138.66031048
0.8268370212516525	32188095.27888154
0.8270437305069654	32243408.757346302
0.8272504914395923	32295792.68144078
0.8274573040624523	32348189.701516293
0.8276641683884679	32400599.82084678
0.8278710844305652	32453023.04270716
0.8280780522016729	32529473.646333937
0.8282850717147234	32616920.243682932
0.8284921429826521	32704388.702681176
0.8286992660183978	32791879.02879424
0.8289064408349024	32879391.22748877
0.8291136674451112	32960510.33632718
0.8293209458619727	33033560.77186349
0.8295282760984382	33106629.47000859
0.829735658167463	33179716.435328312
0.8299430920820048	33252821.67238927
0.8301505778550254	33326937.41396679
0.8303581154994891	33405031.957816597
0.8305657050283641	33483146.025302447
0.8307733464546212	33561279.62130511
0.8309810397912352	33639432.75070689
0.8311887850511829	33717605.41839088
0.8313965822474458	33839049.75256563
0.8316044313930077	33962532.00766017
0.8318123325008561	34086045.133318596
0.8320202855839813	34209589.13725838
0.8322282906553774	34333164.02719916
0.8324363477280413	34421027.85744357
0.8326444568149735	34494524.069291905
0.8328526179291771	34568038.65519311
0.8330608310836596	34641571.6197409
0.8332690962914304	34715122.967529744
0.8334774135655034	34768734.12286729
0.833685782918895	34800064.29138649
0.8338942043646247	34831402.292447805
0.834102677915716	34862748.1280094
0.834311203585195	34894101.80002987
0.8345197813860912	34936293.879251234
0.8347284113314379	35014953.21384765
0.8349370934342709	35093632.21327767
0.8351458277076294	35172330.88245745
0.8353546141645565	35251049.22630466
0.8355634528180977	35329787.24973779
0.8357723436813022	35370658.04134299
0.8359812867672226	35411071.24376576
0.8361902820889144	35451494.54948911
0.8363993296594368	35491927.9610389
0.8366084294918518	35532371.4809416
0.8368175815992247	35630627.08920008
0.8370267859946247	35748814.85609631
0.8372360426911234	35867032.169934236
0.8374453517017962	35985279.0381006
0.8376547130397217	36103555.467984
0.8378641267179816	36197410.3298528
0.8380735927496613	36267026.771317996
0.8382831111478488	36336660.61689352
0.8384926819256358	36406311.8709304
0.8387023050961173	36475980.53778086
0.8389119806723914	36542529.057092935
0.8391217086675596	36600264.08122342
0.8393314890947265	36658013.53910989
0.8395413219670003	36715777.43436085
0.8397512072974922	36773555.77058565
0.8399611450993165	36830916.29880649
0.8401711353855914	36866825.65812024
0.8403811781694378	36902743.994773805
0.8405912734639802	36938671.31101154
0.8408014212823464	36974607.609078355
0.8410116216376671	37010552.89121968
0.8412218745430766	37064965.4747583
0.8414321800117124	37124762.31884829
0.8416425380567154	37184574.11214933
0.8418529486912297	37244400.85839871
0.8420634119284025	37304242.5613346
0.8422739277813847	37428095.76517984
0.8424844962633302	37608363.36779673
0.842695117387396	37788676.03731403
0.8429057911667428	37969033.78499872
0.8431165176145345	38149436.62212042
0.8433272967439382	38269833.89334579
0.8435381285681244	38243781.03597897
0.8437490131002665	38217721.665397815
0.8439599503535415	38191655.779974036
0.84417094034113	38165583.37807888
0.8443819830762154	38144801.744994976
0.8445930785719846	38230729.214190274
0.8448042268416277	38316678.16525283
0.8450154278983382	38402648.60355313
0.8452266817553128	38488640.534463
0.8454379884257517	38574653.963355616
0.8456493479228583	38709557.93385132
0.845860760259839	38856263.882079124
0.846072225449904	39003006.50679399
0.8462837435062666	39149785.81716506
0.8464953144421433	39296601.82236381
0.8467069382707537	39408342.86902145
0.8469186150053215	39492743.38833098
0.847130344659073	39577165.00777037
0.8473421272452377	39661607.732614525
0.8475539627770492	39746071.568139985
0.8477658512677435	39825610.429735884
0.8479777927305605	39894666.80548068
0.8481897871787432	39963740.44531939
0.848401834625538	40032831.3535681
0.8486139350841944	40101939.53454383
0.8488260885679657	40164781.944027066
0.8490382950901076	40151051.93292904
0.8492505546638802	40137318.48932823
0.8494628673025462	40123581.61236652
0.8496752330193721	40109841.301185556
0.8498876518276269	40096097.55492681
0.8501001237405839	39719055.65357393
0.8503126487715191	39269399.48531524
0.850525226933712	38819630.903014734
0.8507378582404455	38369749.878568664
0.8509505427050057	37919756.38386621
0.8511632803406821	37438440.7016838
0.8513760711607672	36935631.76856142
0.8515889151785576	36432697.13320498
0.8518018124073523	35929636.76419012
0.8520147628604541	35426450.630083315
0.8522277665511693	35293598.90500013
0.8524408234928071	35845835.33704493
0.8526539336986805	36398209.8281979
0.8528670971821053	36950722.41297368
0.8530803139564007	37503373.12589501
0.8532935840348901	38067681.3179021
0.8535069074308987	38729417.100391254
0.8537202841577566	39391318.31682659
0.8539337142287962	40053385.00856611
0.8541471976573534	40715617.21697815
0.8543607344567677	41378014.98344241
0.8545743246403821	41576684.847030744
0.8547879682215422	41701732.78787907
0.8550016652135977	41826811.99071259
0.8552154156299011	41951922.463346824
0.8554292194838088	42077064.2135993
0.8556430767886797	42171066.34181898
0.855856987557877	42246165.818827264
0.8560709518047664	42321284.07070475
0.8562849695427177	42396421.10214524
0.8564990407851035	42471576.91784361
0.8567131655452999	42536801.723848544
0.8569273438366862	42585739.758918114
0.8571415756726455	42634690.02849647
0.8573558610665638	42683652.53564222
0.8575702000318304	42732627.283414714
0.8577845925818384	42790765.86395418
0.857999038729984	42906083.17600649
0.8582135384896665	43021429.31738679
0.858428091874289	43136804.29530244
0.8586426988972576	43252208.116962545
0.8588573595719821	43367640.7895781
0.8590720739118751	43423906.68208755
0.8592868419303532	43473207.298441656
0.8595016636408359	43522520.23994985
0.8597165390567462	43571845.50969341
0.8599314681915105	43621183.110754415
0.8601464510585584	43501409.36532595
0.860361487671323	43291836.00723971
0.8605765780432408	43082210.255814
0.8607917221877518	42872532.09795027
0.8610069201182988	42662801.52054713
0.8612221718483286	41557630.84796247
0.8614374773912907	39161361.394254945
0.8616528367606385	36764492.87318465
0.8618682499698288	34367025.13498256
0.8620837170323213	31968958.029846326
0.8622992379615795	29967698.406870056
0.8625148127710699	29932553.45271881
0.8627304414742627	29897399.71232902
0.8629461240846313	29862237.183504123
0.8631618606156526	29827065.86404702
0.8633776510808066	29791885.75176006
0.8635934954935769	31036282.949234825
0.8638093938674504	32385881.233323827
0.8640253462159173	33735816.91698381
0.8642413525524714	35086090.08456468
0.8644574128906095	36436700.820437156
0.8646735272438323	36945316.3492744
0.8648896956256433	37062350.91228871
0.8651059180495498	37179414.73394378
0.8653221945290621	37296507.821554154
0.8655385250776946	37413630.1824366
0.8657549097089641	37820220.19751591
0.8659713484363913	38597456.60421322
0.8661878412735006	39374887.32001257
0.866404388233819	40152512.39349076
0.8666209893308775	40930331.87323696
0.8668376445782103	41517945.02896243
0.8670543539893549	41328582.85418333
0.8672711175778525	41139173.3388604
0.8674879353572469	40949716.471158855
0.8677048073410862	40760212.23924031
0.8679217335429217	40570660.631263666
0.8681387139763074	40752357.954292305
0.8683557486548015	40952545.75681422
0.8685728375919655	41152783.60628701
0.8687899808013633	41353071.51522174
0.8690071782965637	41553409.49613395
0.869224430091138	41473749.495116934
0.8694417361986609	41280118.374892704
0.8696590966327107	41086438.84688846
0.869876511406869	40892710.89900221
0.8700939805347206	40698934.519129075
0.8703115040298544	40580757.67605025
0.870529081905862	40549038.81506297
0.8707467141763385	40517312.02436045
0.8709644008548827	40485577.30196026
0.8711821419550964	40453834.645879485
0.8713999374905854	40425079.48215511
0.871617787474958	40406655.39103537
0.8718356919218269	40388226.693892844
0.8720536508448075	40369793.389576025
0.8722716642575187	40351355.47693314
0.8724897321735832	40332912.95481209
0.8727078546066265	40703693.30418306
0.8729260315702784	41080487.775462426
0.873144263078171	41457376.44535921
0.8733625491439405	41834359.3374235
0.8735808897812266	42211436.475210965
0.8737992850036719	42231557.27136441
0.874017734824923	42125221.64223119
0.8742362392586293	42018859.429190725
0.874454798318444	41912470.62559701
0.8746734120180236	41806055.224802405
0.8748920803710283	41725563.88252317
0.875110803391121	41671130.36033218
0.8753295810919689	41616683.22976062
0.875548413487242	41562222.48740641
0.8757673005906139	41507748.12986661
0.8759862424157616	41675080.50726337
0.8762052389763657	42484302.37898622
0.8764242902861098	43293726.55617644
0.8766433963586814	44103353.08941117
0.8768625572077712	44913182.029279456
0.8770817728470732	45713031.36952607
0.8773010432902849	45718091.36447427
0.8775203685511077	45723152.6244212
0.8777397486432454	45728215.149683125
0.8779591835804065	45733278.94057637
0.8781786733763015	45738343.99741732
0.8783982180446457	45172259.844880596
0.878617817599157	44436127.58042246
0.8788374720535569	43699811.28289855
0.8790571814215703	42963310.906300455
0.8792769457169257	42226626.40460819
0.879496764953355	41923406.50785723
0.8797166391445934	42009989.53837983
0.8799365683043796	42096594.21466007
0.8801565524464557	42183220.54210937
0.8803765915845676	42269868.52614062
0.8805966857324639	42384495.151316755
0.880816834903897	42569369.98361214
0.881037039112623	42754291.03461568
0.8812572983724012	42939258.315881945
0.8814776126969944	43124271.83896861
0.8816979821001687	43312580.26148968
0.8819184065956938	43577409.43603028
0.8821388861973429	43842304.81786479
0.8823594209188923	44107266.42354451
0.882580010774122	44372294.26962552
0.8828006557768155	44637388.37266821
0.8830213559407598	44957802.49890061
0.8832421112797452	45292193.60757036
0.8834629218075651	45626668.31401707
0.8836837875380171	45961226.6391405
0.8839047084849018	46295868.60384527
0.884125684662023	46255427.773393214
0.8843467160831886	45914328.832802035
0.8845678027622095	45573144.61747572
0.8847889447129001	45231875.1060955
0.8850101419490785	44890520.2773375
0.8852313944845657	45011195.03371038
0.885452702333187	46143412.84834987
0.8856740655087704	47275913.717442855
0.8858954840251476	48408697.71175281
0.8861169578961539	49541764.902060814
0.886338487135628	50558250.16629806
0.886560071757412	50019816.88654002
0.8867817117753515	49481248.99846205
0.8870034072032955	48942546.46841182
0.8872251580550963	48403709.262729704
0.8874469643446101	47864737.34774584
0.8876688260856963	47696251.93049378
0.8878907432922178	47604429.20744091
0.8881127159780409	47512583.52870734
0.8883347441570356	47420714.88855397
0.8885568278430749	47328823.281240664
0.8887789670500358	47001503.40149476
0.8890011617917983	46507111.37648816
0.8892234120822464	46012595.75347509
0.8894457179352669	45517956.501556665
0.8896680793647509	45023193.58982487
0.8898904963845921	44686166.03030528
0.8901129690086883	44650253.42313178
0.8903354972509405	44614331.83780649
0.8905580811252535	44578401.27208485
0.8907807206455347	44542461.723721825
0.8910034158256963	44522525.350913785
0.8912261666796527	44645684.09332151
0.8914489732213227	44768873.62541487
0.8916718354646282	44892093.954891376
0.8918947534234944	45015345.08945013
0.8921177271118502	45138627.03679244
0.8923407565436284	45114709.2613567
0.8925638417327644	45066768.20148358
0.8927869826931977	45018815.15634548
0.8930101794388711	44970850.1229461
0.8932334319837308	44922873.09828838
0.8934567403417267	44981820.06106508
0.8936801045268123	45107229.88522981
0.8939035245529441	45232671.0618505
0.8941270004340824	45358143.5987654
0.894350532184191	45483647.50381449
0.8945741198172371	45916158.74731842
0.8947977633471915	46857861.135169186
0.8950214627880284	47799798.94861687
0.8952452181537254	48741972.24651735
0.8954690294582639	49684381.08774289
0.8956928967156286	50537777.10772023
0.8959168199398075	50812196.00127613
0.8961407991447926	51086683.499555476
0.8963648343445789	51361239.61970939
0.896588925553165	51635864.37889319
0.8968130727845534	51910557.79426681
0.8970372760527496	51838890.91957994
0.8972615353717629	51723860.888411954
0.8974858507556059	51608802.09973617
0.8977102222182949	51493714.546363235
0.8979346497738496	51378598.2211019
0.8981591334362931	51406472.560641006
0.8983836732196523	51512567.83972964
0.8986082691379572	51618689.64263796
0.8988329212052417	51724837.975997016
0.8990576294355432	51831012.84643951
0.8992823938429022	51885249.99646853
0.8995072144413631	51862236.4486686
0.8997320912449734	51839217.14748173
0.8999570242677847	51816192.09146957
0.9001820135238516	51793161.27919341
0.9004070590272328	51826792.55685723
0.9006321607919896	52157504.432669245
0.9008573188321878	52488298.986450545
0.9010825331618959	52819176.238870144
0.9013078037951865	53150136.210602894
0.9015331307461353	53481178.9223284
0.9017585140288219	53894028.27897457
0.9019839536573292	54314019.93793779
0.9022094496457435	54734116.59481545
0.9024350020081551	55154318.275857806
0.9026606107586572	55574625.007320285
0.902886275911347	55787501.33877358
0.9031119974803249	55900384.34373873
0.9033377754796951	56013295.56945512
0.903563609923565	56126235.02297789
0.903789500826046	56239202.71136411
0.9040154482012526	56208090.711012684
0.904241452063303	55990291.69123243
0.9044675124263188	55772438.22169728
0.9046936293044254	55554530.28879478
0.9049198027117517	55336567.87890894
0.9051460326624297	55167166.6802153
0.9053723191705955	55204740.09922409
0.9055986622503881	55242322.911587596
0.9058250619159507	55279915.11965419
0.9060515181814298	55317516.725772835
0.9062780310609752	55355127.73229298
0.9065046005687405	55544325.89771798
0.906731226718883	55742027.43755796
0.9069579095255627	55939778.40278264
0.907184649002944	56137578.80574864
0.907411445165195	56335428.658815585
0.9076382980264862	56566779.38163508
0.907865207600993	56812080.24962795
0.9080921739028933	57057442.442837745
0.9083191969463691	57302865.976595804
0.9085462767456058	57548350.866237424
0.9087734133147922	57594218.51813156
0.9090006066681211	57409466.36851522
0.909227856819788	57224668.03086172
0.9094551637839932	57039823.493623555
0.9096825275749393	56854932.74525114
0.9099099482068329	56727555.21666054
0.9101374256938848	56804713.10028048
0.9103649600503083	56881890.27337129
0.9105925512903209	56959086.74075536
0.9108201994281437	57036302.50725635
0.9110479044780008	57113537.57769889
0.9112756664541204	57389747.053591534
0.911503485370734	57670579.6289413
0.9117313612420768	57951482.41243489
0.9119592940823873	58232455.42162427
0.912187283905908	58513498.674066044
0.9124153307268845	58589613.99176315
0.9126434345595664	58591345.97576849
0.9128715954182063	58593078.39276983
0.9130998133170609	58594811.24287542
0.9133280882703902	58596544.52619354
0.913556420292458	58592286.75214471
0.9137848093975312	58581848.80083932
0.9140132555998806	58571408.24004611
0.9142417589137806	58560965.069112696
0.9144703193535092	58550519.287386544
0.9146989369333476	58532218.24694111
0.9149276116675811	58490228.8021593
