#wavelength	surface flux
0.8	456792.669427119
0.8002000000000001	465712.8688322383
0.8004000500000003	475051.33514971955
0.8006001500125003	484396.3384657172
0.8008003000500035	493743.6780325446
0.8010005001250161	503093.354434268
0.8012007502500472	512445.3682550783
0.8014010504376099	521820.28266915964
0.8016014007002193	531204.4286512125
0.8018018010503944	540590.9206697607
0.8020022515006572	549979.7593113177
0.8022027520635323	559370.9451625271
0.8024033027515483	569285.4512805954
0.8026039035772362	579712.9687423512
0.8028045545531306	590143.0930834729
0.8030052556917691	600575.824955685
0.803206007005692	611011.1650108558
0.8034068085074435	621485.5205347207
0.8036076602095705	632064.5477819563
0.8038085621246229	642646.2197859953
0.8040095142651542	653230.537208042
0.8042105166437206	663817.5007094406
0.8044115692728815	674416.2154699087
0.8046126721651998	685409.1812777811
0.8048138253332411	696404.8953270966
0.8050150287895745	707403.3583049347
0.805216282546772	718404.5708985142
0.8054175866174087	729408.5337952364
0.8056189410140631	740659.9301703809
0.8058203457493168	751983.4004083872
0.8060218008357541	763309.7015139386
0.8062233062859632	774638.834194772
0.8064248621125346	785970.7991587678
0.806626468328063	797694.4291951559
0.8068281249451449	809754.949858084
0.8070298319763813	821818.4856511926
0.8072315894343755	833885.0373282405
0.8074333973317341	845954.6056432121
0.8076352556810671	857922.2286917844
0.8078371644949874	869640.1810003511
0.8080391237861113	881361.0627969976
0.8082411335670578	893084.8748140861
0.8084431938504498	904811.6177841912
0.8086453046489125	916533.0992707853
0.8088474659750746	928104.9689951902
0.8090496778415686	939679.7316870416
0.809251940261029	951257.3880695577
0.8094542532460944	962837.9388661792
0.8096566168094059	974421.3848004867
0.8098590309636085	986802.5865811852
0.8100614957213493	999372.9271320386
0.8102640110952797	1011946.4102680315
0.8104665770980536	1024523.0367748132
0.8106691937423283	1037102.8074382264
0.8108718610407639	1050043.737333504
0.8110745790060241	1063261.6571973427
0.8112773476507757	1076482.881541159
0.8114801669876885	1089707.4111910576
0.8116830370294355	1102935.2469733611
0.8118859577886929	1116010.3923914854
0.8120889292781401	1128764.7933343963
0.8122919515104597	1141522.3828775422
0.8124950244983374	1154283.1618180745
0.8126981482544621	1167047.13095334
0.8129013227915257	1179972.2888184113
0.8131045481222237	1194709.7762230244
0.8133078242592543	1209450.9479994904
0.8135111512153191	1224195.8050688964
0.813714529003123	1238944.3483525715
0.8139179576353739	1253696.5787720701
0.8141214371247829	1271575.9790343465
0.8143249674840641	1290065.5448012217
0.814528548725935	1308559.7329595273
0.8147321808631167	1327058.5446648975
0.8149358639083326	1345561.9810731886
0.8151395978743097	1363232.6087627457
0.8153433827737784	1380341.8481727366
0.8155472186194719	1397455.364892574
0.8157511054241268	1414573.159991588
0.815955043200483	1431695.2345393887
0.8161590319612831	1449799.5563021686
0.8163630717192736	1469700.4089072251
0.8165671624872033	1489606.236725411
0.8167713042778252	1509517.0410005706
0.8169754971038948	1529432.8229768092
0.8171797409781707	1548347.664399401
0.8173840359134155	1559236.667628324
0.8175883819223938	1570128.3931080413
0.8177927790178745	1581022.8415191348
0.8179972272126291	1591920.0135423339
0.8182017265194322	1602819.9098585278
0.8184062769510622	1620776.8952920767
0.8186108785203001	1639823.9322038149
0.8188155312399301	1658875.7308747552
0.8190202351227402	1677932.2924953848
0.819224990181521	1696993.6182564073
0.8194297964290664	1719610.7274934477
0.8196346538781738	1744373.8608956158
0.8198395625416434	1769143.1850811245
0.8200445224322789	1793918.7015976901
0.820249533562887	1818700.4119933776
0.8204545959462778	1842636.8780582875
0.8206597095952644	1865208.9589344454
0.8208648745226633	1887786.68283084
0.8210700907412941	1910370.0511582051
0.8212753582639793	1932959.065327629
0.8214806771035456	1954690.1341586704
0.8216860472728215	1971105.8532364876
0.8218914687846397	1987525.6762440752
0.822096941651836	2003949.604207423
0.822302465887249	2020377.6381527523
0.8225080415037209	2036809.7791065767
0.8227136685140968	2054159.139840246
0.8229193469312254	2071616.4951810685
0.8231250767679583	2089078.2148607322
0.8233308580371503	2106544.299970306
0.8235366907516598	2124014.7516011703
0.8237425749243477	2149487.6304501896
0.8239485105680789	2179205.9897109345
0.824154497695721	2208931.778561475
0.824360536320145	2238664.9988592346
0.8245666264542252	2268405.652462067
0.8247727681108388	2295667.8172492995
0.8249789613028664	2319376.4865571866
0.8251852060431922	2343091.0830324213
0.825391502344703	2366811.6081567644
0.8255978502202894	2390538.0634124097
0.8258042496828445	2414453.6053862004
0.8260107007452654	2439264.631908303
0.8262172034204517	2464081.8611870115
0.8264237577213068	2488905.294773046
0.8266303636607373	2513734.934217488
0.8268370212516525	2538570.7810717784
0.8270437305069654	2560061.3937875745
0.8272504914395923	2581295.485659793
0.8274573040624523	2602534.8860549843
0.8276641683884679	2623779.596300256
0.8278710844305652	2645029.6177231143
0.8280780522016729	2669009.0314683025
0.8282850717147234	2694239.6119067455
0.8284921429826521	2719476.499990273
0.8286992660183978	2744719.6972958404
0.8289064408349024	2769969.205400717
0.8291136674451112	2795070.009253819
0.8293209458619727	2819981.62010676
0.8295282760984382	2844899.458862381
0.829735658167463	2869823.52707772
0.8299430920820048	2894753.8263100805
0.8301505778550254	2919978.9355862597
0.8303581154994891	2946362.1483248435
0.8305657050283641	2972751.956866638
0.8307733464546212	2999148.362860548
0.8309810397912352	3025551.367955999
0.8311887850511829	3051960.973802672
0.8313965822474458	3084268.2873191144
0.8316044313930077	3116857.115021877
0.8318123325008561	3149454.0899315956
0.8320202855839813	3182059.2140850257
0.8322282906553774	3214672.489519497
0.8324363477280413	3243409.1790873464
0.8326444568149735	3270589.070536354
0.8328526179291771	3297775.756958192
0.8330608310836596	3324969.240051677
0.8332690962914304	3352169.5215158993
0.8334774135655034	3377370.370146355
0.833685782918895	3400336.4909518044
0.8338942043646247	3423308.353287441
0.834102677915716	3446285.958588678
0.834311203585195	3469269.3082912215
0.8345197813860912	3494152.447574333
0.8347284113314379	3525417.3360052193
0.8349370934342709	3556690.0406581955
0.8351458277076294	3587970.5634872974
0.8353546141645565	3619258.9064471587
0.8355634528180977	3650555.071492746
0.8357723436813022	3677688.413026213
0.8359812867672226	3704777.0410246733
0.8361902820889144	3731872.4411801193
0.8363993296594368	3758974.6151856123
0.8366084294918518	3786083.5647346163
0.8368175815992247	3820485.452781799
0.8370267859946247	3857405.3700765213
0.8372360426911234	3894334.517350556
0.8374453517017962	3931272.8969114055
0.8376547130397217	3968220.511067141
0.8378641267179816	4002684.4248697176
0.8380735927496613	4034683.312850973
0.8382831111478488	4066690.200554205
0.8384926819256358	4098705.089979346
0.8387023050961173	4130727.9831268704
0.8389119806723914	4162758.576057689
0.8391217086675596	4194796.315621712
0.8393314890947265	4226842.064620602
0.8395413219670003	4258895.825056746
0.8397512072974922	4290957.59893302
0.8399611450993165	4323025.588618114
0.8401711353855914	4355012.226088903
0.8403811781694378	4387006.86021905
0.8405912734639802	4419009.493007738
0.8408014212823464	4451020.126454639
0.8410116216376671	4483038.762559897
0.8412218745430766	4515266.545441222
0.8414321800117124	4547560.909862499
0.8416425380567154	4579863.347874897
0.8418529486912297	4612173.861496805
0.8420634119284025	4644492.452747092
0.8422739277813847	4686895.963280007
0.8424844962633302	4738188.161427825
0.842695117387396	4789493.182625115
0.8429057911667428	4840811.030077706
0.8431165176145345	4892141.706992186
0.8433272967439382	4936055.996635328
0.8435381285681244	4961859.337292039
0.8437490131002665	4987669.128783908
0.8439599503535415	5013485.372723634
0.84417094034113	5039308.070724364
0.8443819830762154	5065721.558003393
0.8445930785719846	5103913.099056109
0.8448042268416277	5142114.187994068
0.8450154278983382	5180324.827204255
0.8452266817553128	5218545.019074243
0.8454379884257517	5256774.765992203
0.8456493479228583	5300559.935310979
0.845860760259839	5345691.5618580915
0.846072225449904	5390834.471311841
0.8462837435062666	5435988.666492963
0.8464953144421433	5481154.150222907
0.8467069382707537	5521056.633595582
0.8469186150053215	5556857.944169967
0.847130344659073	5592668.205072006
0.8473421272452377	5628487.418539235
0.8475539627770492	5664315.586809868
0.8477658512677435	5696336.046528915
0.8479777927305605	5720260.324561328
0.8481897871787432	5744190.583663243
0.848401834625538	5768126.825329947
0.8486139350841944	5792069.051057053
0.8488260885679657	5812143.145366334
0.8490382950901076	5784998.14760052
0.8492505546638802	5757846.36358525
0.8494628673025462	5730687.791623987
0.8496752330193721	5703522.430019693
0.8498876518276269	5676350.277075035
0.8501001237405839	5436234.644818446
0.8503126487715191	5153553.081300843
0.850525226933712	4870800.847392516
0.8507378582404455	4587977.925425717
0.8509505427050057	4305084.29772826
0.8511632803406821	4082376.564618066
0.8513760711607672	3900877.903903123
0.8515889151785576	3719333.8685227195
0.8518018124073523	3537744.447133623
0.8520147628604541	3356109.6283892863
0.8522277665511693	3307649.364960564
0.8524408234928071	3505551.2066917834
0.8526539336986805	3703502.523883489
0.8528670971821053	3901503.328904505
0.8530803139564007	4099553.634126543
0.8532935840348901	4322221.969922966
0.8535069074308987	4752439.66182971
0.8537202841577566	5182764.908159792
0.8539337142287962	5613197.735801507
0.8541471976573534	6043738.171649861
0.8543607344567677	6474386.242607256
0.8545743246403821	6645298.384287705
0.8547879682215422	6774987.121842054
0.8550016652135977	6904708.281580774
0.8552154156299011	7034461.871609436
0.8554292194838088	7164247.900035699
0.8556430767886797	7260532.52471688
0.855856987557877	7336480.352362685
0.8560709518047664	7412447.166965353
0.8562849695427177	7488432.973271701
0.8564990407851035	7564437.776029645
0.8567131655452999	7634618.231307312
0.8569273438366862	7695241.709875825
0.8571415756726455	7755880.344313991
0.8573558610665638	7816534.138410789
0.8575702000318304	7877203.095956045
0.8577845925818384	7937356.113232523
0.857999038729984	7994206.675605499
0.8582135384896665	8051071.450619055
0.858428091874289	8107950.441826369
0.8586426988972576	8164843.652781468
0.8588573595719821	8221751.087039326
0.8590720739118751	8263120.179717386
0.8592868419303532	8302665.92037883
0.8595016636408359	8342221.54747544
0.8597165390567462	8381787.063478812
0.8599314681915105	8421362.470861193
0.8601464510585584	8429177.636302477
0.860361487671323	8420131.389232736
0.8605765780432408	8411082.880601231
0.8607917221877518	8402032.109842561
0.8610069201182988	8392979.076391203
0.8612221718483286	8360871.052693646
0.8614374773912907	8295521.376309219
0.8616528367606385	8230155.362505712
0.8618682499698288	8164773.007198714
0.8620837170323213	8099374.306302899
0.8622992379615795	8051659.492897321
0.8625148127710699	8091524.443230554
0.8627304414742627	8131399.359801374
0.8629461240846313	8171284.245101344
0.8631618606156526	8211179.101622641
0.8633776510808066	8251083.931858062
0.8635934954935769	8326198.3095699735
0.8638093938674504	8404216.83839642
0.8640253462159173	8482254.871855073
0.8642413525524714	8560312.414822089
0.8644574128906095	8638389.472174829
0.8646735272438323	8727497.981181066
0.8648896956256433	8821749.621001642
0.8651059180495498	8916024.823732179
0.8653221945290621	9010323.595263308
0.8655385250776946	9104645.941487452
0.8657549097089641	9191712.808331747
0.8659713484363913	9269482.64501375
0.8661878412735006	9347271.924154958
0.866404388233819	9425080.650615942
0.8666209893308775	9502908.829258505
0.8668376445782103	9577296.51196373
0.8670543539893549	9637580.967057787
0.8672711175778525	9697880.493265659
0.8674879353572469	9758195.094355013
0.8677048073410862	9818524.774094665
0.8679217335429217	9878869.536254289
0.8681387139763074	9943952.307795374
0.8683557486548015	10009285.972820781
0.8685728375919655	10074635.971262526
0.8687899808013633	10140002.307203738
0.8690071782965637	10205384.984729022
0.869224430091138	10257382.996523649
0.8694417361986609	10303941.153223338
0.8696590966327107	10350510.94946219
0.869876511406869	10397092.388150105
0.8700939805347206	10443685.47219767
0.8703115040298544	10493991.59659882
0.870529081905862	10548542.059454324
0.8707467141763385	10603106.159925522
0.8709644008548827	10657683.901421836
0.8711821419550964	10712275.28735349
0.8713999374905854	10768440.642406747
0.871617787474958	10830005.248889554
0.8718356919218269	10891585.24652404
0.8720536508448075	10953180.639157936
0.8722716642575187	11014791.430639956
0.8724897321735832	11076417.624819873
0.8727078546066265	11148469.990788879
0.8729260315702784	11220698.751740148
0.873144263078171	11292945.569881579
0.8733625491439405	11365210.449727552
0.8735808897812266	11437493.395793514
0.8737992850036719	11502093.406443384
0.874017734824923	11563981.997342618
0.8742362392586293	11625886.060389552
0.874454798318444	11687805.599452246
0.8746734120180236	11749740.618399698
0.8748920803710283	11813667.461894412
0.875110803391121	11879596.321277354
0.8753295810919689	11945541.66287518
0.875548413487242	12011503.490808403
0.8757673005906139	12077481.809198614
0.8759862424157616	12151069.567867257
0.8762052389763657	12246646.27018694
0.8764242902861098	12342246.866682138
0.8766433963586814	12437871.363326484
0.8768625572077712	12533519.766095022
0.8770817728470732	12628875.372484764
0.8773010432902849	12699527.018828329
0.8775203685511077	12770196.32808358
0.8777397486432454	12840883.304666057
0.8779591835804065	12911587.952992765
0.8781786733763015	12982310.277481463
0.8783982180446457	13033084.325335728
0.878617817599157	13077931.56762267
0.8788374720535569	13122790.021720162
0.8790571814215703	13167659.690431168
0.8792769457169257	13212540.576559352
0.879496764953355	13276819.322085269
0.8797166391445934	13358543.99925428
0.8799365683043796	13440289.107592592
0.8801565524464557	13522054.652207984
0.8803765915845676	13603840.638209607
0.8805966857324639	13681170.004855296
0.880816834903897	13747273.656590769
0.881037039112623	13813393.834239205
0.8812572983724012	13879530.541932045
0.8814776126969944	13945683.783801839
0.8816979821001687	14010912.330267096
0.8819184065956938	14054000.383791046
0.8821388861973429	14097099.209328424
0.8823594209188923	14140208.809572143
0.882580010774122	14183329.187215906
0.8828006557768155	14226460.344954101
0.8830213559407598	14320523.362797301
0.8832421112797452	14427417.064225294
0.8834629218075651	14534337.48907858
0.8836837875380171	14641284.644038111
0.8839047084849018	14748258.5357864
0.884125684662023	14825022.155861937
0.8843467160831886	14877573.860914517
0.8845678027622095	14930138.703893362
0.8847889447129001	14982716.688082961
0.8850101419490785	15035307.816768598
0.8852313944845657	15115912.791527113
0.885452702333187	15257828.011783494
0.8856740655087704	15399778.710844915
0.8858954840251476	15541764.897581067
0.8861169578961539	15683786.580863835
0.886338487135628	15814319.211977828
0.886560071757412	15791522.499913555
0.8867817117753515	15768720.088671267
0.8870034072032955	15745911.976826157
0.8872251580550963	15723098.162953112
0.8874469643446101	15700278.645626586
0.8876688260856963	15769257.200001547
0.8878907432922178	15857252.967112623
0.8881127159780409	15945270.73316542
0.8883347441570356	16033310.503659837
0.8885568278430749	16121372.284096785
0.8887789670500358	16174966.272233926
0.8890011617917983	16204107.4982458
0.8892234120822464	16233256.009564191
0.8894457179352669	16262411.808010388
0.8896680793647509	16291574.89540622
0.8898904963845921	16303188.016120035
0.8901129690086883	16281304.33073425
0.8903354972509405	16259415.174427122
0.8905580811252535	16237520.545830902
0.8907807206455347	16215620.443577562
0.8910034158256963	16179056.64584628
0.8912261666796527	16011483.720623847
0.8914489732213227	15843868.902170062
0.8916718354646282	15676212.180011498
0.8918947534234944	15508513.543672558
0.8921177271118502	15340772.982674636
0.8923407565436284	14595109.39403847
0.8925638417327644	13754991.269992637
0.8927869826931977	12914663.116415512
0.8930101794388711	12074124.880800048
0.8932334319837308	11233376.510625815
0.8934567403417267	10690673.969312852
0.8936801045268123	10333166.757060094
0.8939035245529441	9975570.168004513
0.8941270004340824	9617884.17980153
0.894350532184191	9260108.770101586
0.8945741198172371	9316292.193259688
0.8947977633471915	10059139.33997893
0.8950214627880284	10802172.198484818
0.8952452181537254	11545390.815204892
0.8954690294582639	12288795.236579593
0.8956928967156286	13049604.776902242
0.8959168199398075	13922351.43391639
0.8961407991447926	14795316.277595017
0.8963648343445789	15668499.362484539
0.896588925553165	16541900.74314479
0.8968130727845534	17415520.47415032
0.8970372760527496	17721352.52881945
0.8972615353717629	17956192.042142227
0.8974858507556059	18191090.265343364
0.8977102222182949	18426047.213100236
0.8979346497738496	18661062.900094178
0.8981591334362931	18928892.797426134
0.8983836732196523	19214702.84114989
0.8986082691379572	19500584.337384388
0.8988329212052417	19786537.30399295
0.8990576294355432	20072561.758843407
0.8992823938429022	20296740.61350259
0.8995072144413631	20428912.644259054
0.8997320912449734	20561117.718023162
0.8999570242677847	20693355.843055677
0.9001820135238516	20825627.027619462
0.9004070590272328	20961189.647275064
0.9006321607919896	21113867.63058361
0.9008573188321878	21266583.78338814
0.9010825331618959	21419338.115230802
0.9013078037951865	21572130.635656446
0.9015331307461353	21724961.354212116
0.9017585140288219	21981924.322496373
0.9019839536573292	22247917.421175823
0.9022094496457435	22513977.01812975
0.9024350020081551	22780103.12998322
0.9026606107586572	23046295.773364566
0.902886275911347	23222223.476344146
0.9031119974803249	23354649.096109077
0.9033377754796951	23487107.82227895
0.903563609923565	23619599.663130306
0.903789500826046	23752124.626941968
0.9040154482012526	23854357.182574905
0.904241452063303	23917331.207894105
0.9044675124263188	23980320.976719618
0.9046936293044254	24043326.49298733
0.9049198027117517	24106347.76063414
0.9051460326624297	24179490.65093086
0.9053723191705955	24295684.96104237
0.9055986622503881	24411908.319731306
0.9058250619159507	24528160.734259915
0.9060515181814298	24644442.21189223
0.9062780310609752	24760752.75989387
0.9065046005687405	24809256.99379434
0.906731226718883	24853989.017804783
0.9069579095255627	24898732.22482117
0.907184649002944	24943486.61763931
0.907411445165195	24988252.1990557
0.9076382980264862	25180576.732335813
0.907865207600993	25434225.658400644
0.9080921739028933	25687937.99669692
0.9083191969463691	25941713.763077725
0.9085462767456058	26195552.97340025
0.9087734133147922	26358242.300557896
0.9090006066681211	26415619.758309368
0.909227856819788	26473011.560425207
0.9094551637839932	26530417.71049165
0.9096825275749393	26587838.212095592
0.9099099482068329	26637013.550441016
0.9101374256938848	26656846.711067904
0.9103649600503083	26676684.82998494
0.9105925512903209	26696527.9084317
0.9108201994281437	26716375.947648097
0.9110479044780008	26736228.948874272
0.9112756664541204	27019374.72048083
0.911503485370734	27308617.890019
0.9117313612420768	27597933.370349552
0.9119592940823873	27887321.1795501
0.912187283905908	28176781.33570304
0.9124153307268845	28237643.778539818
0.9126434345595664	28215527.564669326
0.9128715954182063	28193405.821745384
0.9130998133170609	28171278.548385702
0.9133280882703902	28149145.743207682
0.913556420292458	28214655.337494276
0.9137848093975312	28370573.916294307
0.9140132555998806	28526531.474739015
0.9142417589137806	28682528.022573344
