#wavelength	surface flux
0.6450077295303345	6939.238407958306
0.6472567915916443	8132.455630624721
0.6494921445846558	9538.543933902314
0.6517150402069092	11088.45143416431
0.6539263725280762	12798.652188004016
0.6561272740364075	14684.438943636113
0.6583186388015747	16717.259707384776
0.6605015397071838	18971.002583633042
0.6626768708229065	21382.876240831807
0.6648455858230591	23955.75997040086
0.6670085787773132	26371.70990371877
0.6691668033599854	24520.097964268945
0.6713210344314575	20695.786177571175
0.6734722256660461	34252.518240074394
0.6756211519241333	39481.53793468847
0.6777685880661011	43469.912873015914
0.6799154281616211	47378.12373763675
0.6820623278617859	51349.71641118329
0.6842101216316223	55342.692399824286
0.6863595843315125	59329.254899759326
0.688511312007904	63283.29833198526
0.6906660795211792	66787.06567768459
0.6928245425224304	69253.85311681198
0.6949873566627502	73501.09594964593
0.6971551775932312	77657.05265460153
0.6993286609649658	80715.354187376
0.7015084028244019	82853.77427513945
0.7036949396133423	85416.87380885941
0.7058889269828796	87302.28401406114
0.7080909013748169	88572.58002454664
0.710301399230957	89154.71069788349
0.712520956993103	89035.01604334904
0.7147500514984131	87706.89590238489
0.7169892191886902	83638.0309852395
0.7192389369010925	80966.21283198685
0.7214996814727783	79103.05123123933
0.723771870136261	74826.37612873994
0.7260559797286987	69558.96294735816
0.7283523678779602	64722.636917650416
0.7306615710258484	58612.68376529815
0.7329838871955872	53350.92308071811
0.7353196740150452	47333.21184523285
0.7376693487167358	40775.99237771347
0.7400332689285278	34778.83153005504
0.7424117922782898	28727.16600449132
0.7448052167892456	23229.194523682832
0.7472138404846191	18240.513853418604
0.7496379613876343	13881.356247047032
0.7520779371261597	10227.272575261457
0.7545340061187744	7271.606362651793
0.7570064663887024	4953.804514638354
0.7594954967498779	3164.417787203114
0.7620013952255249	1774.7319733466534
0.7645244002342224	679.7406582767735
0.7670646905899048	189.2044768021946
0.7696225643157959	217.62615991828014
0.7721980810165405	1225.6223316351573
0.7747915983200073	3073.9492980382547
0.7774031162261963	5518.9006468256275
0.7800329327583313	7231.251374616976
0.7826811671257019	13786.923278944927
0.7853479981422424	21263.91682691996
0.7880334854125977	30642.430938302754
0.7907378077507019	41914.45540590475
0.7934610247612	29731.44474515181
0.7962033748626709	52142.45139777596
0.7989648580551147	97713.15427614753
0.801745593547821	127601.77368957699
0.8045456409454346	160830.293067899
0.8073651194572449	197920.96775089024
0.8102040886878967	234398.35649365638
0.8130625486373901	273736.5708370678
0.8159406185150146	333424.67605604033
0.8188382983207703	394415.74507227895
0.8217556476593018	467472.5538088654
0.8246926665306091	542151.2806224368
0.8276493549346924	630797.2420489783
0.8306257724761963	718918.8344129347
0.8336219191551208	822725.9705677893
0.8366377949714661	923246.083356953
0.8396733403205872	1049394.3468061432
0.8427285552024841	1188617.0612856618
0.8458034992218018	1342855.9840500022
0.8488980531692505	1463392.864343866
0.8520121574401855	1039498.8647018942
0.8551458716392517	1782450.1823778246
0.8582990765571594	2131403.0032447465
0.8614717125892639	2331680.2723730113
0.8646637797355652	2560384.299309993
0.8678751587867737	2853265.48750675
0.8711057901382446	3154340.0371788046
0.8743556141853333	3460635.711851426
0.87762451171875	3796425.8814006327
0.8809124231338501	4082810.767528109
0.8842192888259888	4362451.67650388
0.8875449895858765	4620438.282375873
0.8908893465995789	4623290.718657473
0.894252359867096	2985114.5381732555
0.8976338505744934	5089999.249709473
0.9010337591171265	6313768.435776715
0.9044519662857056	7256461.11654499
0.9078882932662964	7616996.287557274
0.9113426208496094	8127928.353038422
0.914814829826355	8635519.418129835
0.9183048605918884	8496374.545052823
0.9218124747276306	9780998.265417319
0.925337553024292	8677701.319600336
0.9288799166679382	3413941.1985908104
0.9324395060539246	4733695.221289194
0.9360161423683167	6066140.308854435
0.9396095871925354	8549989.82302472
0.943219780921936	6045620.359208922
0.9468464851379395	5433029.071578578
0.9504896402359009	6056157.055620012
0.9541489481925964	7942916.109173736
0.9578243494033813	8841361.1922167
0.9615156054496765	6709334.215941381
0.9652225375175476	7229990.530622832
0.9689450263977051	8322894.273212312
0.9726828336715698	13235918.296991518
0.9764357805252075	13173824.221977288
0.9802037477493286	13224334.916339692
0.983986496925354	14863524.847350795
0.9877838492393494	16265060.056350658
0.9915955662727356	17739761.857700396
0.9954215884208679	18409670.35462684
0.9992615580558777	18050948.442899458
1.0031154155731201	18318001.767267626
1.0069829225540161	19726017.413131442
1.0108637809753418	20954914.011966106
1.0147579908370972	22085289.98830159
1.018665075302124	22354525.38900199
1.022585153579712	22226155.060562104
1.0265177488327026	21905157.763199806
1.0304628610610962	22195663.328242723
1.0344202518463135	23027191.396456007
1.0383895635604858	23205360.827994335
1.0423706769943237	23003824.529041946
1.0463634729385376	22821689.85049148
1.0503677129745483	22529774.33956886
1.0543830394744873	22493834.652514063
1.058409333229065	22631000.527356863
1.0624464750289917	22730567.017390363
1.0664942264556885	22156838.97228039
1.0705522298812866	21377932.869664833
1.0746204853057861	21254058.842001136
1.0786986351013184	20877508.345779892
1.0827864408493042	20692892.82229422
1.086883783340454	20122349.86452808
1.0909905433654785	18062609.77377084
1.0951062440872192	15122487.150913207
1.0992310047149658	12825804.440480098
1.10336434841156	7388984.930869235
1.1075061559677124	7543463.090981975
1.1116561889648438	4483277.635894628
1.115814208984375	4018203.2630300615
1.1199802160263062	3903353.652384176
1.124153733253479	2083795.7226812502
1.1283347606658936	5413108.066822397
1.1325229406356812	2769805.8858848354
1.1367181539535522	5774441.172472162
1.1409201622009277	7435684.571830723
1.145128846168518	5572746.990723506
1.1493438482284546	7085682.371327503
1.1535650491714478	2688096.8811219814
1.1577922105789185	4111083.8164171977
1.1620250940322876	4203689.082451092
1.1662636995315552	5874515.784278934
1.170507550239563	5866933.33449791
1.174756646156311	8493239.421991669
1.1790107488632202	11127636.992608642
1.1832695007324219	14822883.509530444
1.1875330209732056	16412432.290015334
1.191800832748413	17807187.708841078
1.1960728168487549	20942572.33972346
1.2003488540649414	21179847.437891193
1.2046287059783936	22937962.861100048
1.2089121341705322	23024550.186819438
1.2131990194320679	23444837.93655978
1.2174891233444214	25007719.19637459
1.2217823266983032	26137957.33614973
1.2260783910751343	27268933.09155053
1.230377197265625	27968626.909791555
1.2346785068511963	29017627.305751614
1.238982081413269	30328061.400754407
1.2432878017425537	30855700.614256706
1.2475954294204712	32166753.772506066
1.2519049644470215	32015826.87687169
1.256216049194336	34329765.90934865
1.2605286836624146	35681039.42399739
1.2648425102233887	36447791.63182602
1.2691574096679688	37828585.52759886
1.2734732627868652	38509598.55737582
1.2777899503707886	39323903.954820596
1.2821072340011597	37802471.616363175
1.2864248752593994	37722389.35978597
1.2907428741455078	34632038.85843246
1.2950609922409058	34518909.009969726
1.2993791103363037	34254162.76775897
1.303696870803833	35073187.00406847
1.3080145120620728	34964157.386745535
1.3123314380645752	33330845.348110132
1.3166478872299194	34892919.154531315
1.3209635019302368	33686007.04637573
1.3252781629562378	24877938.293736324
1.3295916318893433	16834099.465794645
1.3339040279388428	4684724.506258968
1.3382149934768677	959317.0630511614
1.3425244092941284	292841.691675362
1.3468321561813354	500679.98021673784
1.3511382341384888	64738.382758961474
1.3554422855377197	127446.42410710348
1.3597444295883179	140472.39275244303
1.3640443086624146	147699.0399492095
1.3683418035507202	115807.24508895297
1.3726370334625244	302301.02119237324
1.3769296407699585	289095.7422557493
1.381219506263733	46072.05663095086
1.3855066299438477	25977.31903060926
1.3897908926010132	83490.41905647017
1.3940720558166504	209427.69428553135
1.3983501195907593	186428.7940174628
1.4026249647140503	542356.1006922476
1.4068963527679443	761872.8010059822
1.4111642837524414	173789.67528253532
1.4154287576675415	144446.38164887074
1.419689416885376	194361.28885246182
1.4239463806152344	184316.2814833615
1.4281994104385376	548819.5348938563
1.4324485063552856	355686.84015444486
1.436693549156189	469668.4956137337
1.440934419631958	778638.735073242
1.4451709985733032	1058928.2740118965
1.449403166770935	1706596.190804499
1.453631043434143	1983160.9343038364
1.4578542709350586	2753776.134191617
1.4620729684829712	3098685.001831966
1.4662868976593018	3120101.288744918
1.4704961776733398	2876889.170206875
1.4747005701065063	3113955.280643231
1.4788999557495117	2807131.1237337505
1.4830944538116455	3022419.2225670405
1.4872838258743286	2710487.676458058
1.491468071937561	2305821.766574228
1.4956470727920532	2740907.462206373
1.4998208284378052	4362468.546521497
1.5039892196655273	6364508.228111475
1.5081522464752197	5565051.5645922795
1.5123097896575928	5724643.446342635
1.5164618492126465	7881645.898208791
1.5206083059310913	9147950.251257375
1.5247491598129272	10367320.88116765
1.5288842916488647	12021999.35706948
1.5330137014389038	12662882.016782964
1.5371372699737549	13469742.446925722
1.541254997253418	15528291.328382013
1.545366883277893	15975612.136560885
1.5494728088378906	17158943.12600981
1.5535727739334106	18368489.799465515
1.5576666593551636	19348264.92078084
1.561754584312439	20935968.803588226
1.5658363103866577	21855930.860512387
1.5699119567871094	21862051.64129966
1.5739814043045044	21171678.74565559
1.5780447721481323	21066801.138219062
1.582101821899414	21268790.45387109
1.5861525535583496	21591261.40205974
1.5901970863342285	20866338.428106677
1.5942351818084717	19912934.333357755
1.5982669591903687	19514692.60640691
1.6022924184799194	18437364.82386813
1.606311559677124	17225194.599910527
1.6103241443634033	16547737.80647718
1.6143304109573364	15574735.01136925
1.6183301210403442	14110340.341417069
1.6223233938217163	12503137.893899186
1.6263102293014526	11187021.961752906
1.6302905082702637	10053664.379861707
1.634264349937439	10798229.174893696
1.638231635093689	13418788.573297283
1.6421923637390137	12662239.679786008
1.646146535873413	8531938.91761545
1.6500942707061768	8536072.812628562
1.6540353298187256	11308363.949680025
1.6579699516296387	10921562.407894697
1.661897897720337	10377052.918324398
1.6658192873001099	6006827.758623875
1.6697341203689575	4638742.993059439
1.6736423969268799	7795796.60480308
1.677544116973877	7007909.4862716235
1.6814392805099487	6848371.059955471
1.6853278875350952	6477804.188655407
1.6892099380493164	5666145.256059443
1.6930854320526123	4657169.814620727
1.696954369544983	3504391.3227467854
1.7008168697357178	3999016.4901181464
1.7046726942062378	3854498.6896298993
1.708522081375122	4836230.597728988
1.712364912033081	5367290.611650271
1.7162011861801147	6067279.53569307
1.7200311422348022	6373601.838030818
1.723854422569275	5831469.017103241
1.7276713848114014	5396325.60870671
1.731481909751892	5050000.7997130165
1.7352858781814575	4876182.655227344
1.7390835285186768	4753639.865850077
1.7428747415542603	4544657.285199716
1.7466596364974976	4268062.106879351
1.7504380941390991	4057099.9666629187
1.7542102336883545	3077441.66193414
1.7579760551452637	2909497.74207711
1.7617355585098267	2938796.0544771906
1.7654887437820435	2511736.127093376
1.7692357301712036	1981053.6085354276
1.7729763984680176	1776402.6498649311
1.776710867881775	1186974.3975582523
1.7804391384124756	1070678.7178520556
1.7841613292694092	1085941.321448391
1.7878772020339966	719042.5625602461
1.7915871143341064	560430.5082546471
1.7952908277511597	570397.6435310703
1.7989884614944458	679470.0198173416
1.8026801347732544	291703.19509701524
1.806365728378296	172351.8255632457
1.8100452423095703	137577.3907603833
1.8137187957763672	100069.12551157431
1.817386507987976	99160.54488341516
1.8210482597351074	97110.08357742171
1.8247040510177612	93011.11012653621
1.828354001045227	68433.7033048518
1.8319982290267944	80364.33116405629
1.8356364965438843	73635.29377195865
1.8392690420150757	117264.7417066218
1.8428958654403687	374904.6353589082
1.8465168476104736	532898.0215226075
1.8501322269439697	308219.4744348592
1.8537418842315674	162927.50960020602
1.8573459386825562	271727.5984976368
1.860944390296936	258225.02807747535
1.864537239074707	163855.2746436212
1.8681244850158691	208100.85536573685
1.871706247329712	128429.89484588042
1.8752825260162354	240093.1643346658
1.8788533210754395	679952.1824407899
1.8824186325073242	771500.0678822219
1.8859784603118896	513282.7608364692
1.8895330429077148	463885.6637595483
1.8930821418762207	808465.6559412573
1.8966259956359863	958026.7851188448
1.9001644849777222	275479.8000972284
1.9036977291107178	148819.84498581875
1.9072256088256836	375560.5485282035
1.9107483625411987	298957.10003222316
1.9142658710479736	119843.45461299531
1.9177782535552979	97275.78061335757
1.9212853908538818	63724.32819275687
1.9247875213623047	79568.37945016084
1.9282845258712769	102027.81690005923
1.9317764043807983	119434.24884955306
1.9352631568908691	156062.51735908623
1.9387450218200684	198983.15580544109
1.942221760749817	235938.9197017293
1.9456936120986938	223125.34542024767
1.9491604566574097	318364.1340223419
1.952622413635254	308753.4356567322
1.956079363822937	176408.9858545204
1.959531545639038	224039.50963975757
1.962978720664978	401959.50683278055
1.966421127319336	597015.0599021551
1.9698586463928223	738689.9786168402
1.9732913970947266	724214.171284585
1.9767193794250488	602493.1793156918
1.9801424741744995	587749.7593419994
1.9835609197616577	947644.0911207809
1.9869745969772339	1148725.4415878414
1.990383505821228	983448.9109664414
1.9937876462936401	856301.5281246399
1.9971871376037598	1084416.4418277359
2.000581979751587	1381890.1450914675
2.003972291946411	1099099.1873540096
2.007357597351074	1120466.5516407017
2.0107386112213135	1685597.83158925
2.0141148567199707	1642836.6157269182
2.017486572265625	1495823.090967709
2.0208535194396973	1567500.9166304634
2.0242159366607666	1455524.700241149
2.027573823928833	1598713.6693092962
2.0309269428253174	1759558.649085877
2.034275770187378	1743024.4255739646
2.0376198291778564	1866728.3587571091
2.040959596633911	2036120.7005535734
2.044294595718384	2202608.0297659924
2.0476250648498535	2433114.7818752024
2.0509510040283203	2429158.829291763
2.054272413253784	2335392.8050901666
2.057589530944824	2403358.175833241
2.0609018802642822	2531586.2171881846
2.0642096996307373	2547201.859645034
2.0675129890441895	2545194.629551159
2.0708119869232178	2534469.7848120607
2.074106216430664	2515881.271142526
2.0773961544036865	2504290.051117458
2.080681324005127	2490654.0479822382
2.0839622020721436	2486722.471716849
2.087238311767578	2495052.4750940977
2.090510129928589	2490415.521946668
2.0937774181365967	2470271.216751635
2.0970399379730225	2453633.747177983
2.1002981662750244	2428677.695685391
2.1035518646240234	2400015.1045439895
2.1068007946014404	2369770.533243794
2.1100454330444336	2351109.5065772864
2.1132853031158447	2342120.8371961573
2.116520881652832	2323658.465721198
2.1197516918182373	2300966.7815442826
2.1229779720306396	2284218.2259067795
2.12619948387146	2268396.1765846238
2.1294167041778564	2249788.4126385157
2.132629156112671	2234843.1328591546
2.1358368396759033	2198647.1318767457
2.139039993286133	2162337.599125221
2.1422386169433594	2114422.4593537357
2.145432472229004	2077290.0243375981
2.1486217975616455	2051617.4617361259
2.151806354522705	1979955.5380786145
2.1549863815307617	1965514.9499077082
2.1581614017486572	1968801.0214619664
2.16133189201355	1922420.421461498
2.1644976139068604	1883473.9681257922
2.167658567428589	1844143.9531995095
2.1708147525787354	1837242.7781057253
2.173966407775879	1826527.6890588833
2.1771130561828613	1762434.0563177462
2.1802549362182617	1668057.0630789455
2.183391809463501	1612255.5569519508
2.1865241527557373	1540603.240234926
2.1896514892578125	1348643.3431241945
2.1927738189697266	1075453.812389846
2.1958916187286377	887487.5815789066
2.1990041732788086	767008.457205323
2.2021119594573975	653181.3060699389
2.2052149772644043	610003.2320620407
2.208312749862671	666487.0994799944
2.2114057540893555	784847.8112602355
2.214493751525879	873072.5084290252
2.217576742172241	867173.8255031385
2.2206547260284424	798311.7081522612
2.2237277030944824	734018.189159416
2.2267956733703613	682955.3616220758
2.2298583984375	655355.4764346009
2.2329163551330566	641554.1235524573
2.235969066619873	616833.0602633106
2.2390167713165283	572037.488466627
2.2420592308044434	475104.96899116406
2.2450966835021973	340922.3384927349
2.248128890991211	318309.27668782783
2.2511560916900635	402071.32990556734
2.254178285598755	421476.85535772966
2.257194995880127	406883.9491632793
2.260206699371338	415249.64264651696
2.2632133960723877	413954.7578799754
2.266214609146118	425155.8181273274
2.2692108154296875	472534.8444276163
2.2722020149230957	528616.0365940984
2.2751877307891846	546073.5152743827
2.278168201446533	510751.5272701287
2.2811436653137207	457795.0556836981
2.284113883972168	418850.76736822724
2.287078857421875	394016.4597925609
2.290038824081421	376858.5812945949
2.2929933071136475	377600.65129159787
2.295942783355713	381848.067495089
2.298887014389038	368686.0987754068
2.301826238632202	376083.2209768418
2.304760217666626	469898.48924577114
2.3076889514923096	633033.2195968385
2.310612440109253	752799.9584059455
2.3135311603546143	705706.6813678179
2.3164443969726562	463453.7820930921
2.319352865219116	293040.64314098726
2.322256088256836	323450.61274945934
2.3251543045043945	348094.39849016245
2.328047275543213	314008.0515966591
2.330935478210449	319133.1037358126
2.3338186740875244	327730.831919056
2.3366971015930176	311286.0763806946
2.3395702838897705	286332.91421862267
2.3424389362335205	260921.01494996087
2.3453025817871094	248355.30451487954
2.348161458969116	267338.48598656914
2.351015567779541	322500.3045360452
2.353865146636963	397892.49846270913
2.3567099571228027	477392.0141151766
2.3595502376556396	560778.5755287855
2.3623859882354736	621916.081867855
2.3652172088623047	565714.75942059
2.368043899536133	376668.74585766764
2.370866537094116	234096.63048619957
2.3736846446990967	225898.0050224969
2.3764986991882324	294817.9090250493
2.3793084621429443	363160.7717315927
2.3821144104003906	399698.346890481
2.384916305541992	424204.20744184393
2.387714147567749	462276.9481317812
2.3905084133148193	498335.1853179012
2.393299102783203	508024.68250589754
2.3960859775543213	507903.65122979786
2.398869514465332	533024.1550094251
2.4016497135162354	543917.0346561589
2.4044265747070312	544506.6509664836
2.407200336456299	579476.2015485549
2.409970998764038	662617.9150698737
2.4127390384674072	743055.4067927148
2.415503978729248	750490.2029918943
2.418266534805298	725397.3928127517
2.4210267066955566	740751.6820679154
2.4237842559814453	767180.68705091
2.426539897918701	825980.3655255536
2.429293394088745	924060.8827070027
2.4320452213287354	1008450.4643872315
2.4347951412200928	1003910.9682446573
2.4375438690185547	992138.6171913432
2.440291166305542	1099531.7550923843
2.443037271499634	1093790.3711161434
2.445782423019409	985719.6047852368
2.4485268592834473	899303.5683194696
2.451270818710327	915870.0828453226
2.454014539718628	1009290.0956375533
2.4567582607269287	1091133.069109242
2.4595019817352295	1102399.312010366
2.4622461795806885	1099798.522007533
2.4649908542633057	1053149.0199656053
2.4677364826202393	965284.3733919496
2.4704833030700684	859476.3485226094
2.473231554031372	762037.0863838773
2.4759814739227295	687459.6936187942
2.4787333011627197	680178.4415069461
2.481487512588501	708565.0165614892
