#wavelength	surface flux
0.428837	45191.196820274236
0.43312537	59018.63895771242
0.43745662370000005	54240.832043098824
0.4418311899370001	53158.55106094829
0.44624950183637	64434.595304929084
0.4507119968547338	77215.9635024183
0.45521911682328114	93604.5049767214
0.4597713079915139	110625.99849769422
0.4643690210714291	103757.4457090919
0.4690127112821433	94856.62710134164
0.47370283839496474	84344.18991455599
0.47843986677891437	71130.45951122699
0.48322426544670355	60400.90901896683
0.48805650810117057	54657.227447529265
0.4929370731821824	46058.798322247196
0.49786644391400414	37328.80767798602
0.5028451083531442	30153.68717796437
0.5078735594366757	23855.290780775184
0.5129522950310424	18803.11016179115
0.5180818179813528	14491.223668171246
0.5232626361611664	10837.154250274327
0.5284952625227781	7785.196513094229
0.5337802151480058	5374.9635214918335
0.5391180172994858	3555.6887433656793
0.5445091974724807	2238.6007984024454
0.5499542894472055	1336.0303465455802
0.5554538323416777	756.95386238529
0.5610083706650945	409.80342715938656
0.5666184543717453	215.63295367210534
0.5722846389154628	111.59321946986046
0.5780074853046174	55.30763388605903
0.5837875601576636	21.13258356450044
0.5896254357592402	2.406858739558026
0.5955216901168326	37.62096760281108
0.6014769070180009	121.34483421845214
0.607491676088181	298.93385853993937
0.6135665928490629	664.9990511107595
0.6197022587775535	1383.1278838634566
0.625899281365329	2712.74337504242
0.6321582741789823	5020.02168568891
0.6384798569207721	8788.730456344922
0.6448646554899798	14565.470615379645
0.6513133020448797	23013.492564309698
0.6578264350653285	34677.28308079532
0.6644046994159818	49647.79008949087
0.6710487464101416	45628.11548792549
0.677759233874243	91138.58449408085
0.6845368262129854	116873.87230449179
0.6913821944751153	140917.25525252466
0.6982960164198664	163129.35080225987
0.7052789765840651	176807.32647243925
0.7123317663499058	178757.12439139493
0.7194550840134049	162626.65532456213
0.7266496348535388	135088.472932677
0.7339161312020743	97854.33852877257
0.741255292514095	58665.175388731084
0.748667845439236	27347.326331589687
0.7561545238936284	9314.528765662279
0.7637160691325647	1601.2603611005832
0.7713532298238903	1325.07049143537
0.7790667621221293	10625.216835889683
0.7868574297433505	44768.22758560363
0.7947260040407841	63494.2960122271
0.8026732640811919	248410.16361056888
0.8106999967220039	444217.7679261168
0.8188069966892239	729582.8619709304
0.8269950666561161	1121822.0343464005
0.8352650173226772	1615249.2511042885
0.8436176674959041	2253056.8909779484
0.852053844170863	2228941.6347539113
0.8605743826125718	4033294.1409794195
0.8691801264386976	5203389.857866915
0.8778719277030844	6644055.6271655345
0.8866506469801153	8120442.00422428
0.8955171534499164	7259322.491146661
0.9044723249844157	12549257.631729087
0.9135170482342599	14959016.307883708
0.9226522187166025	17234693.904120825
0.9318787409037684	11537066.551687738
0.941197528312806	17406291.23984009
0.9506095035959342	16310441.535844358
0.9601155986318936	18519989.175809078
0.9697167546182125	22104863.913391463
0.9794139221643946	27264864.44642804
0.9892080613860387	31344272.047296494
0.9991001419998989	30988736.951275155
1.0090911434198981	33480285.31395382
1.019182054854097	35829788.50770305
1.0293738754026378	35467933.41274414
1.0396676141566643	36768480.225481726
1.050064290298231	35987846.25182086
1.0605649332012133	36246482.49617769
1.0711705825332256	34682786.92333719
1.0818822883585577	33607641.95813678
1.0927011112421434	29633594.036121342
1.1036281223545648	18087813.75638964
1.1146644035781104	11666049.245057419
1.1258110476138916	11534857.26561733
1.1370691580900303	14329435.45556983
1.1484398496709307	17342062.39765379
1.1599242481676402	13299651.088981181
1.1715234906493166	17221739.949567422
1.1832387255558097	28412370.707625978
1.1950711128113678	35395633.50152032
1.2070218239394814	38267844.64991627
1.2190920421788762	40852353.247577414
1.2312829626006652	44032184.54538046
1.2435957922266716	47478963.148775324
1.2560317501489384	51125105.428658865
1.2685920676504279	56819071.439477056
1.281277988326932	59519502.55239847
1.2940907682102014	57389939.63582972
1.3070316758923035	58590409.634219065
1.3201019926512265	57326675.82547032
1.3333030125777388	16403264.892689947
1.3466360427035162	1304293.9153926244
1.3601024031305513	645180.3660156801
1.373703427161857	1654228.8903593468
1.3874404614334754	345150.40695504134
1.4013148660478103	1608991.267484887
1.4153280147082883	734281.2658977103
1.4294812948553712	1669773.7248904852
1.443776107803925	3385660.7239017882
1.4582138688819641	7769737.935517601
1.4727960075707838	8938111.205127394
1.4875239676464918	8723553.397287766
1.5023992073229566	14461516.481441308
1.5174231993961862	18005849.468908366
1.532597431390148	24269694.4208926
1.5479234057040496	28255389.86952843
1.5634026397610903	31536950.357441243
1.579036666158701	30662754.396972235
1.594827032820288	28794858.24032479
1.610775303148491	24513610.401042655
1.6268830561799759	18869037.42972142
1.6431518867417756	18183692.52109654
1.6595834056091934	16645372.574634971
1.6761792396652853	12972157.168273684
1.6929410320619382	9603913.89864399
1.7098704423825577	9447823.318152025
1.7269691468063835	9492314.992017634
1.744238838274447	7830383.428125849
1.7616812266571917	5478688.69397852
1.7792980389237634	2723930.014350191
1.7970910193130012	1471337.117322972
1.815061929506131	410954.4128078538
1.8332125488011928	364746.3425526312
1.8515446742892046	812095.1568676953
1.8700601210320964	597308.1355992096
1.8887607222424174	1570980.370769354
1.9076483294648416	867731.5680080974
1.92672481275949	377436.25640728226
1.9459920608870853	791360.0319498164
1.9654519814959561	1283331.8017536856
1.9851065013109155	2041709.5221628158
2.0049575663240247	2467886.437822241
2.025007141987265	2849401.3444746085
2.0452572134071376	3524088.3076531654
2.065709785541209	3764556.854365417
2.086366883396621	3673230.255146322
2.107230552230587	3528681.828032184
2.1283028577528933	3393582.8869483676
2.1495858863304225	3164871.7351655127
2.1710817451937263	2944341.6071135313
2.1927925626456637	2104680.69783369
2.2147204882721203	1717250.2759476546
2.2368676931548412	1394210.3580122872
2.25923637008639	1117811.2336478194
2.281828733787254	1155316.7569719409
2.3046470211251266	1263152.065756317
2.327693491336378	885486.6283254916
2.3509704262497415	946682.5422991221
2.374480130512239	814549.9628260984
2.3982249318173614	1279444.3663150407
2.4222071811355352	1629106.3514388255
2.4464292529468903	1899574.6506260638
2.4708935454763594	1650636.3603768288
2.4956024809311232	937376.9223028278
2.5205585057404343	395089.5440559481
2.5457640907978387	176286.17429423763
2.5712217317058172	281906.71739555325
2.5969339490228753	77849.65921268135
2.622903288513104	131529.57856613188
2.6491323213982354	732714.4825861763
2.6756236446122177	69748.6982982542
2.7023798810583397	364383.8070775859
2.729403679868923	743529.3502082195
2.7566977166676123	379822.8887815792
2.7842646938342885	376093.8777794963
2.812107340772631	269047.38268546946
2.8402284141803578	761615.3478779267
2.8686306983221614	614175.6837049738
2.897317005305383	826042.6629995524
2.926290175358437	1508744.9719186418
2.9555530771120213	1775075.3083452156
2.9851086078831415	2291593.192915337
3.014959693961973	2880236.7245833497
3.0451092909015927	2564611.2461416353
3.0755603838106085	2981978.0745047866
3.1063159876487147	1644340.5075829015
3.137379147525202	1056499.8525795257
3.168752939000454	398466.216068279
3.200440468390459	314439.708836259
3.232444873074363	479435.38913216395
3.264769321805107	527249.0626532198
3.297417015023158	1129559.0092955746
3.330391185173389	227066.97448555665
3.3636950970251234	687672.8581626591
3.397332047995375	815795.2184757564
3.4313053684753285	534079.0490997551
3.465618422160081	639055.8840300547
3.5002746063816828	947191.1239771885
3.5352773524454997	1437488.711135188
3.570630125969955	2219182.702258996
3.606336427229654	2981426.452638965
3.6423997915019504	4149121.1737114433
3.67882378941697	5533762.527986774
3.7156120273111397	6379119.700303106
3.7527681475842516	7483348.247396063
3.7902958290600934	7272105.93134522
3.8281987873506953	9508543.179543218
3.8664807752242023	8838410.58776248
3.905145582976444	9604164.834795678
3.9441970388062084	10324869.738252055
3.983639009194271	10514095.744828233
4.023475399286213	10509911.33747682
4.063710153279075	10766196.858162979
4.1043472548118665	10175544.231880004
4.145390727359985	9645336.751301713
4.186844634633585	9272359.958868703
4.2287130809799205	8606452.627252338
4.27100021178972	8301721.321004618
4.313710213907617	7429041.728422408
4.356847316046694	7504837.4829810625
4.40041578920716	7219474.647005569
4.444419947099232	6573488.272266037
4.488864146570225	6771326.065424329
4.533752788035927	5811771.336081593
4.579090315916286	6334743.047384956
4.624881219075449	5289399.170693584
4.671130031266204	4439457.915356102
4.717841331578866	4576603.467629986
4.765019744894654	5560227.936335462
4.812669942343601	4421986.652859348
4.8607966417670365	4746905.213853989
4.9094046081847065	3575795.132287976
4.958498654266554	2663496.1697107772
5.008083640809219	3037153.9064327436
5.058164477217312	3382569.0246502687
5.108746121989485	2363699.7869563806
5.15983358320938	1696747.8759456761
5.211431919041474	1039099.4309954124
5.263546238231889	1551959.4671082776
5.316181700614208	1578576.8159592361
5.36934351762035	964927.0294516622
5.423036952796553	733712.3025049372
5.4772673223245185	631680.6916129084
5.532039995547764	798599.4860878072
5.587360395503242	474537.6659519923
5.643233999458275	467762.75908467465
5.6996663394528575	469715.5104580357
5.756663002847385	403099.7212371768
5.814229632875859	531866.9785302874
5.872371929204618	432030.00302767655
5.931095648496664	408473.96333392215
5.990406604981631	473036.55613245175
6.050310671031448	415760.482801813
6.110813777741763	364391.57898105646
6.17192191551918	361097.87118061405
6.233641134674372	1255362.1502609497
6.295977546021115	1473250.0259576142
6.358937321481327	768133.6763895641
6.42252669469614	272825.4404491038
6.486751961643101	256921.31567880855
6.551619481259532	339251.69002343016
6.617135676072128	280527.4874797314
6.683307032832849	388721.5242177301
6.750140103161177	548984.53300507
6.81764150419279	515905.88890606357
6.885817919234718	434121.0721808943
6.954676098427065	544008.2321586141
7.024222859411336	410706.8930458136
7.094465088005449	582675.855406587
7.165409738885503	365979.4165759724
7.237063836274358	452680.0962414455
7.309434474637103	358670.1087178591
7.382528819383473	310480.9263442527
7.456354107577308	284726.84058786277
7.530917648653081	389141.09313433326
7.606226825139612	426469.9956365763
7.682289093391009	221013.74573698544
7.759111984324918	333543.6246423217
7.836703104168168	394017.6383371021
7.91507013520985	353374.36413915886
7.994220836561947	408302.3466315058
8.074163044927568	398001.6770444631
8.154904675376844	441468.0718551767
8.23645372213061	428211.5656543858
8.318818259351918	593927.1692791948
8.402006441945437	513826.969462013
8.486026506364892	462844.5275049154
8.57088677142854	747672.414601884
8.656595639142825	536155.4263676318
8.743161595534254	667305.2239347806
8.830593211489598	585022.934938229
8.918899143604493	413095.92809164245
9.00808813504054	552310.3490349557
9.098169016390944	645957.3931108962
9.189150706554853	651810.088662079
9.281042213620402	519523.750019124
9.373852635756606	355717.2643075664
9.467591162114172	557771.3875023004
9.562267073735315	566083.7641885943
9.657889744472667	477733.2457112318
9.754468641917395	426152.22267196415
9.852013328336568	623702.5071990413
9.950533461619933	634566.2387001005
10.050038796236134	641442.7707687966
10.150539184198495	701782.6391708103
10.252044576040479	641139.76629155
10.354565021800884	151424.81425282382
10.458110672018893	269447.2670915083
10.562691778739081	381857.5699388178
10.668318696526473	312731.33802215056
10.775001883491738	205300.9605807403
10.882751902326655	361162.08818455617
10.991579421349924	366210.13499506825
11.101495215563421	425939.5591029514
11.212510167719055	297161.13137680927
11.324635269396246	354365.4303820312
11.43788162209021	476204.61839108577
11.552260438311112	184926.5018696186
11.667783042694223	376181.54406122514
11.784460873121166	268054.28706980206
11.902305481852377	382840.477322487
12.0213285366709	215564.7708423693
12.14154182203761	340451.6520064363
12.262957240257986	293433.5452179383
12.385586812660566	247776.01191253943
12.509442680787172	247364.22770376503
12.634537107595044	261147.8666137619
12.760882478670995	226779.5322393721
12.888491303457704	239857.30591624035
13.01737621649228	216145.8225667889
13.147549978657205	228719.42317323762
13.279025478443776	224721.91487043563
13.411815733228213	192603.00195936824
13.545933890560496	227114.1172787469
13.681393229466101	208599.77923289992
13.818207161760762	166177.95699063002
13.956389233378369	206278.3649543248
14.095953125712155	167115.42714266127
14.236912656969274	160446.9251171294
14.379281783538968	166569.90553398052
14.523074601374358	142032.2178895933
14.6683053473881	192382.35444782008
14.814988400861985	181413.7513914085
14.963138284870602	145477.85064238927
15.11276966771931	173219.804438163
15.263897364396504	168407.0210615289
15.41653633804047	147238.01247237786
15.570701701420873	114595.04680671578
15.726408718435081	99561.11057997087
15.883672805619431	121967.7612730656
16.042509533675627	90225.43410802117
16.202934629012383	106656.47103718782
16.36496397530251	112947.60094584417
16.528613615055534	111781.6037488487
16.69389975120609	84653.21177529132
16.86083874871815	93095.5777121767
17.02944713620533	90514.11650273786
17.199741607567383	75812.27369628432
17.37173902364306	69745.85889379855
17.54545641387949	77274.5733044306
17.720910978018285	77039.90772037137
17.898120087798468	73932.94452905882
18.077101288676452	70928.38473800427
18.257872301563214	60831.375739434254
18.44045102457885	66470.73579267104
18.62485553482464	57998.11233245095
18.811104090172883	64112.37701158568
18.999215131074614	48988.27869980691
19.189207282385357	55937.27785220742
19.381099355209216	41951.91159448282
19.574910348761303	43679.07123993738
19.77065945224892	45548.79622203307
19.968366046771408	38676.57159017693
20.16804970723912	53866.79747811353
20.369730204311512	36971.37751727582
20.573427506354626	35843.94067528618
20.779161781418175	39639.35152242866
20.98695339923236	33194.54792955635
21.19682293322468	31715.363998927187
21.408791162556927	29056.493749241243
21.622879074182496	31431.156146099005
21.839107864924323	25839.132660493535
22.057498943573567	28311.58482624496
22.278073933009303	29181.569921768954
22.500854672339393	22482.841403775303
22.72586321906279	33852.14410398616
22.953121851253417	21357.860660516817
23.18265306976595	33355.28893197429
23.41447960046361	30186.54808327054
23.648624396468247	18519.966748571296
23.88511064043293	16523.823730109707
24.12396174683726	27052.939701660132
24.365201364305634	31342.761797198254
24.608853377948687	28342.730643380033
24.854941911728176	23153.545866179
25.103491330845458	13715.971530797637
25.354526244153913	13585.597849584154
25.608071506595454	19852.285808242916
25.864152221661406	19501.425578069902
26.122793743878024	15557.894335333616
26.384021681316803	18638.62633703741
26.64786189812997	10928.31311176745
26.91434051711127	11767.921834877428
27.18348392228238	14491.387453646596
27.455318761505207	19836.700185770307
27.72987194912026	15963.012235454029
28.007170668611465	10533.609196238767
28.28724237529758	8891.350241486458
28.57011479905055	8191.407992335266
28.855815947041062	11948.382979446065
29.144374106511474	9493.988078976163
29.435817847576587	10008.674061236463
29.730176026052348	9783.199780490238
30.027477786312875	9345.608269528348
30.327752564176006	7895.740036238069
30.631030089817763	6544.456222376762
30.93734039071594	6836.865012444499
31.246713794623105	8859.901370942833
31.559180932569333	8628.30407756273
31.874772741895026	7240.539822092085
32.19352046931398	8103.778730941379
32.51545567400712	7505.303978086285
32.84061023074719	5177.417463035496
33.169016333054664	4681.3740850073855
33.500706496385206	5971.440779943708
33.83571356134906	6272.581865891444
34.17407069696255	6226.170333378615
34.51581140393218	4880.1220235345045
34.8609695179715	4771.0045030576775
35.209579213151216	4769.244422670949
35.56167500528272	3967.3351048325267
35.917291755335555	3637.68968204312
36.27646467288891	3852.7154821747936
36.639229319617804	4521.033642594874
37.005621612813975	4425.131245234247
37.37567782894212	3854.6853474570576
37.74943460723154	3695.6189213691973
38.12692895330385	4884.161169459305
38.5081982428369	4970.812073201102
38.893280225265265	3727.692608422117
39.28221302751791	2615.0228611091106
39.6750351577931	2562.7609856554345
40.071785509371026	2684.224145250397
40.47250336446474	2504.0957266261644
40.87722839810939	2617.008147149653
41.28600068209048	2730.484437311486
41.69886068891139	3719.1982393708163
42.1158492958005	3016.0482361588524
42.53700778875851	2712.1812432724855
42.962377866646094	2287.3842672139212
43.392001645312554	2119.3656837558015
43.825921661765676	1846.8747719649846
44.264180878383335	1762.0598831683826
44.70682268716717	1827.5468672245752
45.15389091403884	1849.6197606444787
45.60542982317923	2065.1544038017646
46.06148412141103	2081.2583280348726
46.52209896262513	1659.1101064886934
46.98731995225138	1546.8901430713593
47.4571931517739	1569.7009505673439
47.93176508329164	1437.4208408476659
48.411082734124555	1387.623123637742
48.8951935614658	1241.7111823874427
49.38414549708046	1158.7460986355004
49.877986952051266	1098.8809691966753
50.37676682157178	1058.4513896350238
50.88053448978749	1021.3164514778545
51.38933983468537	985.4350271692457
51.903233233032225	950.7763128684057
52.422265565362544	917.2944976563651
52.946488221016175	884.9509449862628
53.47595310322633	853.7181544117655
54.010712634258596	823.5485036757917
54.550819760601186	794.4132861316973
55.0963279582072	766.2774704115941
55.647291237789275	739.1062712304027
56.20376415016716	712.8729387459216
56.765801791668835	687.5404088971018
57.33345980958552	663.0839832517844
57.906794407681375	639.4729785808726
58.48586235175819	616.677179632071
59.070720975275776	594.6741122539094
59.661428185028534	573.4318103053216
60.25804246687882	552.9302113225185
60.860622891547614	533.140486037911
61.46922912046309	514.0407377561492
62.083921411667724	495.60878625479756
62.7047606257844	477.8181553347173
63.331808232042235	460.65342244523697
63.965126314362664	444.0883671217747
64.60477757750628	428.10395735631823
65.25082535328136	412.6817804584194
65.90333360681416	397.80005556829735
66.56236694288232	383.44503673572143
67.22799061231113	369.59460373919035
67.90027051843424	356.23282576935696
68.57927322361859	343.3437676324335
69.26506595585477	330.9094227554215
69.95771661541333	318.91713671894234
70.65729378156746	307.34894504644825
71.36386671938313	296.1917069937349
72.07750538657696	285.4308310431603
72.79828044044274	275.05207922167017
73.52626324484716	265.04400873059814
74.26152587729563	255.39166345323403
75.00414113606858	246.0845835198153
75.75418254742928	237.10984222495537
76.51172437290357	228.4550690849657
77.27684161663261	220.11128946956075
78.04961003279894	212.06525869500993
78.83010613312693	204.30889103913003
79.6184071944582	196.8304141074979
80.41459126640278	189.62021940646028
81.2187371790668	182.67013594582468
82.03092455085748	175.96950870902393
82.85123379636605	169.51114162066528
83.6797461343297	163.28503593225534
84.51654359567301	157.28356163255836
85.36170903162974	151.49937262887968
86.21532612194603	145.92364735569714
87.0774793831655	140.55038377521163
87.94825417699715	135.37135075112164
88.82773671876713	130.38019279659866
89.71601408595481	125.57024122501782
90.61317422681435	120.93436226521949
91.5193059690825	116.46773323551828
92.43449902877332	112.16282334153684
93.35884401906105	108.01508518397564
