#wavelength	surface flux
0.676892	38822.17916761409
0.678297	40899.67438883041
0.679702	43005.158791917405
0.681109	45132.481799844245
0.682517	47295.735746921724
0.683926	49470.771472286244
0.685337	51638.1358054396
0.686749	53806.826106052
0.688164	55952.481245610834
0.689581	57983.98350655878
0.691	59402.959409244475
0.692422	60032.091771286745
0.693847	62239.1347552423
0.695274	64951.76568473161
0.696705	67694.91311275784
0.698139	69822.46279809032
0.699576	71414.96352455989
0.701017	72477.33968971115
0.702461	73710.06148723024
0.70391	75591.5635183936
0.705362	76961.85632421412
0.706819	78005.9057419463
0.70828	79005.07709054537
0.709745	79552.60544155685
0.711216	80302.53835810177
0.71269	80263.37109982388
0.71417	79850.34979231555
0.715655	78187.31182989624
0.717145	74816.8686166164
0.71864	73454.46503608619
0.72014	73173.69749165772
0.721647	73119.10636940101
0.723158	71223.57330906585
0.724676	68462.83336297012
0.726199	65701.34619576717
0.727728	63870.85739435962
0.729264	60359.293603863545
0.730805	57484.909938854944
0.732353	55334.57901479048
0.733907	52448.3563108097
0.735468	49334.7300654811
0.737035	45552.151251802155
0.738609	41762.77928635757
0.74019	38740.62449685534
0.741777	35061.22514046853
0.743372	31423.592451273296
0.744973	28015.76475408572
0.746582	24654.249027530885
0.748197	21464.52086398684
0.74982	18402.34932744854
0.751451	15531.940568432428
0.753088	12954.536534635356
0.754734	10597.752862519588
0.756386	8488.735549233174
0.758047	6623.915606123595
0.759715	5001.196876092086
0.76139	3546.777229635053
0.763074	2227.197409159015
0.764765	1063.669292777589
0.766464	322.131420014974
0.768172	449.7962778097453
0.769887	422.45267405135047
0.77161	1531.05025317928
0.773341	3390.5411100290703
0.775081	5510.28756155452
0.776829	7968.921063552117
0.778585	10007.484549328286
0.780349	11735.55790279038
0.782121	17865.66583494374
0.783902	24083.45396633803
0.785691	30382.6367378399
0.787489	37616.03445417398
0.789295	45652.18044735263
0.79111	53402.10925771227
0.792933	46479.526922578094
0.794764	27150.66746859518
0.796604	71633.05838929882
0.798453	102262.86788469348
0.80031	121156.39382504622
0.802176	139767.66052400524
0.804051	159760.34898707538
0.805934	180867.9585004205
0.807826	201864.6376346773
0.809727	218808.8318795881
0.811636	235617.80620890684
0.813554	256095.42290444285
0.81548	292460.7494726756
0.817416	328655.9529667829
0.81936	362482.16848697
0.821313	406180.7621523824
0.823274	431157.26061069145
0.825244	484740.8309826099
0.827223	531935.6632468522
0.829211	571414.9675026895
0.831208	618258.8388529412
0.833213	674410.8998037892
0.835227	710186.6436297751
0.837249	767590.2719152189
0.83928	831590.8497665303
0.841321	886397.8115024497
0.843369	976700.3288121913
0.845427	1047910.5824531285
0.847493	1153426.9085808115
0.849567	1146879.7991931438
0.851651	919737.0551128024
0.853742	1145232.4716718271
0.855843	1509195.158091975
0.857952	1650150.8189807304
0.86007	1766213.566080769
0.862196	1860981.6545186944
0.864331	1985805.3432872999
0.866474	2118723.496186364
0.868626	2256925.2014649953
0.870786	2412057.736402373
0.872955	2560303.4193466934
0.875132	2701926.0458683097
0.877317	2858062.429872024
0.879511	2986449.777883988
0.881713	3068099.001697951
0.883923	3160909.233566981
0.886142	3293544.1255189697
0.888369	3311312.3405221216
0.890604	3251812.9244283848
0.892847	2462436.814537611
0.895099	2278858.5316987336
0.897358	3303623.4945040545
0.899626	4107426.9504708922
0.901901	4513716.6792727485
0.904185	5108310.890695643
0.906476	5209949.011530826
0.908776	5408460.549345803
0.911083	5494657.816984493
0.913398	5767161.475918666
0.915721	5807758.164102629
0.918051	5328837.3737066
0.92039	6017823.924476034
0.922736	6515937.448150709
0.925089	5429197.788515236
0.927451	2515325.2781440658
0.929819	1343835.7108920428
0.932195	2187194.0484676952
0.934579	2027739.1760701826
0.93697	2960956.42085757
0.939369	4219621.671165626
0.941774	3840090.810446847
0.944187	1706698.85621033
0.946607	1885739.6429538776
0.949035	1876533.9432054244
0.951469	2641817.786996526
0.953911	3317984.4364428623
0.956359	4546778.40181207
0.958814	3361788.9388407283
0.961277	2474164.3774926867
0.963746	2488175.6641476825
0.966222	2861377.2007466224
0.968705	3296888.797244264
0.971194	5985362.767500518
0.97369	7718990.404829573
0.976193	7183530.128332759
0.978702	7602703.982354491
0.981217	7001901.681069411
0.983739	8428992.755642926
0.986268	9507266.576833615
0.988802	10337143.92234891
0.991343	11657065.637665765
0.99389	12290601.836837951
0.996444	13344396.211946486
0.999003	13548323.713827362
1.00157	14098310.565114861
1.00414	14840354.410213409
1.00672	16211251.109340338
1.0093	17280255.651230045
1.01189	18571377.933425076
1.01448	20140876.80036483
1.01708	21036837.33164344
1.01969	21683001.79210986
1.0223	22022164.33748654
1.02492	22278479.630421937
1.02754	22571119.521691475
1.03017	23592409.43395846
1.0328	25221665.43759985
1.03544	26208736.93410159
1.03808	27102669.146558393
1.04073	27619302.215376887
1.04339	28143115.26011743
1.04604	28645586.094224762
1.04871	28916673.588269625
1.05138	29214320.264080677
1.05405	30012532.808315936
1.05673	31042215.678478733
1.05941	31449860.23212037
1.0621	32303485.6979923
1.06479	32195753.954874117
1.06749	32218151.922755085
1.07019	31438068.944476422
1.07289	32103286.849670462
1.0756	32737244.38525085
1.07832	32780424.863494527
1.08104	33156362.46566224
1.08376	32984600.338772003
1.08649	31363557.554120418
1.08922	27524883.863836184
1.09195	21604781.102219213
1.09469	16183504.394075576
1.09743	14927097.062382707
1.10018	9547743.62785309
1.10293	4752031.038078677
1.10568	3067070.2151141786
1.10844	5932659.198113236
1.1112	3027428.7719102744
1.11396	2140877.4526302204
1.11673	2461676.440335369
1.1195	2182604.67867407
1.12228	772701.4858496884
1.12505	761413.3458837179
1.12783	2479884.308255774
1.13062	2127634.9919885164
1.13341	757542.0107777242
1.1362	2730509.329538049
1.13899	5084815.133065463
1.14178	3574726.957713766
1.14458	2459213.8997951923
1.14738	3573434.861401775
1.15019	3610026.0169371795
1.153	1148601.8679864283
1.1558	1204637.4314037685
1.15862	1457257.9806062807
1.16143	1510070.5323179606
1.16425	2244475.9278446524
1.16707	2652555.7878300045
1.16989	2504444.2718310435
1.17271	3154922.4890660327
1.17554	5119555.757702352
1.17837	6840138.064573842
1.1812	8662956.149151249
1.18403	13778783.731445977
1.18686	14411023.581337983
1.1897	13065043.663284885
1.19253	18518178.962480333
1.19537	23000139.316102866
1.19822	21638042.227088064
1.20106	24625803.207212396
1.2039	27521349.260388274
1.20675	29613110.063079152
1.2096	28262191.045945488
1.21245	28543380.838704824
1.2153	32416479.493477214
1.21815	34768789.30464622
1.221	37162547.79592276
1.22385	39481875.55840179
1.22671	41382477.57178389
1.22957	41749717.97125478
1.23242	42840784.39827663
1.23528	44664669.63518174
1.23814	46425734.347468376
1.241	45585328.36645502
1.24387	45158573.309229515
1.24673	48774009.422521256
1.24959	47390048.05499138
1.25245	44239250.62869387
1.25532	50394754.92159049
1.25818	54414734.96044515
1.26105	53512598.79636377
1.26392	52341055.85336431
1.26678	52656391.00924906
1.26965	53083603.27928149
1.27252	51795913.66307443
1.27538	53233525.509639986
1.27825	51256539.363147534
1.28112	46010903.61679224
1.28399	43902697.57491287
1.28686	43292613.91696678
1.28973	36438890.92844189
1.2926	33419756.270603914
1.29546	34311991.31314412
1.29833	35192675.199842684
1.3012	29571174.70451627
1.30407	34617311.46292285
1.30694	32627606.133796208
1.30981	34481553.83188994
1.31267	28241639.140543465
1.31554	28967036.457662955
1.31841	30832198.114338312
1.32128	27505474.755852316
1.32414	18922747.871688947
1.32701	14498846.63217503
1.32987	9208261.79899565
1.33274	2787784.3111833553
1.3356	1380851.8101145998
1.33847	353002.12032765907
1.34133	105787.99892982155
1.34419	207613.96066746023
1.34705	219948.29890624498
1.34991	50942.085784200615
1.35277	12373.959118021654
1.35563	59684.098723592324
1.35849	74572.1684571789
1.36135	34869.982791296716
1.3642	47023.03964926073
1.36706	38469.01424016546
1.36991	44576.92811778442
1.37277	100127.25283240172
1.37562	105773.51808705162
1.37847	54129.803185036864
1.38132	11740.627647265612
1.38417	4004.378850998196
1.38701	15960.84557413395
1.38986	29378.62433496649
1.39271	55972.3938147921
1.39555	85927.12141630877
1.39839	73530.0137777823
1.40123	167144.65328781985
1.40407	249669.93204783404
1.40691	324616.17668456916
1.40974	155739.32825620277
1.41258	37871.55547093564
1.41541	52153.627648951995
1.41824	65336.77934634523
1.42107	79696.9967217003
1.4239	70451.03892301863
1.42673	148425.3390924836
1.42955	253714.41159624548
1.43237	149981.93392780705
1.43519	191689.435071446
1.43801	165797.50290843038
1.44083	328968.84523625346
1.44365	577355.6684374164
1.44646	458335.16962150985
1.44927	748793.250570746
1.45208	840831.2495552434
1.45489	875605.1665333251
1.45769	1252927.7159193675
1.4605	1783712.5646108317
1.4633	1315719.8329904296
1.4661	1366150.723406836
1.4689	1295761.883917066
1.47169	1552457.4575193268
1.47449	1554889.1919229797
1.47728	1536759.4641737072
1.48007	1232023.7542684532
1.48286	1501493.9480295898
1.48564	1696065.660220672
1.48842	1288528.222729473
1.4912	1278483.0786454938
1.49398	1677122.6612429675
1.49676	1648076.1289120854
1.49953	2430800.913054421
1.5023	3636113.4222881654
1.50507	4153991.2791530737
1.50784	3637356.356112393
1.51061	3575282.2288142266
1.51337	4772701.980668979
1.51613	6050280.643477444
1.51888	6096292.564755054
1.52164	7818357.744994418
1.52439	8699150.394522406
1.52714	8640673.714833243
1.52989	9850274.274480496
1.53263	11021167.49750086
1.53538	11472804.866761707
1.53812	12302501.087476691
1.54086	13657287.26279442
1.54359	13895133.629132258
1.54632	15806374.223243762
1.54905	16721089.778370736
1.55178	17022417.876497783
1.5545	18220670.156507187
1.55723	18683304.2089334
1.55995	20428871.88754026
1.56266	22752917.456364494
1.56538	24067206.828183684
1.56809	25044917.747518282
1.5708	25058893.94454104
1.57351	24160255.175572664
1.57621	24644835.422683332
1.57891	24775309.51845154
1.58161	25857276.859381575
1.5843	27320542.873379994
1.587	27741103.592695907
1.58969	26777862.096624423
1.59238	25344858.956930496
1.59506	25029483.72799115
1.59774	25015190.01568841
1.60042	24507995.032212406
1.6031	22744183.259219114
1.60577	21265289.310944967
1.60844	20580252.511875648
1.61111	20090998.53852166
1.61378	19010693.359797377
1.61644	17303032.736400258
1.6191	15497504.669741455
1.62176	13624941.23685305
1.62441	11954436.873246752
1.62707	11147277.822129108
1.62971	9981889.140785135
1.63236	9747993.143702548
1.635	12769420.513891708
1.63764	17093094.212735645
1.64028	18492401.95041979
1.64292	15512872.180693159
1.64555	9468255.612467477
1.64818	7071494.130049448
1.65081	9951003.670456598
1.65343	13712877.656194182
1.65605	13879689.612713518
1.65867	13442812.109403368
1.66128	13165525.700384807
1.6639	10542572.424137887
1.66651	5134241.38057245
1.66911	2993949.5448171454
1.67172	5986266.577516782
1.67432	8166148.909686054
1.67692	7413578.705961991
1.67951	6443126.990923985
1.68211	7217718.541677961
1.6847	6945013.888555182
1.68728	5456298.606320924
1.68987	5107941.433999459
1.69245	4253799.509546995
1.69503	2674495.496503536
1.6976	2477617.682425151
1.70018	3109497.6903712656
1.70275	2935115.2515574545
1.70531	3335183.748175285
1.70788	4308835.54961167
1.71044	4737018.738128271
1.713	5884921.520411575
1.71556	6633805.661625241
1.71811	6988172.3521196535
1.72066	7477896.36997258
1.72321	6823881.99290513
1.72575	6041981.024475542
1.7283	5797487.860463725
1.73084	5406574.213854686
1.73337	5036968.507859444
1.73591	4960246.227336542
1.73844	4797193.817410882
1.74097	4601867.7310256725
1.74349	4331256.75695769
1.74602	4088825.0164703154
1.74854	4028122.8856025334
1.75105	3682005.2585662636
1.75357	2774270.6862165798
1.75608	2258428.1639926685
1.75859	2339484.3738097665
1.7611	2398920.4539250787
1.7636	2290148.857658853
1.7661	1844941.4895494082
1.7686	1431010.680814007
1.7711	1328224.725661404
1.77359	1140289.656305167
1.77608	813243.5070862627
1.77857	651135.2434695476
1.78105	696436.0671623843
1.78354	723940.5958022514
1.78602	562267.8961508239
1.78849	397302.4695180475
1.79097	321989.31434120075
1.79344	287541.1773408437
1.79591	363104.16822356195
1.79837	470931.91850428405
1.80084	295923.44881601445
1.8033	125741.7803839494
1.80576	88330.33032370688
1.80821	80238.01020175997
1.81067	63629.351736803306
1.81312	49038.34152961329
1.81557	45336.51385575324
1.81801	46477.0837193061
1.82046	45334.864894829996
1.8229	47515.636755597705
1.82533	41059.23215772046
1.82777	31625.28518388047
1.8302	31807.193621916475
1.83263	36839.612452932604
1.83506	35572.999140293185
1.83749	35901.062687083926
1.83991	76966.29338345073
1.84233	179246.66668959177
1.84475	299805.8575968744
1.84716	305767.0689905161
1.84957	198236.9498477137
1.85198	124338.84113614443
1.85439	95727.23166650922
1.8568	145338.29874137195
1.8592	191101.302985832
1.8616	133292.55006742838
1.864	84020.58027031773
1.86639	98529.55021382042
1.86878	100934.36270440981
1.87118	66181.22023280618
1.87356	73867.97911660503
1.87595	182876.58476457844
1.87833	430268.03314517863
1.88071	639697.8762006412
1.88309	501753.67339823674
1.88547	318234.7793758882
1.88784	288040.67011773086
1.89021	285319.7301215867
1.89258	623051.8883572525
1.89494	1038090.25663293
1.89731	762070.6180292502
1.89967	295628.92465533124
1.90203	90131.4441265482
1.90439	120055.43285922532
1.90674	236530.44521274278
1.90909	254928.96658595116
1.91144	155476.96459170702
1.91379	68872.99659273367
1.91613	48668.000019187675
1.91848	44087.71760727483
1.92082	32336.435375906774
1.92315	31519.45018467131
1.92549	44910.248845194554
1.92782	52728.51540842092
1.93015	59000.85813534339
1.93248	72934.44043282863
1.93481	94725.09747854562
1.93713	120659.67921306529
1.93945	143114.17911586305
1.94177	167042.66587352092
1.94409	173925.94907914498
1.94641	174197.7176197996
1.94872	231326.54501242292
1.95103	292771.6501259891
1.95334	211907.6026129824
1.95564	132553.99895366176
1.95795	130327.24548375135
1.96025	180066.01381898587
1.96255	270246.45517584676
1.96484	411012.78530987847
1.96714	609648.7055152305
1.96943	796829.6502620747
1.97172	834041.0530851196
1.97401	698346.097368582
1.97629	578636.3612350097
1.97858	539003.7703940766
1.98086	736506.0337285846
1.98314	1144621.3685770237
1.98541	1429466.430250385
1.98769	1380731.3479236492
1.98996	1118202.3287127735
1.99223	899636.365323808
1.9945	969371.0753252455
1.99677	1277555.6215726368
1.99903	1591627.22394783
2.00129	1673823.291361249
2.00355	1477402.3027270662
2.00581	1335702.7487820708
2.00806	1839305.018312633
2.01031	2710516.1591366176
2.01256	2976946.717794042
2.01481	2743225.9977845345
2.01706	2533174.970744294
2.0193	2580082.054047551
2.02154	2763914.716053683
2.02378	2748516.649718115
2.02602	2835855.015552797
2.02825	3166845.653374754
2.03049	3389712.947256621
2.03272	3481829.0117137823
2.03494	3550732.280181912
2.03717	3729860.1205996037
2.03939	4104236.4652352985
2.04162	4363016.78308037
2.04384	4788927.488245909
2.04605	5353004.183627587
2.04827	5803322.304525883
2.05048	5721605.302456994
2.05269	5299295.088061315
2.0549	5255450.175686782
2.05711	5594463.627793594
2.05931	6027154.502881227
2.06151	6255779.897781733
2.06371	6252167.139279829
2.06591	6325944.985283935
2.06811	6410657.954572371
2.0703	6446343.633989911
2.07249	6404403.743034176
2.07468	6298910.922845484
2.07686	6238136.151031967
2.07905	6224040.516521836
2.08123	6219892.898620056
2.08341	6219437.417995086
2.08559	6252816.489026165
2.08776	6302067.060291843
2.08994	6315233.516340055
2.09211	6284512.8246725425
2.09428	6227166.155863713
2.09645	6200674.336879033
2.09861	6129278.276635835
2.10077	6023821.689187473
2.10293	5902283.874774069
2.10509	5780027.133997749
2.10725	5658192.926339624
2.1094	5615373.786869451
2.11155	5605311.483429406
2.1137	5595447.252336425
2.11585	5545294.82897163
2.11799	5467126.258978543
2.12013	5401516.361454696
2.12227	5354600.341729623
2.12441	5325389.0107182795
2.12655	5266735.264545868
2.12868	5204656.822671659
2.13081	5154526.498327757
2.13294	5106381.75607967
2.13507	4987263.034747841
2.13719	4860080.346943395
2.13931	4734674.960388247
2.14143	4587217.065103572
2.14355	4337646.28047429
2.14567	4254138.686115786
2.14778	4185744.987429856
2.14989	4081464.476860334
2.152	3873754.015723757
2.1541	3858325.598562701
2.15621	3870405.079121464
2.15831	3851793.153287315
2.16041	3701439.9888831684
2.16251	3636305.868665065
2.1646	3566619.191314639
2.1667	3481093.588633848
2.16879	3432461.6785462857
2.17087	3382552.3739350038
2.17296	3328286.3574463013
2.17504	3265829.5713652074
2.17713	3139329.7757312213
2.1792	2996249.568808766
2.18128	2856267.337259485
2.18336	2744697.163286965
2.18543	2619425.2848172616
2.1875	2442419.8394516115
2.18957	2196265.1787241185
2.19163	1813760.8365588104
2.1937	1439351.028373428
2.19576	1121537.7436692072
2.19782	890503.1139891101
2.19987	712649.5375284264
2.20193	590322.1861517492
2.20398	529725.4515550046
2.20603	567510.9102508366
2.20808	678938.3950342863
2.21012	810046.5113474166
2.21217	936422.324029573
2.21421	988780.8382679734
2.21625	984768.7188176134
2.21828	927793.4072008529
2.22032	832304.5349492924
2.22235	757602.5501140585
2.22438	697696.214613778
2.22641	651762.348445422
2.22843	621133.5515101867
2.23046	595675.8936434548
2.23248	572278.5084544935
2.2345	541747.4848450248
2.23651	512226.0639785985
2.23853	484785.1790434047
2.24054	431241.9542542578
2.24255	355104.0018717907
2.24456	262645.1087226387
2.24657	232770.78075422297
2.24857	259917.2081429016
2.25057	320399.824517056
2.25257	341465.10951836506
2.25457	337550.3880283131
2.25656	323341.2946495465
2.25856	326077.86813393084
2.26055	318468.0847131476
2.26254	306589.81630175136
2.26453	296836.5706853666
2.26651	310141.92417675385
2.2685	338573.70963275275
2.27048	386966.7695123026
2.27246	429176.3746489654
2.27443	458887.96944678685
2.27641	449361.5590294634
2.27838	420663.5374114452
2.28036	383584.57057093905
2.28233	349641.58162114874
2.28429	324897.1933793975
2.28626	304945.26191346283
2.28823	286294.8122247962
2.29019	275199.88457117544
2.29215	269951.61874149647
2.29411	277319.7443072729
2.29607	277449.05984883814
2.29802	271574.1449530339
2.29998	263090.46898536343
2.30193	285487.3411575278
2.30388	343126.80084827496
2.30583	490071.2076720514
2.30778	651779.4777705411
2.30972	824183.7835835896
2.31167	866173.8922259875
2.31361	816167.0357512289
2.31555	585084.2638464351
2.31749	391157.3205417921
2.31943	235428.73665016342
2.32137	232426.8864983949
2.32331	239093.6344491681
2.32524	253385.40065725087
2.32718	238828.78967396152
2.32911	231085.8309328575
2.33104	233719.116824857
2.33297	235234.07968431676
2.3349	233051.6592513224
2.33683	220126.6053087071
2.33876	204565.35856844927
2.34068	187741.29723814904
2.34261	171122.86131370114
2.34453	161075.68218832283
2.34646	158364.2921116052
2.34838	176394.67454597802
2.3503	202622.05477658616
2.35223	243156.0946761989
2.35415	287197.1999928745
2.35607	333906.7080800606
2.35799	393412.4391205739
2.35991	451349.6810917648
2.36183	507393.91901376174
2.36375	488109.046200077
2.36566	435683.8236032429
2.36758	315988.33675225405
2.3695	218962.6444830995
2.37142	136468.87181770173
2.37334	144466.1021306353
2.37526	166564.8854299323
2.37718	211376.63223199898
2.3791	245448.69872915267
2.38101	273464.4015778464
2.38293	284609.17864321586
2.38485	300683.56671769824
2.38677	321791.3470856917
2.3887	344196.91565499065
2.39062	362645.73233910155
2.39254	368703.192550269
2.39446	371771.73056249233
2.39639	372930.29573451314
2.39831	390935.0087084749
2.40024	403480.60126331076
2.40216	404898.2405110055
2.40409	404700.04445703037
2.40602	408253.80761873553
2.40795	464204.41887055524
2.40989	528169.2445591739
2.41182	601255.4049495314
2.41376	619195.156803261
2.4157	619970.3703256511
2.41764	600937.4255882306
2.41958	599903.4650414647
2.42152	613504.1925749539
2.42347	630450.3547877821
2.42542	662454.3608375476
2.42737	731107.3975535743
2.42932	829113.4951779664
