#wavelength	surface flux
0.8	1023153.8772324971
0.8002000000000001	1036621.610793643
0.8004000500000003	1050904.307099661
0.8006001500125003	1065198.771996542
0.8008003000500035	1079496.8105096486
0.8010005001250161	1093798.4235323898
0.8012007502500472	1108103.6119583661
0.8014010504376099	1121462.2345442255
0.8016014007002193	1134505.9281976537
0.8018018010503944	1147552.882774495
0.8020022515006572	1160603.0990899864
0.8022027520635323	1173656.5779595454
0.8024033027515483	1187532.770429579
0.8026039035772362	1202215.4612374865
0.8028045545531306	1216901.8227180967
0.8030052556917691	1231591.855789084
0.803206007005692	1246285.561368326
0.8034068085074435	1260950.8914726477
0.8036076602095705	1275530.0501380202
0.8038085621246229	1290112.8535930477
0.8040095142651542	1304699.3027489479
0.8042105166437206	1319289.398517132
0.8044115692728815	1333881.359217862
0.8046126721651998	1348400.2955123268
0.8048138253332411	1362922.8615408535
0.8050150287895745	1377449.0582109008
0.805216282546772	1391978.8864301117
0.8054175866174087	1406512.34710637
0.8056189410140631	1420645.4417306678
0.8058203457493168	1434667.711590798
0.8060218008357541	1448693.4870183757
0.8062233062859632	1462722.7688898167
0.8064248621125346	1476755.5580817163
0.806626468328063	1491792.0056461096
0.8068281249451449	1507691.2203304851
0.8070298319763813	1523594.4098185513
0.8072315894343755	1539501.5751039777
0.8074333973317341	1555412.7171807312
0.8076352556810671	1569949.940454611
0.8078371644949874	1581173.9708627847
0.8080391237861113	1592400.807278563
0.8082411335670578	1603630.4504034384
0.8084431938504498	1614862.9009391065
0.8086453046489125	1625945.4096154398
0.8088474659750746	1634186.758105732
0.8090496778415686	1642430.166933158
0.809251940261029	1650675.6366127848
0.8094542532460944	1658923.1676598387
0.8096566168094059	1667172.7605896448
0.8098590309636085	1678496.64770616
0.8100614957213493	1690542.446730176
0.8102640110952797	1702591.2572039494
0.8104665770980536	1714643.079880346
0.8106691937423283	1726697.9155124163
0.8108718610407639	1738990.4054083696
0.8110745790060241	1751465.3857437598
0.8112773476507757	1763943.4848242446
0.8114801669876885	1776424.7034294966
0.8116830370294355	1788909.0423393925
0.8118859577886929	1800041.9161115782
0.8120889292781401	1808364.0382850561
0.8122919515104597	1816688.240989077
0.8124950244983374	1825014.524743774
0.8126981482544621	1833342.8900694086
0.8129013227915257	1842342.5812108698
0.8131045481222237	1859007.4652377025
0.8133078242592543	1875676.5154855435
0.8135111512153191	1892349.7329959422
0.813714529003123	1909027.1188107205
0.8139179576353739	1925708.6739719552
0.8141214371247829	1952640.2254399345
0.8143249674840641	1981565.3477742018
0.814528548725935	2010497.7013890352
0.8147321808631167	2039437.2880923115
0.8149358639083326	2068384.1096922548
0.8151395978743097	2092242.3997981208
0.8153433827737784	2112663.739680984
0.8155472186194719	2133090.184898811
0.8157511054241268	2153521.736727938
0.815955043200483	2173958.396445037
0.8161590319612831	2198347.2305312008
0.8163630717192736	2229974.6776850587
0.8165671624872033	2261610.0317006707
0.8167713042778252	2293253.294554817
0.8169754971038948	2324904.468224693
0.8171797409781707	2351517.674097138
0.8173840359134155	2337854.705758452
0.8175883819223938	2324188.3216776974
0.8177927790178745	2310518.5210009147
0.8179972272126291	2296845.302873959
0.8182017265194322	2283168.6664424855
0.8184062769510622	2301340.4190663337
0.8186108785203001	2324418.2364821294
0.8188155312399301	2347501.8233522475
0.8190202351227402	2370591.181119109
0.819224990181521	2393686.311225398
0.8194297964290664	2431949.8360270616
0.8196346538781738	2479362.169569578
0.8198395625416434	2526786.3561954615
0.8200445224322789	2574222.398868021
0.820249533562887	2621670.300551235
0.8204545959462778	2661366.875190894
0.8206597095952644	2688578.730826723
0.8208648745226633	2715797.389426481
0.8210700907412941	2743022.8526908853
0.8212753582639793	2770255.1223210776
0.8214806771035456	2794674.728845855
0.8216860472728215	2801729.0627580304
0.8218914687846397	2808785.160253684
0.822096941651836	2815843.0217737155
0.822302465887249	2822902.647759123
0.8225080415037209	2829964.03865103
0.8227136685140968	2837445.9733661944
0.8229193469312254	2844977.3186744447
0.8231250767679583	2852510.5468190243
0.8233308580371503	2860045.658270636
0.8235366907516598	2867582.6535001164
0.8237425749243477	2902724.691905952
0.8239485105680789	2952505.6753003574
0.824154497695721	3002299.1039405796
0.824360536320145	3052104.9809379713
0.8245666264542252	3101923.30940461
0.8247727681108388	3142012.324497264
0.8249789613028664	3168159.3166055284
0.8251852060431922	3194312.8454618426
0.825391502344703	3220472.912700359
0.8255978502202894	3246639.5199557086
0.8258042496828445	3273177.4041495523
0.8260107007452654	3301493.285420446
0.8262172034204517	3329816.2456616294
0.8264237577213068	3358146.2866428797
0.8266303636607373	3386483.410134388
0.8268370212516525	3414827.6179067553
0.8270437305069654	3428301.35755374
0.8272504914395923	3440615.8814680893
0.8274573040624523	3452933.48401342
0.8276641683884679	3465254.1659593764
0.8278710844305652	3477577.928075834
0.8280780522016729	3500888.6521748495
0.8282850717147234	3529225.9156388734
0.8284921429826521	3557570.2634187345
0.8286992660183978	3585921.6972855628
0.8289064408349024	3614280.219010838
0.8291136674451112	3639062.407285209
0.8293209458619727	3659332.2741640946
0.8295282760984382	3679607.2085096734
0.829735658167463	3699887.211588862
0.8299430920820048	3720172.284668794
0.8301505778550254	3740935.474878625
0.8303581154994891	3763591.9204453765
0.8305657050283641	3786254.030123543
0.8307733464546212	3808921.805329111
0.8309810397912352	3831595.2474785172
0.8311887850511829	3854274.3579884167
0.8313965822474458	3899878.9737864216
0.8316044313930077	3946558.8215445606
0.8318123325008561	3993250.3392646825
0.8320202855839813	4039953.529864212
0.8322282906553774	4086668.396261395
0.8324363477280413	4116833.7064621313
0.8326444568149735	4140339.0632402203
0.8328526179291771	4163850.296357476
0.8330608310836596	4187367.407283047
0.8332690962914304	4210890.397486318
0.8334774135655034	4225418.9380675275
0.833685782918895	4229897.446196745
0.8338942043646247	4234377.0739529915
0.834102677915716	4238857.821616181
0.834311203585195	4243339.689466283
0.8345197813860912	4253923.479325228
0.8347284113314379	4285045.783644439
0.8349370934342709	4316175.868539711
0.8351458277076294	4347313.735956171
0.8353546141645565	4378459.387839535
0.8355634528180977	4409612.826135857
0.8357723436813022	4423856.373680363
0.8359812867672226	4437894.591881207
0.8361902820889144	4451936.319636594
0.8363993296594368	4465981.557823923
0.8366084294918518	4480030.307320804
0.8368175815992247	4520138.094649337
0.8370267859946247	4569229.69957691
0.8372360426911234	4618333.577405699
0.8374453517017962	4667449.73120394
0.8376547130397217	4716578.164040624
0.8378641267179816	4755975.949736568
0.8380735927496613	4785716.066381205
0.8382831111478488	4815463.618054985
0.8384926819256358	4845218.606616668
0.8387023050961173	4874981.0339255165
0.8389119806723914	4902786.645046788
0.8391217086675596	4925071.147110379
0.8393314890947265	4947361.220299469
0.8395413219670003	4969656.866006859
0.8397512072974922	4991958.08562569
0.8399611450993165	5014195.715666679
0.8401711353855914	5033004.201757354
0.8403811781694378	5051817.389969545
0.8405912734639802	5070635.281478794
0.8408014212823464	5089457.8774609305
0.8410116216376671	5108285.179092059
0.8412218745430766	5130099.9700006
0.8414321800117124	5152788.089198784
0.8416425380567154	5175481.8804267775
0.8418529486912297	5198181.345102584
0.8420634119284025	5220886.48464454
0.8422739277813847	5280791.115304504
0.8424844962633302	5373479.916248938
0.842695117387396	5466191.889393491
0.8429057911667428	5558927.040531334
0.8431165176145345	5651685.375457006
0.8433272967439382	5712453.787545888
0.8435381285681244	5695148.533303238
0.8437490131002665	5677838.952747033
0.8439599503535415	5660525.044795699
0.84417094034113	5643206.808367365
0.8443819830762154	5628703.753949567
0.8445930785719846	5670996.375370954
0.8448042268416277	5713299.569947673
0.8450154278983382	5755613.340323032
0.8452266817553128	5797937.68914098
0.8454379884257517	5840272.619046139
0.8456493479228583	5908305.151463371
0.845860760259839	5982540.4348538695
0.846072225449904	6056794.277065216
0.8462837435062666	6131066.682737131
0.8464953144421433	6205357.656510506
0.8467069382707537	6260943.311857291
0.8469186150053215	6301948.165495089
0.847130344659073	6342963.270346309
0.8473421272452377	6383988.628973701
0.8475539627770492	6425024.243940792
0.8477658512677435	6463265.352054562
0.8479777927305605	6495560.4696977185
0.8481897871787432	6527863.661120276
0.848401834625538	6560174.928340708
0.8486139350841944	6592494.273377925
0.8488260885679657	6620498.659885269
0.8490382950901076	6595813.744491277
0.8492505546638802	6571122.657868424
0.8494628673025462	6546425.398473925
0.8496752330193721	6521721.964764541
0.8498876518276269	6497012.355196762
0.8501001237405839	6262589.737394647
0.8503126487715191	5986247.347456736
0.850525226933712	5709835.871921494
0.8507378582404455	5433355.293517371
0.8509505427050057	5156805.594968486
0.8511632803406821	4937976.820909422
0.8513760711607672	4758668.949738558
0.8515889151785576	4579316.251599623
0.8518018124073523	4399918.715286303
0.8520147628604541	4220476.329589012
0.8522277665511693	4171451.6667853314
0.8524408234928071	4363689.526054918
0.8526539336986805	4555975.444789373
0.8528670971821053	4748309.435003525
0.8530803139564007	4940691.508715003
0.8532935840348901	5157278.742828528
0.8535069074308987	5577938.880972507
0.8537202841577566	5998704.184151376
0.8539337142287962	6419574.678656086
0.8541471976573534	6840550.390784159
0.8543607344567677	7261631.346840341
0.8545743246403821	7418997.011715343
0.8547879682215422	7534504.297534622
0.8550016652135977	7650040.460175341
0.8552154156299011	7765605.5068567265
0.8554292194838088	7881199.444799866
0.8556430767886797	7965088.344906399
0.855856987557877	8029730.209246812
0.8560709518047664	8094388.23405327
0.8562849695427177	8159062.423365953
0.8564990407851035	8223752.781225984
0.8567131655452999	8282454.550658951
0.8569273438366862	8331331.994212693
0.8571415756726455	8380221.657127332
0.8573558610665638	8429123.542457718
0.8575702000318304	8478037.653259384
0.8577845925818384	8528186.513902446
0.857999038729984	8585984.230266571
0.8582135384896665	8643796.396059774
0.858428091874289	8701623.014894428
0.8586426988972576	8759464.090383776
0.8588573595719821	8817319.626142016
0.8590720739118751	8865558.542615365
0.8592868419303532	8912673.985334663
0.8595016636408359	8959801.206914643
0.8597165390567462	9006940.2103
0.8599314681915105	9054090.998436218
0.8601464510585584	9066330.455704845
0.860361487671323	9060036.025290102
0.8605765780432408	9053740.021267755
0.8607917221877518	9047442.443244398
0.8610069201182988	9041143.290826537
0.8612221718483286	8983018.712115271
0.8614374773912907	8850168.506987104
0.8616528367606385	8717285.089307692
0.8618682499698288	8584368.450773776
0.8620837170323213	8451418.583080247
0.8622992379615795	8347990.811562759
0.8625148127710699	8390795.206104003
0.8627304414742627	8433610.301743887
0.8629461240846313	8476436.101157688
0.8631618606156526	8519272.607021345
0.8633776510808066	8562119.82201146
0.8635934954935769	8666611.21002833
0.8638093938674504	8776180.927181127
0.8640253462159173	8885778.036763206
0.8642413525524714	8995402.54562268
0.8644574128906095	9105054.460609347
0.8646735272438323	9186060.354964936
0.8648896956256433	9253752.559662389
0.8651059180495498	9321461.687411021
0.8653221945290621	9389187.742441524
0.8655385250776946	9456930.72898588
0.8657549097089641	9536722.814396674
0.8659713484363913	9631938.661596917
0.8661878412735006	9727178.312759005
0.866404388233819	9822441.773833867
0.8666209893308775	9917729.050773956
0.8668376445782103	9999430.592737464
0.8670543539893549	10025605.050040849
0.8672711175778525	10051786.050958578
0.8674879353572469	10077973.597126506
0.8677048073410862	10104167.690180987
0.8679217335429217	10130368.331758747
0.8681387139763074	10195040.298150687
0.8683557486548015	10261639.264541384
0.8685728375919655	10328254.88067376
0.8687899808013633	10394887.150710026
0.8690071782965637	10461536.078813884
0.869224430091138	10504995.83156459
0.8694417361986609	10539024.02327558
0.8696590966327107	10573060.72203449
0.869876511406869	10607105.929968089
0.8700939805347206	10641159.649203658
0.8703115040298544	10682973.58891328
0.870529081905862	10733660.42574476
0.8707467141763385	10784359.93428543
0.8709644008548827	10835072.117703233
0.8711821419550964	10885796.97916686
0.8713999374905854	10934618.272157148
0.871617787474958	10976838.127930565
0.8718356919218269	11019068.538667962
0.8720536508448075	11061309.507008048
0.8722716642575187	11103561.035590192
0.8724897321735832	11145823.127054503
0.8727078546066265	11205823.150195604
0.8729260315702784	11266107.864734432
0.873144263078171	11326407.65045183
0.8733625491439405	11386722.511115663
0.8735808897812266	11447052.450494686
0.8737992850036719	11473394.5420952
0.874017734824923	11487699.940421773
0.8742362392586293	11502008.915097922
0.874454798318444	11516321.467017742
0.8746734120180236	11530637.597075539
0.8748920803710283	11556459.138186974
0.875110803391121	11593845.37989295
0.8753295810919689	11631240.968159374
0.875548413487242	11668645.905322865
0.8757673005906139	11706060.193720646
0.8759862424157616	11767701.846817892
0.8762052389763657	11899434.868439164
0.8764242902861098	12031200.823315749
0.8766433963586814	12162999.719681088
0.8768625572077712	12294831.565770559
0.8770817728470732	12425444.790060405
0.8773010432902849	12458370.477937104
0.8775203685511077	12491304.39723582
0.8777397486432454	12524246.550014319
0.8779591835804065	12557196.938331055
0.8781786733763015	12590155.564244824
0.8783982180446457	12576358.432334112
0.878617817599157	12548646.435975913
0.8788374720535569	12520927.511618638
0.8790571814215703	12493201.65753028
0.8792769457169257	12465468.8719784
0.879496764953355	12469777.391004177
0.8797166391445934	12502900.45788467
0.8799365683043796	12536031.805531884
0.8801565524464557	12569171.436016008
0.8803765915845676	12602319.351407787
0.8805966857324639	12646441.033598829
0.880816834903897	12718115.74420312
0.881037039112623	12789808.373485092
0.8812572983724012	12861518.925924376
0.8814776126969944	12933247.406001803
0.8816979821001687	13003444.464355981
0.8819184065956938	13037187.021719368
0.8821388861973429	13070938.014722131
0.8823594209188923	13104697.445473112
0.882580010774122	13138465.316081764
0.8828006557768155	13172241.628658088
0.8830213559407598	13242444.677450974
0.8832421112797452	13321824.847150665
0.8834629218075651	13401224.861892732
0.8836837875380171	13480644.726638509
0.8839047084849018	13560084.446350485
0.884125684662023	13593368.332536805
0.8843467160831886	13589656.618704762
0.8845678027622095	13585943.97694426
0.8847889447129001	13582230.40702332
0.8850101419490785	13578515.908709899
0.8852313944845657	13640206.842144402
0.885452702333187	13845079.699033994
0.8856740655087704	14050003.774137778
0.8858954840251476	14254979.080260282
0.8861169578961539	14460005.630209224
0.886338487135628	14641751.244474187
0.886560071757412	14513051.319776073
0.8867817117753515	14384319.220096787
0.8870034072032955	14255554.937392522
0.8872251580550963	14126758.463617733
0.8874469643446101	13997929.79072442
0.8876688260856963	13988446.179714914
0.8878907432922178	14003666.853541998
0.8881127159780409	14018891.33253753
0.8883347441570356	14034119.617652828
0.8885568278430749	14049351.709839389
0.8887789670500358	14016813.135835096
0.8890011617917983	13950376.47429441
0.8892234120822464	13883923.203588305
0.8894457179352669	13817453.31956458
0.8896680793647509	13750966.818069795
0.8898904963845921	13687383.177729063
0.8901129690086883	13629354.091470493
0.8903354972509405	13571310.497940375
0.8905580811252535	13513252.393511828
0.8907807206455347	13455179.774557253
0.8910034158256963	13383053.083132435
0.8912261666796527	13185437.370404694
0.8914489732213227	12987772.253748717
0.8916718354646282	12790057.72081338
0.8918947534234944	12592293.759245003
0.8921177271118502	12394480.356686356
0.8923407565436284	11836952.654205473
0.8925638417327644	11220614.453576023
0.8927869826931977	10604122.16839621
0.8930101794388711	9987475.760145143
0.8932334319837308	9370675.19029211
0.8934567403417267	8983705.164696459
0.8936801045268123	8739546.84257486
0.8939035245529441	8495327.480872897
0.8941270004340824	8251047.064330413
0.894350532184191	8006705.577683855
0.8945741198172371	8112716.262765219
0.8947977633471915	8799872.038820477
0.8950214627880284	9487199.60381972
0.8952452181537254	10174699.000709806
0.8954690294582639	10862370.272449525
0.8956928967156286	11530749.057996443
0.8959168199398075	12072977.889982369
0.8961407991447926	12615342.279176429
0.8963648343445789	13157842.259467773
0.896588925553165	13700477.864753885
0.8968130727845534	14243249.128941387
0.8970372760527496	14365557.852560671
0.8972615353717629	14435271.844293036
0.8974858507556059	14505003.264523342
0.8977102222182949	14574752.117608687
0.8979346497738496	14644518.407907343
0.8981591334362931	14926025.31331271
0.8983836732196523	15323389.02068795
0.8986082691379572	15720852.068989776
0.8988329212052417	16118414.483053677
0.8990576294355432	16516076.287721436
0.8992823938429022	16767308.026688531
0.8995072144413631	16800731.856162477
0.8997320912449734	16834164.04159378
0.8999570242677847	16867604.58507143
0.9001820135238516	16901053.488684952
0.9004070590272328	16937701.586875793
0.9006321607919896	16991086.278871603
0.9008573188321878	17044484.31704047
0.9010825331618959	17097895.70471885
0.9013078037951865	17151320.44524416
0.9015331307461353	17204758.541954573
0.9017585140288219	17569574.42966332
0.9019839536573292	17961300.14688255
0.9022094496457435	18353123.795530796
0.9024350020081551	18745045.40009165
0.9026606107586572	19137064.98505352
0.902886275911347	19354558.691367414
0.9031119974803249	19487925.904292922
0.9033377754796951	19621326.45902166
0.903563609923565	19754760.363889027
0.903789500826046	19888227.627232697
0.9040154482012526	19945812.003374796
0.904241452063303	19905067.89713653
0.9044675124263188	19864313.60487172
0.9046936293044254	19823549.124033842
0.9049198027117517	19782774.45207574
0.9051460326624297	19766717.34665049
0.9053723191705955	19855952.782450408
0.9055986622503881	19945210.527109187
0.9058250619159507	20034490.586204138
0.9060515181814298	20123792.96531392
0.9062780310609752	20213117.670018416
0.9065046005687405	20081017.191449765
0.906731226718883	19936529.785643734
0.9069579095255627	19792006.257986438
0.907184649002944	19647446.59944722
0.907411445165195	19502850.800993215
0.9076382980264862	19758058.537706148
0.907865207600993	20179382.75662902
0.9080921739028933	20600812.306606505
0.9083191969463691	21022347.213971414
0.9085462767456058	21443987.50506337
0.9087734133147922	21609812.53411907
0.9090006066681211	21480087.47094951
0.909227856819788	21350329.976514325
0.9094551637839932	21220540.042705353
0.9096825275749393	21090717.661412973
0.9099099482068329	20954155.96155921
0.9101374256938848	20793723.81400401
0.9103649600503083	20633251.558412
0.9105925512903209	20472739.18475612
0.9108201994281437	20312186.68300666
0.9110479044780008	20151594.043131944
0.9112756664541204	20548391.00711319
0.911503485370734	20958046.63908666
0.9117313612420768	21367804.684968133
0.9119592940823873	21777665.17036095
0.912187283905908	22187628.120875243
0.9124153307268845	22175267.43651388
0.9126434345595664	22009587.669853747
0.9128715954182063	21843866.483252108
0.9130998133170609	21678103.866353735
0.9133280882703902	21512299.80880115
0.913556420292458	21484882.703423258
0.9137848093975312	21600221.999928333
0.9140132555998806	21715590.131257523
0.9142417589137806	21830987.104619548
