#wavelength	surface flux
0.8	28210641.865983382
0.8002000000000001	28358274.90201132
0.8004000500000003	28517867.54666778
0.8006001500125003	28677620.520498157
0.8008003000500035	28837413.432572
0.8010005001250161	28997246.292873934
0.8012007502500472	29157119.111390717
0.8014010504376099	29305035.428516813
0.8016014007002193	29448970.273913186
0.8018018010503944	29592941.103020906
0.8020022515006572	29736947.92483597
0.8022027520635323	29880990.74835636
0.8024033027515483	30017115.465192292
0.8026039035772362	30145479.48816013
0.8028045545531306	30273875.60213372
0.8030052556917691	30402303.815135863
0.803206007005692	30530764.135191143
0.8034068085074435	30656627.63301425
0.8036076602095705	30775153.29980116
0.8038085621246229	30893708.598004673
0.8040095142651542	31012293.53503281
0.8042105166437206	31130908.118295163
0.8044115692728815	31249274.68278651
0.8046126721651998	31355727.65904933
0.8048138253332411	31462207.248556126
0.8050150287895745	31568713.4579604
0.805216282546772	31675246.293916997
0.8054175866174087	31781805.763082527
0.8056189410140631	31897508.280858763
0.8058203457493168	32015820.25921547
0.8060218008357541	32134161.815566618
0.8062233062859632	32252532.957306907
0.8064248621125346	32370933.691832554
0.806626468328063	32489455.863019988
0.8068281249451449	32608086.541174818
0.8070298319763813	32726746.876999334
0.8072315894343755	32845436.877907712
0.8074333973317341	32964156.551316366
0.8076352556810671	33074128.06451158
0.8078371644949874	33162997.34365081
0.8080391237861113	33251888.84010985
0.8082411335670578	33340802.55944295
0.8084431938504498	33429738.507205974
0.8086453046489125	33518398.653921314
0.8088474659750746	33601532.08728519
0.8090496778415686	33684686.304007515
0.809251940261029	33767861.309283964
0.8094542532460944	33851057.10831181
0.8096566168094059	33934273.70628931
0.8098590309636085	34029898.11457803
0.8100614957213493	34128445.70890427
0.8102640110952797	34227017.94012911
0.8104665770980536	34325614.81441179
0.8106691937423283	34424236.33791307
0.8108718610407639	34518691.891708225
0.8110745790060241	34609966.708338365
0.8112773476507757	34701264.34367274
0.8114801669876885	34792584.803415924
0.8116830370294355	34883928.09327399
0.8118859577886929	34968627.795935676
0.8120889292781401	35039502.22140449
0.8122919515104597	35110394.36547967
0.8124950244983374	35181304.23259087
0.8126981482544621	35252231.82716884
0.8129013227915257	35325776.822469816
0.8131045481222237	35429106.80950823
0.8133078242592543	35532462.629043415
0.8135111512153191	35635844.287533455
0.813714529003123	35739251.79143813
0.8139179576353739	35842685.1472188
0.8141214371247829	35985518.37929832
0.8143249674840641	36136022.60403207
0.814528548725935	36286564.454821914
0.8147321808631167	36437143.94107466
0.8149358639083326	36587761.07219893
0.8151395978743097	36709993.69857317
0.8153433827737784	36813053.67997067
0.8155472186194719	36916139.42636347
0.8157511054241268	37019250.94419286
0.815955043200483	37122388.23990177
0.8161590319612831	37214621.85708932
0.8163630717192736	37286851.62426389
0.8165671624872033	37359099.44888018
0.8167713042778252	37431365.3354527
0.8169754971038948	37503649.2884969
0.8171797409781707	37528973.79149042
0.8173840359134155	37179268.52578045
0.8175883819223938	36829475.83375445
0.8177927790178745	36479595.69355524
0.8179972272126291	36129628.0833209
0.8182017265194322	35779572.98118435
0.8184062769510622	35693476.230114244
0.8186108785203001	35647990.70538058
0.8188155312399301	35602493.8092658
0.8190202351227402	35556985.538926944
0.819224990181521	35511465.89152052
0.8194297964290664	35905786.64245419
0.8196346538781738	36565325.85270488
0.8198395625416434	37225029.94775788
0.8200445224322789	37884898.968834914
0.820249533562887	38544932.95716702
0.8204545959462778	39016020.15637685
0.8206597095952644	39182854.79446577
0.8208648745226633	39349731.14121435
0.8210700907412941	39516649.20704958
0.8212753582639793	39683609.002401106
0.8214806771035456	39835583.232679
0.8216860472728215	39895008.949128434
0.8218914687846397	39954449.52200697
0.822096941651836	40013904.955028765
0.822302465887249	40073375.25190878
0.8225080415037209	40132860.416363046
0.8227136685140968	40193923.96168475
0.8229193469312254	40255180.26390694
0.8231250767679583	40316451.880204715
0.8233308580371503	40377738.81440652
0.8235366907516598	40439041.07034192
0.8237425749243477	40560887.76449727
0.8239485105680789	40714846.41410025
0.824154497695721	40868843.55336553
0.824360536320145	41022879.19191565
0.8245666264542252	41176953.339375414
0.8247727681108388	41306648.40650457
0.8249789613028664	41401405.300118655
0.8251852060431922	41496185.88295622
0.825391502344703	41590990.160939455
0.8255978502202894	41685818.13999227
0.8258042496828445	41779303.63331845
0.8260107007452654	41866177.48685436
0.8262172034204517	41953073.05885356
0.8264237577213068	42039990.35474579
0.8266303636607373	42126929.37996203
0.8268370212516525	42213890.139934525
0.8270437305069654	42272013.0806377
0.8272504914395923	42327895.365066834
0.8274573040624523	42383791.62006709
0.8276641683884679	42439701.84913104
0.8278710844305652	42495626.05575233
0.8280780522016729	42570372.685314134
0.8282850717147234	42653735.305490665
0.8284921429826521	42737118.76632215
0.8286992660183978	42820523.07301891
0.8289064408349024	42903948.230792284
0.8291136674451112	42982348.51677106
0.8293209458619727	43054405.99254556
0.8295282760984382	43126481.4826889
0.829735658167463	43198574.99170486
0.8299430920820048	43270686.52409798
0.8301505778550254	43343778.21809959
0.8303581154994891	43420728.342471495
0.8305657050283641	43497697.70437457
0.8307733464546212	43574686.308618054
0.8309810397912352	43651694.16001273
0.8311887850511829	43728721.263370104
0.8313965822474458	43841253.44695092
0.8316044313930077	43955460.84835484
0.8318123325008561	44069696.80160921
0.8320202855839813	44183961.31385184
0.8322282906553774	44298254.392222546
0.8324363477280413	44384509.65049448
0.8326444568149735	44459487.04162532
0.8328526179291771	44534483.177103855
0.8330608310836596	44609498.061616376
0.8332690962914304	44684531.69984992
0.8334774135655034	44742818.481600575
0.833685782918895	44782392.0926412
0.8338942043646247	44821975.59708456
0.834102677915716	44861568.99740407
0.834311203585195	44901172.296073616
0.8345197813860912	44949170.86614975
0.8347284113314379	45025407.37741395
0.8349370934342709	45101662.94780591
0.8351458277076294	45177937.582090385
0.8353546141645565	45254231.28503355
0.8355634528180977	45330544.06140242
0.8357723436813022	45376994.54662467
0.8359812867672226	45423087.68569503
0.8361902820889144	45469192.34805013
0.8363993296594368	45515308.53657084
0.8366084294918518	45561436.254138686
0.8368175815992247	45654504.059884556
0.8370267859946247	45763757.80936434
0.8372360426911234	45873038.87228146
0.8374453517017962	45982347.2554643
0.8376547130397217	46091682.96574292
0.8378641267179816	46181145.721249126
0.8380735927496613	46250884.5829568
0.8382831111478488	46320640.87937985
0.8384926819256358	46390414.61487698
0.8387023050961173	46460205.793808036
0.8389119806723914	46527216.42809805
0.8391217086675596	46586369.350059785
0.8393314890947265	46645537.060251966
0.8395413219670003	46704719.56237169
0.8397512072974922	46763916.860116996
0.8399611450993165	46822749.68386758
0.8401711353855914	46862762.63834298
0.8403811781694378	46902785.596056975
0.8405912734639802	46942818.55951042
0.8408014212823464	46982861.53120474
0.8410116216376671	47022914.51364198
0.8412218745430766	47080557.34013971
0.8414321800117124	47143329.62972888
0.8416425380567154	47206117.61239049
0.8418529486912297	47268921.29204777
0.8420634119284025	47331740.672624916
0.8422739277813847	47446239.366504736
0.8424844962633302	47606284.32884995
0.842695117387396	47766369.30243554
0.8429057911667428	47926494.29726454
0.8431165176145345	48086659.32334232
0.8433272967439382	48194923.199709766
0.8435381285681244	48176515.17397807
0.8437490131002665	48158102.546239935
0.8439599503535415	48139685.31534488
0.84417094034113	48121263.48014209
0.8443819830762154	48107472.56829635
0.8445930785719846	48187061.332996905
0.8448042268416277	48266669.994888596
0.8450154278983382	48346298.55894575
0.8452266817553128	48425947.03014392
0.8454379884257517	48505615.41345989
0.8456493479228583	48629271.404065736
0.845860760259839	48763546.25689124
0.846072225449904	48897854.678429954
0.8462837435062666	49032196.67707408
0.8464953144421433	49166572.261217944
0.8467069382707537	49273782.02633896
0.8469186150053215	49359817.48687371
0.847130344659073	49445874.456273615
0.8473421272452377	49531952.93991578
0.8475539627770492	49618052.94317895
0.8477658512677435	49700791.368344285
0.8479777927305605	49776366.90418013
0.8481897871787432	49851961.333899915
0.848401834625538	49927574.66222717
0.8486139350841944	50003206.893886454
0.8488260885679657	50074317.65968046
0.8490382950901076	50090100.65688096
0.8492505546638802	50105887.59983077
0.8494628673025462	50121678.4895163
0.8496752330193721	50137473.32692429
0.8498876518276269	50153272.1130416
0.8501001237405839	49937738.453726806
0.8503126487715191	49675972.10360568
0.850525226933712	49414140.31189717
0.8507378582404455	49152243.06224074
0.8509505427050057	48890280.338271745
0.8511632803406821	48603562.982718945
0.8513760711607672	48299866.40730518
0.8515889151785576	47996093.90774708
0.8518018124073523	47692245.46506436
0.8520147628604541	47388321.060271144
0.8522277665511693	47324771.07733258
0.8524408234928071	47705889.16224146
0.8526539336986805	48087102.52667167
0.8528670971821053	48468411.19444302
0.8530803139564007	48849815.189380854
0.8532935840348901	49236078.59879924
0.8535069074308987	49662673.52460859
0.8537202841577566	50089375.09914975
0.8539337142287962	50516183.349084586
0.8541471976573534	50943098.30108164
0.8543607344567677	51370119.98181678
0.8545743246403821	51481781.27466312
0.8547879682215422	51543370.694865875
0.8550016652135977	51604975.51242367
0.8552154156299011	51666595.73118586
0.8554292194838088	51728231.35500278
0.8556430767886797	51784056.555152945
0.855856987557877	51836358.41993444
0.8560709518047664	51888673.36018209
0.8562849695427177	51941001.37916482
0.8564990407851035	51993342.48015232
0.8567131655452999	52034227.598705724
0.8569273438366862	52056330.4883415
0.8571415756726455	52078438.903699696
0.8573558610665638	52100552.84616174
0.8575702000318304	52122672.31710937
0.8577845925818384	52161859.345599376
0.857999038729984	52307631.881406575
0.8582135384896665	52453440.86034769
0.858428091874289	52599286.291533545
0.8586426988972576	52745168.18407716
0.8588573595719821	52891086.547093965
0.8590720739118751	52934450.01797815
0.8592868419303532	52965728.50046193
0.8595016636408359	52997014.802566335
0.8597165390567462	53028308.926246256
0.8599314681915105	53059610.873457104
0.8601464510585584	52962157.57571217
0.860361487671323	52796333.37570303
0.8605765780432408	52630467.719643936
0.8607917221877518	52464560.597170696
0.8610069201182988	52298611.997916885
0.8612221718483286	51404259.06100794
0.8614374773912907	49459648.9174395
0.8616528367606385	47514552.62133569
0.8618682499698288	45568970.05115663
0.8620837170323213	43622901.085335344
0.8622992379615795	42001366.39516059
0.8625148127710699	41987829.70381165
0.8627304414742627	41974289.62828987
0.8629461240846313	41960746.167749204
0.8631618606156526	41947199.3213434
0.8633776510808066	41933649.088226
0.8635934954935769	43029315.42836632
0.8638093938674504	44216180.4514547
0.8640253462159173	45403342.19079882
0.8642413525524714	46590800.72057774
0.8644574128906095	47778556.11498886
0.8646735272438323	48206632.61916172
0.8648896956256433	48281406.32400452
0.8651059180495498	48356198.72227354
0.8653221945290621	48431009.81864206
0.8655385250776946	48505839.617784776
0.8657549097089641	48824420.69617664
0.8659713484363913	49455112.69034417
0.8661878412735006	50085962.35751054
0.866404388233819	50716969.737093605
0.8666209893308775	51348134.86852128
0.8668376445782103	51829165.0754175
0.8670543539893549	51696894.671962485
0.8672711175778525	51564591.200906515
0.8674879353572469	51432254.65398292
0.8677048073410862	51299885.02292255
0.8679217335429217	51167482.29945433
0.8681387139763074	51303779.7718803
0.8683557486548015	51453461.304189764
0.8685728375919655	51603180.256882496
0.8687899808013633	51752936.63931308
0.8690071782965637	51902730.46083946
0.869224430091138	51855900.93066077
0.8694417361986609	51729038.66212188
0.8696590966327107	51602144.67801587
0.869876511406869	51475218.97041384
0.8700939805347206	51348261.53138497
0.8703115040298544	51278975.85354309
0.870529081905862	51275644.64840773
0.8707467141763385	51272312.61047108
0.8709644008548827	51268979.73952495
0.8711821419550964	51265646.03536109
0.8713999374905854	51264335.75920031
0.871617787474958	51270011.584002376
0.8718356919218269	51275688.82776064
0.8720536508448075	51281367.49082984
0.8722716642575187	51287047.573564805
0.8724897321735832	51292729.07632046
0.8727078546066265	51618181.98067487
0.8729260315702784	51948580.99864008
0.873144263078171	52279062.616359435
0.8733625491439405	52609626.85448325
0.8735808897812266	52940273.73366672
0.8737992850036719	52982808.65597649
0.874017734824923	52923280.41682931
0.8742362392586293	52863737.29562236
0.874454798318444	52804179.28863513
0.8746734120180236	52744606.39214615
0.8748920803710283	52691521.899720006
0.875110803391121	52644959.330266304
0.8753295810919689	52598385.12017021
0.875548413487242	52551799.2665216
0.8757673005906139	52505201.76640957
0.8759862424157616	52633159.78674783
0.8762052389763657	53266268.140779175
0.8764242902861098	53899534.77189859
0.8766433963586814	54532959.71967595
0.8768625572077712	55166543.02369045
0.8770817728470732	55792734.15593545
0.8773010432902849	55829552.56997108
0.8775203685511077	55866380.18861026
0.8777397486432454	55903217.01415406
0.8779591835804065	55940063.04890429
0.8781786733763015	55976918.29516316
0.8783982180446457	55558264.63245217
0.878617817599157	55003998.17908397
0.8788374720535569	54449593.1591027
0.8790571814215703	53895049.53786657
0.8792769457169257	53340367.28072512
0.879496764953355	53123463.93396254
0.8797166391445934	53210316.46145694
0.8799365683043796	53297190.70208323
0.8801565524464557	53384086.66126967
0.8803765915845676	53471004.34444599
0.8805966857324639	53581115.49333344
0.880816834903897	53749454.62496746
0.881037039112623	53917835.84138446
0.8812572983724012	54086259.15310556
0.8814776126969944	54254724.57065465
0.8816979821001687	54425769.87235842
0.8819184065956938	54656597.41656314
0.8821388861973429	54887482.66765415
0.8823594209188923	55118425.640057705
0.882580010774122	55349426.34820426
0.8828006557768155	55580484.80652799
0.8830213559407598	55866653.068551645
0.8832421112797452	56166739.01928856
0.8834629218075651	56466899.99151298
0.8836837875380171	56767136.00398054
0.8839047084849018	57067447.07545127
0.884125684662023	57050960.353423774
0.8843467160831886	56780536.37271888
0.8845678027622095	56510044.7860188
0.8847889447129001	56239485.576422
0.8850101419490785	55968858.72702285
0.8852313944845657	56070083.31316903
0.885452702333187	56985418.48228876
0.8856740655087704	57900982.485200636
0.8858954840251476	58816775.379112996
0.8861169578961539	59732797.22124841
0.886338487135628	60557960.420227006
0.886560071757412	60171189.513019755
0.8867817117753515	59784321.913085714
0.8870034072032955	59397357.59625152
0.8872251580550963	59010296.53833856
0.8874469643446101	58623138.71516089
0.8876688260856963	58502694.30085917
0.8878907432922178	58437439.565370925
0.8881127159780409	58372168.51619884
0.8883347441570356	58306881.149264395
0.8885568278430749	58241577.46048828
0.8887789670500358	57996042.6010315
0.8890011617917983	57622606.69661909
0.8892234120822464	57249077.433230415
0.8894457179352669	56875454.7875262
0.8896680793647509	56501738.736160256
0.8898904963845921	56256510.08282776
0.8901129690086883	56256555.72495527
0.8903354972509405	56256601.37849331
0.8905580811252535	56256647.04344474
0.8907807206455347	56256692.7198124
0.8910034158256963	56269303.6122382
0.8912261666796527	56394212.43723163
0.8914489732213227	56519152.48943135
0.8916718354646282	56644123.77664424
0.8918947534234944	56769126.30667881
0.8921177271118502	56894160.087345816
0.8923407565436284	56972301.023141176
0.8925638417327644	57042806.89699296
0.8927869826931977	57113330.39731322
0.8930101794388711	57183871.52850857
0.8932334319837308	57254430.294986695
0.8934567403417267	57394269.06163118
0.8936801045268123	57577181.19178098
0.8939035245529441	57760139.04996318
0.8941270004340824	57943142.64761001
0.894350532184191	58126191.9961562
0.8945741198172371	58500253.226214804
0.8947977633471915	59191102.501084074
0.8950214627880284	59882124.48827204
0.8952452181537254	60573319.23095638
0.8954690294582639	61264686.77232682
0.8956928967156286	61887792.57383389
0.8959168199398075	62066938.09458078
0.8961407991447926	62246128.4017079
0.8963648343445789	62425363.5064118
0.896588925553165	62604643.41989177
0.8968130727845534	62783968.15335013
0.8970372760527496	62727988.44115463
0.8972615353717629	62642547.79999911
0.8974858507556059	62557085.798683286
0.8977102222182949	62471602.43186716
0.8979346497738496	62386097.694209285
0.8981591334362931	62419870.24782297
0.8983836732196523	62518892.88067203
0.8986082691379572	62617940.26917923
0.8988329212052417	62717012.419533566
0.8990576294355432	62816109.337925576
0.8992823938429022	62875071.40197218
0.8995072144413631	62874335.94235086
0.8997320912449734	62873600.29886463
0.8999570242677847	62872864.47146753
0.9001820135238516	62872128.460113585
0.9004070590272328	62918672.53922495
0.9006321607919896	63213087.58340748
0.9008573188321878	63507576.23135134
0.9010825331618959	63802138.50145705
0.9013078037951865	64096774.41213034
0.9015331307461353	64391483.98178114
0.9017585140288219	64738236.58534519
0.9019839536573292	65089552.132441685
0.9022094496457435	65440955.5084247
0.9024350020081551	65792446.735252105
0.9026606107586572	66144025.834886104
0.902886275911347	66333341.212844335
0.9031119974803249	66444439.139799975
0.9033377754796951	66555564.84123735
0.903563609923565	66666718.32410005
0.903789500826046	66777899.595333524
0.9040154482012526	66768696.81044242
0.904241452063303	66603508.68503637
0.9044675124263188	66438279.26259901
0.9046936293044254	66273008.53280606
0.9049198027117517	66107696.48533059
0.9051460326624297	65981760.75270589
0.9053723191705955	66023643.02941836
0.9055986622503881	66065535.77669996
0.9058250619159507	66107438.997168384
0.9060515181814298	66149352.69344196
0.9062780310609752	66191276.868139565
0.9065046005687405	66388156.90977815
0.906731226718883	66593730.11640773
0.9069579095255627	66799354.7163387
0.907184649002944	67005030.722419664
0.907411445165195	67210758.14750236
0.9076382980264862	67413534.28634225
0.907865207600993	67615114.09595191
0.9080921739028933	67816744.30051394
0.9083191969463691	68018424.91262706
0.9085462767456058	68220155.94489332
0.9087734133147922	68269056.61036177
0.9090006066681211	68141390.28251618
0.909227856819788	68013692.03808881
0.9094551637839932	67885961.86910015
0.9096825275749393	67758199.76756929
0.9099099482068329	67679832.85421543
0.9101374256938848	67777111.22158873
0.9103649600503083	67874413.90855384
0.9105925512903209	67971740.92119065
0.9108201994281437	68069092.26558074
0.9110479044780008	68166467.9478068
0.9112756664541204	68398550.54991294
0.911503485370734	68633774.03308934
0.9117313612420768	68869056.32213654
0.9119592940823873	69104397.43175592
0.912187283905908	69339797.37665278
0.9124153307268845	69428338.77097112
0.9126434345595664	69463579.87178572
0.9128715954182063	69498829.78287546
0.9130998133170609	69534088.50644302
0.9133280882703902	69569356.04469146
0.913556420292458	69588144.33392164
0.9137848093975312	69589932.93440571
0.9140132555998806	69591721.9820399
0.9142417589137806	69593511.476936
0.9144703193535092	69595301.41920581
0.9146989369333476	69590505.11510271
0.9149276116675811	69565841.937829
0.9151563435704979	69541172.59476101
