#wavelength	surface flux
0.8	170719.50595193187
0.8002000000000001	173894.07693656688
0.8004000500000003	177362.39967665047
0.8006001500125003	180834.54866280223
0.8008003000500035	184307.5656862008
0.8010005001250161	187781.45096385683
0.8012007502500472	191256.20471282725
0.8014010504376099	194580.12393914902
0.8016014007002193	197854.05820426304
0.8018018010503944	201128.8109529433
0.8020022515006572	204404.38238981224
0.8022027520635323	207680.77271953755
0.8024033027515483	211192.8288630403
0.8026039035772362	214935.90364978288
0.8028045545531306	218679.9142052223
0.8030052556917691	222424.8607633024
0.803206007005692	226170.7435580187
0.8034068085074435	229927.9402686178
0.8036076602095705	233715.16577945396
0.8038085621246229	237503.33809666484
0.8040095142651542	241292.45745695737
0.8042105166437206	245082.5240970887
0.8044115692728815	248876.64489949556
0.8046126721651998	252805.33653360253
0.8048138253332411	256735.01034061486
0.8050150287895745	260665.66656608257
0.805216282546772	264597.3054556056
0.8054175866174087	268529.927254849
0.8056189410140631	272452.7741857084
0.8058203457493168	276373.55660981085
0.8060218008357541	280295.3192295143
0.8062233062859632	284218.06228987465
0.8064248621125346	288141.7860359974
0.806626468328063	292300.75139608193
0.8068281249451449	296661.95808471675
0.8070298319763813	301024.25507502904
0.8072315894343755	305387.6426395857
0.8074333973317341	309752.1210510351
0.8076352556810671	313876.21290776733
0.8078371644949874	317420.0587030687
0.8080391237861113	320964.7904598197
0.8082411335670578	324510.4083995077
0.8084431938504498	328056.91274368437
0.8086453046489125	331569.2769903993
0.8088474659750746	334430.38448915054
0.8090496778415686	337292.2072647803
0.809251940261029	340154.7454961019
0.8094542532460944	343017.9993619838
0.8096566168094059	345881.9690413289
0.8098590309636085	349359.2042851788
0.8100614957213493	352980.68106682255
0.8102640110952797	356603.0632176623
0.8104665770980536	360226.3509640411
0.8106691937423283	363850.54453235783
0.8108718610407639	367560.75268548075
0.8110745790060241	371336.96642140124
0.8112773476507757	375114.124210759
0.8114801669876885	378892.2262895631
0.8116830370294355	382671.27289388474
0.8118859577886929	386100.5762374412
0.8120889292781401	388802.3425494398
0.8122919515104597	391504.78430301626
0.8124950244983374	394207.9016670312
0.8126981482544621	396911.6948103868
0.8129013227915257	399783.6757324442
0.8131045481222237	404574.41071798967
0.8133078242592543	409366.343387282
0.8135111512153191	414159.4740397404
0.813714529003123	418953.80297486245
0.8139179576353739	423749.33049221913
0.8141214371247829	431324.6566846799
0.8143249674840641	439440.69394413836
0.814528548725935	447558.7602129068
0.8147321808631167	455678.85599825345
0.8149358639083326	463800.9818075439
0.8151395978743097	470808.6666754122
0.8153433827737784	477063.7684943297
0.8155472186194719	483320.4340886997
0.8157511054241268	489578.66384946706
0.815955043200483	495838.4581676789
0.8161590319612831	503494.68506422325
0.8163630717192736	513708.7509216607
0.8165671624872033	523925.3702955512
0.8167713042778252	534144.5438242952
0.8169754971038948	544366.2721464265
0.8171797409781707	553323.2712859386
0.8173840359134155	552165.3841063598
0.8175883819223938	551007.2074549873
0.8177927790178745	549848.7412594515
0.8179972272126291	548689.9854473664
0.8182017265194322	547530.9399463295
0.8184062769510622	555837.5228252041
0.8186108785203001	565602.8470491278
0.8188155312399301	575370.6126040942
0.8190202351227402	585140.8201004603
0.819224990181521	594913.4701486942
0.8194297964290664	604922.837617903
0.8196346538781738	615075.9158227072
0.8198395625416434	625231.5322970586
0.8200445224322789	635389.687675533
0.820249533562887	645550.3825928489
0.8204545959462778	654953.4080009157
0.8206597095952644	663135.2472035405
0.8208648745226633	671319.1318659723
0.8210700907412941	679505.0624995684
0.8212753582639793	687693.0396158147
0.8214806771035456	695100.0669676382
0.8216860472728215	697684.7320822165
0.8218914687846397	700270.0433630736
0.822096941651836	702856.0009717523
0.822302465887249	705442.6050698316
0.8225080415037209	708029.8558189368
0.8227136685140968	710596.9418988475
0.8229193469312254	713162.3072121289
0.8231250767679583	715728.3138667394
0.8233308580371503	718294.9620230122
0.8235366907516598	720862.251841326
0.8237425749243477	732391.7605950423
0.8239485105680789	748673.9451350868
0.824154497695721	764960.2002212558
0.824360536320145	781250.5268711996
0.8245666264542252	797544.9261028051
0.8247727681108388	810413.7336501569
0.8249789613028664	818373.8322058539
0.8251852060431922	826335.9207861967
0.825391502344703	834299.999888681
0.8255978502202894	842266.0700109482
0.8258042496828445	850659.0330733537
0.8260107007452654	861117.6580586928
0.8262172034204517	871578.8977002675
0.8264237577213068	882042.7526517555
0.8266303636607373	892509.2235669858
0.8268370212516525	902978.3110999399
0.8270437305069654	907845.376468486
0.8272504914395923	912275.6924568034
0.8274573040624523	916707.1160241188
0.8276641683884679	921139.6474473223
0.8278710844305652	925573.2870033868
0.8280780522016729	933616.9986554292
0.8282850717147234	943312.3718530938
0.8284921429826521	953010.168894048
0.8286992660183978	962710.3903842699
0.8289064408349024	972413.0369298577
0.8291136674451112	981001.8863116034
0.8293209458619727	988185.3818559694
0.8295282760984382	995370.673274212
0.829735658167463	1002557.7610153176
0.8299430920820048	1009746.6455283492
0.8301505778550254	1017047.5257953692
0.8303581154994891	1024790.0658973606
0.8305657050283641	1032534.5416343852
0.8307733464546212	1040280.9534903382
0.8309810397912352	1048029.3019492676
0.8311887850511829	1055779.5874952967
0.8313965822474458	1071687.0449638863
0.8316044313930077	1087977.006862212
0.8318123325008561	1104271.0412510277
0.8320202855839813	1120569.1491484325
0.8322282906553774	1136871.3315728132
0.8324363477280413	1147555.038961562
0.8326444568149735	1155977.7982487495
0.8328526179291771	1164402.6632257488
0.8330608310836596	1172829.6344190051
0.8332690962914304	1181258.7123550486
0.8334774135655034	1186679.6749900621
0.833685782918895	1188739.4754009582
0.8338942043646247	1190799.7907619558
0.834102677915716	1192860.6212017948
0.834311203585195	1194921.9668492426
0.8345197813860912	1199250.2454972803
0.8347284113314379	1211208.5800190202
0.8349370934342709	1223169.9041243838
0.8351458277076294	1235134.2185607594
0.8353546141645565	1247101.524075764
0.8355634528180977	1259071.8214171424
0.8357723436813022	1265471.933257772
0.8359812867672226	1271804.8305776701
0.8361902820889144	1278139.3111218952
0.8363993296594368	1284475.3752862583
0.8366084294918518	1290813.0234666644
0.8368175815992247	1305255.1674237682
0.8370267859946247	1322491.647817101
0.8372360426911234	1339732.4373305268
0.8374453517017962	1356977.537041329
0.8376547130397217	1374226.948027057
0.8378641267179816	1388681.4626688182
0.8380735927496613	1400362.0482554159
0.8382831111478488	1412045.5539884032
0.8384926819256358	1423731.9805978176
0.8387023050961173	1435421.3288138944
0.8389119806723914	1446389.5953258127
0.8391217086675596	1455323.0199566614
0.8393314890947265	1464258.6779436609
0.8395413219670003	1473196.569845158
0.8397512072974922	1482136.6962196366
0.8399611450993165	1491086.4853853132
0.8401711353855914	1500407.3718861858
0.8403811781694378	1509730.5886086812
0.8405912734639802	1519056.1361353598
0.8408014212823464	1528384.0150489241
0.8410116216376671	1537714.2259322158
0.8412218745430766	1546610.8202179156
0.8414321800117124	1555382.794272137
0.8416425380567154	1564156.9613198766
0.8418529486912297	1572933.3219093801
0.8420634119284025	1581711.8765890237
0.8422739277813847	1603349.51748347
0.8424844962633302	1636319.9881620891
0.842695117387396	1669298.7014583359
0.8429057911667428	1702285.659432908
0.8431165176145345	1735280.8641469898
0.8433272967439382	1758150.8324921683
0.8435381285681244	1756308.1379826388
0.8437490131002665	1754464.9827994825
0.8439599503535415	1752621.3668275313
0.84417094034113	1750777.289951586
0.8443819830762154	1749756.5201734556
0.8445930785719846	1765330.3743422478
0.8448042268416277	1780908.1219745735
0.8450154278983382	1796489.7640438052
0.8452266817553128	1812075.3015235532
0.8454379884257517	1827664.735387673
0.8456493479228583	1851569.8100228142
0.845860760259839	1877482.428634592
0.846072225449904	1903401.5254010225
0.8462837435062666	1929327.10194165
0.8464953144421433	1955259.1598764278
0.8467069382707537	1975452.2167736266
0.8469186150053215	1991171.8935705766
0.847130344659073	2006895.50028673
0.8473421272452377	2022623.0379045473
0.8475539627770492	2038354.5074067847
0.8477658512677435	2052914.3239884814
0.8479777927305605	2064981.5789073
0.8481897871787432	2077051.850639845
0.848401834625538	2089125.13994033
0.8486139350841944	2101201.4475631327
0.8488260885679657	2111694.1241048845
0.8490382950901076	2102848.72165349
0.8492505546638802	2094001.1078514778
0.8494628673025462	2085151.2821460185
0.8496752330193721	2076299.2439841197
0.8498876518276269	2067444.9928126924
0.8501001237405839	1978911.8211092937
0.8503126487715191	1874451.646052752
0.850525226933712	1769965.3559525039
0.8507378582404455	1665452.9442797317
0.8509505427050057	1560914.4045039807
0.8511632803406821	1479565.5716157483
0.8513760711607672	1414095.0017521738
0.8515889151785576	1348608.0642460315
0.8518018124073523	1283104.7550055673
0.8520147628604541	1217585.0699378317
0.8522277665511693	1199688.436248382
0.8524408234928071	1269890.6980774405
0.8526539336986805	1340110.5104719752
0.8528670971821053	1410347.8778196129
0.8530803139564007	1480602.8045090048
0.8532935840348901	1560636.2570434941
0.8535069074308987	1723126.0308486763
0.8537202841577566	1885656.4270974463
0.8539337142287962	2048227.4559452967
0.8541471976573534	2210839.1275502574
0.8543607344567677	2373491.4520731494
0.8545743246403821	2436299.733517845
0.8547879682215422	2483260.884069628
0.8550016652135977	2530233.7749090423
0.8552154156299011	2577218.408971169
0.8554292194838088	2624214.7891918453
0.8556430767886797	2659160.4834366143
0.855856987557877	2686790.922117686
0.8560709518047664	2714428.26840841
0.8562849695427177	2742072.524035717
0.8564990407851035	2769723.690726939
0.8567131655452999	2795073.075129141
0.8569273438366862	2816645.92293999
0.8571415756726455	2838224.163962796
0.8573558610665638	2859807.799545865
0.8575702000318304	2881396.831037807
0.8577845925818384	2903318.603229792
0.857999038729984	2927290.563598913
0.8582135384896665	2951268.5169581207
0.858428091874289	2975252.4648056696
0.8586426988972576	2999242.408640174
0.8588573595719821	3023238.3499606457
0.8590720739118751	3043147.593438988
0.8592868419303532	3062579.2730433126
0.8595016636408359	3082015.8105675383
0.8597165390567462	3101457.207226138
0.8599314681915105	3120903.464233908
0.8601464510585584	3130808.082540228
0.860361487671323	3135647.9613009626
0.8605765780432408	3140489.050031386
0.8607917221877518	3145331.349033996
0.8610069201182988	3150174.858611355
0.8612221718483286	3144000.1244083657
0.8614374773912907	3121937.8113687085
0.8616528367606385	3099869.982750797
0.8618682499698288	3077796.6371757174
0.8620837170323213	3055717.773264248
0.8622992379615795	3040690.8313577897
0.8625148127710699	3060584.707955994
0.8627304414742627	3080483.5580233494
0.8629461240846313	3100387.382803225
0.8631618606156526	3120296.1835392974
0.8633776510808066	3140209.9614755497
0.8635934954935769	3172496.651537751
0.8638093938674504	3205805.2351654195
0.8640253462159173	3239122.145938994
0.8642413525524714	3272447.3859402607
0.8644574128906095	3305780.9572515213
0.8646735272438323	3336686.437433396
0.8648896956256433	3366466.6390723567
0.8651059180495498	3396254.285761729
0.8653221945290621	3426049.379362745
0.8655385250776946	3455851.921737203
0.8657549097089641	3486511.3824103847
0.8659713484363913	3518266.0132921003
0.8661878412735006	3550028.5828315513
0.866404388233819	3581799.0930133825
0.8666209893308775	3613577.5458227447
0.8668376445782103	3642872.4060181202
0.8670543539893549	3662005.3616992077
0.8672711175778525	3681143.100619229
0.8674879353572469	3700285.6239739587
0.8677048073410862	3719432.932959534
0.8679217335429217	3738585.028772368
0.8681387139763074	3767145.2739174697
0.8683557486548015	3796179.7941564866
0.8685728375919655	3825221.5730255987
0.8687899808013633	3854270.612339365
0.8690071782965637	3883326.913912997
0.869224430091138	3906748.3768120483
0.8694417361986609	3927879.930600281
0.8696590966327107	3949016.7672769553
0.869876511406869	3970158.8881628006
0.8700939805347206	3991306.294578857
0.8703115040298544	4014151.0457327683
0.870529081905862	4038936.019732579
0.8707467141763385	4063727.189975882
0.8709644008548827	4088524.558011744
0.8711821419550964	4113328.1253896006
0.8713999374905854	4137760.0682371976
0.871617787474958	4160894.112447937
0.8718356919218269	4184033.9401697502
0.8720536508448075	4207179.552848496
0.8722716642575187	4230330.951930397
0.8724897321735832	4253488.138862079
0.8727078546066265	4279300.231817568
0.8729260315702784	4305159.079551885
0.873144263078171	4331024.3919981085
0.8733625491439405	4356896.170772445
0.8735808897812266	4382774.417491487
0.8737992850036719	4402637.433291565
0.874017734824923	4420372.627548816
0.8742362392586293	4438112.255604624
0.874454798318444	4455856.3185674455
0.8746734120180236	4473604.817546006
0.8748920803710283	4494529.404183763
0.875110803391121	4518646.428539076
0.8753295810919689	4542769.48215049
0.875548413487242	4566898.5665253075
0.8757673005906139	4591033.68317122
0.8759862424157616	4620408.323669905
0.8762052389763657	4664933.658339344
0.8764242902861098	4709470.124342418
0.8766433963586814	4754017.724462006
0.8768625572077712	4798576.461481637
0.8770817728470732	4842865.977913134
0.8773010432902849	4865276.74407083
0.8775203685511077	4887693.112920096
0.8777397486432454	4910115.085861548
0.8779591835804065	4932542.664296262
0.8781786733763015	4954975.849625555
0.8783982180446457	4965452.1724018855
0.878617817599157	4972372.502776956
0.8788374720535569	4979294.563234618
0.8790571814215703	4986218.354207392
0.8792769457169257	4993143.87612791
0.879496764953355	5007395.054025849
0.8797166391445934	5028234.48397492
0.8799365683043796	5049079.123781478
0.8801565524464557	5069928.974747988
0.8803765915845676	5090784.038177259
0.8805966857324639	5110554.747922516
0.880816834903897	5127593.733550094
0.881037039112623	5144636.978924085
0.8812572983724012	5161684.485109419
0.8814776126969944	5178736.253171306
0.8816979821001687	5195143.590809249
0.8819184065956938	5196284.679259657
0.8821388861973429	5197426.052982179
0.8823594209188923	5198567.712048131
0.882580010774122	5199709.656528848
0.8828006557768155	5200851.886495686
0.8830213559407598	5225406.3485270785
0.8832421112797452	5255855.291368551
0.8834629218075651	5286311.846445714
0.8836837875380171	5316776.015661656
0.8839047084849018	5347247.800919906
0.884125684662023	5378401.347893036
0.8843467160831886	5410102.923385367
0.8845678027622095	5441812.4242715705
0.8847889447129001	5473529.852533001
0.8850101419490785	5505255.210151492
0.8852313944845657	5544010.189418377
0.885452702333187	5598144.476301536
0.8856740655087704	5652292.296756407
0.8858954840251476	5706453.654166378
0.8861169578961539	5760628.551915676
0.886338487135628	5807265.653645245
0.886560071757412	5753425.6645926135
0.8867817117753515	5699572.21554272
0.8870034072032955	5645705.303130539
0.8872251580550963	5591824.923990319
0.8874469643446101	5537931.07475528
0.8876688260856963	5551802.744372646
0.8878907432922178	5579705.6130054565
0.8881127159780409	5607615.457355407
0.8883347441570356	5635532.279166479
0.8885568278430749	5663456.080182974
0.8887789670500358	5676121.727436057
0.8890011617917983	5677961.856853493
0.8892234120822464	5679802.446303283
0.8894457179352669	5681643.495900434
0.8896680793647509	5683485.005759987
0.8898904963845921	5673360.439458074
0.8901129690086883	5640400.875304411
0.8903354972509405	5607433.071259718
0.8905580811252535	5574457.025263988
0.8907807206455347	5541472.735256804
0.8910034158256963	5501999.286351379
0.8912261666796527	5404596.285333331
0.8914489732213227	5307168.933565001
0.8916718354646282	5209717.224958633
0.8918947534234944	5112241.153425207
0.8921177271118502	5014740.71287396
0.8923407565436284	4728595.182338217
0.8925638417327644	4411608.947985379
0.8927869826931977	4094543.4670738475
0.8930101794388711	3777398.7197921085
0.8932334319837308	3460174.6863236
0.8934567403417267	3261843.3612044374
0.8936801045268123	3137389.555381544
0.8939035245529441	3012904.636107279
0.8941270004340824	2888388.595603147
0.894350532184191	2763841.426088921
0.8945741198172371	2793690.774169009
0.8947977633471915	3079647.4286812698
0.8950214627880284	3365675.5723571465
0.8952452181537254	3651775.2230687723
0.8954690294582639	3937946.398693248
0.8956928967156286	4224118.129384922
0.8959168199398075	4509900.7179505825
0.8961407991447926	4795754.752163457
0.8963648343445789	5081680.249884876
0.896588925553165	5367677.228980566
0.8968130727845534	5653745.7073210655
0.8970372760527496	5743424.631479467
0.8972615353717629	5808544.738986002
0.8974858507556059	5873681.126519421
0.8977102222182949	5938833.798149706
0.8979346497738496	6004002.757947934
0.8981591334362931	6168319.471890759
0.8983836732196523	6386889.930595707
0.8986082691379572	6605515.031915188
0.8988329212052417	6824194.78951
0.8990576294355432	7042929.217044398
0.8992823938429022	7187125.77586047
0.8995072144413631	7220448.737770142
0.8997320912449734	7253780.03042028
0.8999570242677847	7287119.655893572
0.9001820135238516	7320467.6162732355
0.9004070590272328	7351497.321527766
0.9006321607919896	7370337.994592772
0.9008573188321878	7389183.377826063
0.9010825331618959	7408033.472405153
0.9013078037951865	7426888.279507892
0.9015331307461353	7445747.800312396
0.9017585140288219	7631396.14434319
0.9019839536573292	7831456.448015755
0.9022094496457435	8031566.766764094
0.9024350020081551	8231727.113092348
0.9026606107586572	8431937.499507118
0.902886275911347	8555634.902216462
0.9031119974803249	8642454.516498616
0.9033377754796951	8729295.83568434
0.903563609923565	8816158.865199825
0.903789500826046	8903043.610472744
0.9040154482012526	8952167.391182786
0.904241452063303	8952359.282433912
0.9044675124263188	8952551.221657852
0.9046936293044254	8952743.208866598
0.9049198027117517	8952935.244072145
0.9051460326624297	8961574.064704774
0.9053723191705955	9006183.217984516
0.9055986622503881	9050803.523552535
0.9058250619159507	9095434.98419695
0.9060515181814298	9140077.602706552
0.9062780310609752	9184731.38187075
0.9065046005687405	9083412.343209678
0.906731226718883	8973923.960078023
0.9069579095255627	8864408.204850728
0.907184649002944	8754865.070684617
0.907411445165195	8645294.550734855
0.9076382980264862	8784877.684213776
0.907865207600993	9027980.140399255
0.9080921739028933	9271143.372198708
0.9083191969463691	9514367.394806072
0.9085462767456058	9757652.223419206
0.9087734133147922	9866973.63583747
0.9090006066681211	9821522.72314776
0.909227856819788	9776060.447729938
0.9094551637839932	9730586.806743197
0.9096825275749393	9685101.797346227
0.9099099482068329	9629545.708217246
0.9101374256938848	9538223.351697495
0.9103649600503083	9446878.164588656
0.9105925512903209	9355510.141183058
0.9108201994281437	9264119.275771512
0.9110479044780008	9172705.562643718
0.9112756664541204	9416978.219162641
0.911503485370734	9668996.268777823
0.9117313612420768	9921077.322905412
0.9119592940823873	10173221.397296455
0.912187283905908	10425428.507706175
0.9124153307268845	10408886.701057367
0.9126434345595664	10294777.726750797
0.9128715954182063	10180640.22520076
0.9130998133170609	10066474.189275276
0.9133280882703902	9952279.611840816
0.913556420292458	9937011.354815576
0.9137848093975312	10023792.898289014
0.9140132555998806	10110596.137148308
0.9142417589137806	10197421.07681732
0.9144703193535092	10284267.722721308
0.9146989369333476	10356622.331046827
