#wavelength	surface flux
0.7	1257393.9557821325
0.7001166666666666	1258980.4303865219
0.7002333527777778	1259992.3083784038
0.700350058336574	1261004.3550166173
0.7004667833462966	1262016.5703292694
0.7005835278101878	1263028.954344476
0.7007002917314895	1264041.5070903506
0.7008170751134447	1265054.2285950158
0.7009338779592968	1266067.1188865982
0.7010507002722901	1266976.9411311809
0.7011675420556689	1267761.282615177
0.701284403312678	1268545.7548227527
0.7014012840465635	1269330.3577756975
0.7015181842605713	1270115.0914958008
0.701635103957948	1270899.9560048569
0.701752043141941	1271684.9513246643
0.701869001815798	1272470.0774770263
0.7019859799827672	1273353.0555245094
0.7021029776460976	1274304.189076922
0.7022199948090387	1275255.4811515943
0.7023370314748403	1276206.9317749455
0.7024540876467528	1277158.5409734002
0.702571163328027	1278110.3087733865
0.7026882585219152	1279062.235201342
0.7028053732316688	1280014.320283701
0.7029225074605406	1281309.4703831547
0.7030396612117841	1282737.2482034718
0.7031568344886527	1284165.2639867594
0.7032740272944008	1285593.5177726764
0.7033912396322832	1287022.0096008917
0.7035084715055552	1288450.7395110773
0.7036257229174727	1289879.707542915
0.7037429938712924	1291308.9137360926
0.7038602843702709	1292188.978419869
0.7039775944176659	1292976.0109619324
0.7040949240167356	1293763.1746760863
0.7042122731707383	1294550.4695841924
0.7043296418829335	1295337.895708117
0.7044470301565806	1296125.4530697286
0.70456443799494	1296913.1416908999
0.7046818654012724	1297700.9615935085
0.7047993123788394	1298388.0449518303
0.7049167789309024	1299075.1270737124
0.7050342650607243	1299762.3237092826
0.7051517707715678	1300449.634877625
0.7052692960666963	1301137.0605978284
0.705386840949374	1301824.600888985
0.7055044054228656	1302512.255770191
0.7056219894904361	1303110.2722598691
0.7057395931553511	1303138.017654312
0.705857216420877	1303165.7676729877
0.7059748592902804	1303193.5223166663
0.7060925217668288	1303221.281586119
0.70621020385379	1303249.0454821165
0.7063279055544321	1303276.81400543
0.7064456268720246	1303304.5871568308
0.7065633678098366	1303441.4677892432
0.7066811283711383	1303878.8424905958
0.7067989085592001	1304316.290087732
0.7069167083772933	1304753.8105928008
0.7070345278286895	1305191.404017954
0.707152366916661	1305629.0703753447
0.7072702256444803	1306066.809677128
0.7073881040154211	1306504.621935462
0.7075060020327569	1306774.0345524952
0.7076239196997625	1306798.1374300048
0.7077418570197124	1306822.2443246604
0.7078598139958823	1306846.3552371317
0.7079777906315483	1306870.4701680886
0.7080957869299869	1306894.5891182006
0.7082138028944751	1306918.7120881374
0.7083318385282908	1306942.8390785696
0.7084498938347124	1306594.538649094
0.708567968817018	1305930.4251838622
0.7086860634784875	1305266.2010330518
0.7088041778224007	1304601.866178216
0.7089223118520377	1303937.420600905
0.7090404655706796	1303272.864282665
0.709158638981608	1302608.1972050378
0.709276832088105	1301943.4193495645
0.7093950448934531	1301630.4213191778
0.7095132774009353	1301485.1915560002
0.7096315296138355	1301339.937587862
0.7097498015354378	1301194.659410729
0.7098680931690269	1301049.3570205667
0.7099864045178884	1300904.0304133391
0.7101047355853081	1300758.6795850105
0.7102230863745722	1300613.304531544
0.7103414568889679	1299866.9278710561
0.7104598471317828	1298983.8705951779
0.7105782571063047	1298100.6661430877
0.7106966868158224	1297217.3144902554
0.710815136263625	1296333.815612148
0.7109336054530023	1295450.169484227
0.7110520943872445	1294566.3760819517
0.7111706030696424	1293682.4353807752
0.7112891315034873	1292565.4002597458
0.7114076796920712	1291437.0643893466
0.7115262476386865	1290308.540462969
0.7116448353466263	1289179.8284492712
0.711763442819184	1288050.9283169038
0.711882070059654	1286921.8400345133
0.7120007170713306	1285792.563570743
0.7121193838575091	1284666.6401107612
0.7122380704214853	1283577.4629788282
0.7123567767665555	1282488.1043173743
0.7124755028960166	1281398.5640961432
0.7125942488131658	1280308.842284876
0.7127130145213015	1279218.9388533037
0.7128318000237216	1278128.853771163
0.7129506053237256	1277038.5870081736
0.7130694304246129	1275832.4804185894
0.7131882753296837	1274221.7912953936
0.7133071400422386	1272610.83372401
0.7134260245655789	1270999.6076596992
0.7135449289030065	1269388.1130577105
0.7136638530578235	1267776.3498732888
0.7137827970333332	1266164.3180616675
0.7139017608328388	1264552.017578078
0.7140207444596443	1262882.9170759956
0.7141397479170543	1261112.6921588148
0.7142587712083737	1259342.1722041501
0.7143778143369084	1257571.357162825
0.7144968773059646	1255800.2469856595
0.7146159601188489	1254028.8416234648
0.7147350627788687	1252257.141027043
0.7148541852893318	1250485.1451471893
0.7149733276535467	1248432.632465835
0.7150924898748222	1246097.208633158
0.715211671956468	1243761.3955631752
0.7153308739017941	1241425.1931910124
0.715450095714111	1239088.6014517883
0.71556933739673	1236751.6202806076
0.7156885989529628	1234414.2496125654
0.7158078803861218	1232076.4893827417
0.7159271816995193	1228922.555356286
0.7160465028964692	1225289.2812619237
0.7161658439802853	1221655.4016218793
0.7162852049542819	1218020.916335229
0.7164045858217744	1214385.8253010286
0.716523986586078	1210750.128418324
0.7166434072505089	1207113.8255861409
0.716762847818384	1203476.9167034843
0.7168823082930204	1200429.6182925017
0.7170017886777359	1197555.451217258
0.7171212889758488	1194680.8051141708
0.7172408091906781	1191805.6799033985
0.7173603493255433	1188930.0755050902
0.7174799093837642	1186053.991839384
0.7175994893686615	1183177.4288263987
0.7177190892835562	1180300.386386246
0.7178387091317702	1178577.0456477974
0.7179583489166254	1176969.2777108306
0.7180780086414448	1175361.2418125398
0.7181976883095517	1173752.9379082657
0.7183173879242699	1172144.365953341
0.718437107488924	1170535.52590309
0.7185568470068389	1168926.41771283
0.7186766064813399	1167273.4620163948
0.7187963859157535	1164530.6517496465
0.7189161853134061	1161787.3843478542
0.719036004677625	1159043.6597348277
0.7191558440117378	1156299.4778343674
0.7192757033190732	1153554.8385702532
0.7193955826029597	1150809.741866265
0.7195154818667269	1148064.187646157
0.7196354011137046	1145261.1402564337
0.7197553403472235	1142195.0236993434
0.7198752995706147	1139128.396122828
0.7199952787872098	1136061.2574417144
0.720115278000341	1132993.6075708207
0.7202352972133411	1129925.446424948
0.7203553364295432	1126856.7739188892
0.7204753956522815	1123787.5899674082
0.7205954748848902	1120998.8285428174
0.7207155741307044	1118828.9569236822
0.7208356933930594	1116658.7236592812
0.7209558326752915	1114488.1286893354
0.7210759919807375	1112317.1719535585
0.7211961713127342	1110145.8533916618
0.7213163706746197	1107974.1729433346
0.7214365900697322	1105802.130548268
0.7215568295014103	1103133.3458968326
0.721677088972994	1099871.8511888399
0.7217973684878227	1096609.8128984012
0.7219176680492374	1093347.23093491
0.7220379876605789	1090084.1052077604
0.722158327325189	1086820.4356263217
0.7222786870464099	1083556.2220999545
0.7223990668275843	1080291.4645379982
0.7225194666720555	1076440.1365584836
0.7226398865831676	1072172.8351872184
0.7227603265642646	1067904.8225990683
0.722880786618692	1063636.0986754778
0.7230012667497951	1059366.6632979028
0.7231217669609201	1055096.5163477643
0.7232422872554135	1050825.6577064712
0.7233628276366229	1046554.0872553973
0.7234833881078956	1042956.547462137
0.7236039686725803	1039614.5817993719
0.7237245693340255	1036272.059142335
0.7238451900955812	1032928.9793981822
0.7239658309605971	1029585.3424740762
0.7240864919324239	1026241.148277145
0.7242071730144127	1022896.3967145141
0.724327874209915	1019551.0876932965
0.7244485955222832	1014790.540937784
0.7245693369548704	1009795.2953415012
0.7246900985110294	1004799.217204293
0.7248108801941148	999802.3063873821
0.7249316820074803	994804.5627520183
0.7250525039544815	989805.9861593738
0.7251733460384739	984806.5764706298
0.7252942082628137	979808.6402487819
0.7254150906308574	976146.4471447682
0.7255359931459625	972483.6436752368
0.7256569158114868	968820.2297384595
0.7257778586307888	965156.2052326907
0.7258988216072273	961491.5700561721
0.7260198047441617	957826.3241071282
0.7261408080449525	954160.4672837531
0.72626183151296	950470.8243633299
0.7263828751515454	946626.5545270853
0.7265039389640706	942781.6439792021
0.726625022953898	938936.0926128919
0.7267461271243904	935089.9003213522
0.7268672514789111	931243.0669977664
0.7269883960208241	927395.5925352967
0.7271095607534942	923547.4768270806
0.7272307456802866	919616.631642298
0.7273519508045666	915463.391480018
0.7274731761297006	911309.4591110465
0.7275944216590555	907154.8344200136
0.7277156873959987	902999.5172915306
0.7278369733438982	898843.5076101862
0.727958279506122	894686.8052605727
0.7280796058860397	890529.4101272292
0.7282009524870207	885986.772251145
0.7283223193124353	880874.5852267052
0.7284437063656539	875761.546171105
0.7285651136500483	870647.6549423207
0.7286865411689898	865532.911398342
0.7288079889258514	860417.3153970935
0.7289294569240056	855300.8667965234
0.7290509451668262	850183.565454514
0.7291724536576875	845231.6197278108
0.7292939823999636	840416.5703101096
0.7294155313970303	835600.7183841626
0.7295371006522632	830784.0638162292
0.7296586901690385	825966.6064725383
0.7297802999507332	821148.3462192923
0.7299019300007252	816329.2829226581
0.7300235803223919	811509.416448821
0.7301452509191123	807127.5604753656
0.7302669417942654	802947.517241884
0.7303886529512311	798766.7773345289
0.7305103843933897	794585.340637188
0.7306321361241218	790403.2070337343
0.7307539081468093	786220.3764080058
0.7308757004648336	782036.8486438487
0.7309975130815778	777852.6236250593
0.7311193460004248	773687.5235070494
0.7312411992247582	769526.2167149357
0.7313630727579622	765364.216371691
0.7314849666034219	761201.5223617182
0.7316068807645224	757038.1345694129
0.7317288152446498	752874.0528791404
0.7318507700471907	748709.2771752506
0.7319727451755319	744543.8073420784
0.732094740633061	739714.8496049951
0.7322167564231665	734855.2478611838
0.7323387925492371	729994.8361837483
0.7324608490146619	725133.6144377013
0.732582925822831	720271.5824880288
0.7327050229771347	715408.7401997035
0.7328271404809642	710545.0874376586
0.7329492783377112	705682.7304087412
0.7330714365507675	700840.2705572915
0.7331936151235259	695997.0036292009
0.7333158140593796	691152.9294899612
0.7334380333617229	686308.0480050243
0.7335602730339499	681462.3590398376
0.7336825330794556	676615.8624598224
0.7338048135016354	671768.5581303866
0.7339271143038857	667016.0358967303
0.734049435489603	662583.0135549551
0.7341717770621846	658149.2523761224
0.7342941390250283	653714.7522370954
0.7344165213815324	649279.5130147135
0.734538924135096	644843.5345857883
0.7346613472891185	640406.8168271305
0.734783790847	635969.3596155115
0.7349062548121412	631296.1473035997
0.7350287391879431	626206.7565859494
0.7351512439778078	621116.5176365024
0.7352737691851374	616025.4303139033
0.735396314813335	610933.4944767458
0.7355188808658037	605840.7099836239
0.7356414673459482	600747.0766930762
0.7357640742571725	595652.5944636501
0.7358867016028818	590699.5248970035
0.7360093493864824	585886.1261193166
0.7361320176113801	581071.9251085066
0.736254706280982	576256.9217308613
0.7363774153986956	571441.115852647
0.7365001449679286	566624.5073401293
0.7366228949920899	561807.0960595225
0.7367456654745885	556988.8818770355
0.7368684564188344	552301.5968730759
0.7369912678282374	547687.9829262517
0.7371140997062088	543073.6000437678
0.7372369520561599	538458.4480974657
0.7373598248815024	533842.5269591829
0.7374827181856494	529225.8365007028
0.7376056319720137	524608.3765938125
0.7377285662440091	519990.14711027034
0.7378515210050496	515069.31047036947
0.7379744962585505	510056.83998422045
0.738097492007927	505043.534086325
0.7382205082565949	500029.3926374496
0.738343545007971	495014.4154983338
0.7384666022654723	489998.6025296897
0.7385896800325165	484981.95359222515
0.7387127783125219	479964.468546598
0.7388358971089073	475712.331230503
0.7389590364250921	471536.3353794705
0.7390821962644963	467359.6435291263
0.7392053766305403	463182.25556347985
0.7393285775266454	459004.17136650276
0.7394517989562333	454825.3908221555
0.7395750409227259	450645.91381439095
0.7396983034295463	446459.2734101589
0.739821586480118	442128.0760765459
0.7399448900778645	437796.15687671927
0.7400682142262109	433463.5156903462
0.740191558928582	429130.15239711327
0.7403149241884034	424796.06687666825
0.7404383100091014	420461.2590086354
0.7405617163941028	416125.72867262736
0.7406851433468352	411747.4162901824
0.7408085908707264	407175.9622833772
0.7409320589692048	402603.7463675731
0.7410555476456997	398030.7684157793
0.7411790569036406	393457.0283009969
0.7413025867464579	388882.5258961941
0.7414261371775823	384307.2610743225
0.7415497082004452	379731.2337083175
0.7416732998184786	375194.5361701367
0.741796912035115	370743.0888197942
0.7419205448537874	366290.899561561
0.7420441982779297	361837.96827178495
0.742167872310976	357384.29482678976
0.7422915669563612	352929.8791028873
0.7424152822175206	348474.72097636526
0.7425390180978901	344018.82032349164
0.7426627746009065	339804.6956344666
0.7427865517300065	335885.5161480832
0.7429103494886282	331965.6834651146
0.7430341678802096	328045.1974767019
0.7431580069081896	324124.05807395803
0.7432818665760077	320202.2651479748
0.7434057468871037	316279.81858984055
0.7435296478449182	312356.7182906155
0.7436535694528923	308378.4262991813
0.7437775117144678	304362.1384332787
0.7439014746330868	300345.18118607125
0.7440254582121922	296327.55444598576
0.7441494624552276	292309.25810144196
0.7442734873656368	288290.29204084165
0.7443975329468645	284270.6561525613
0.7445215992023557	280250.3503249667
0.7446456861355559	276446.538240465
0.7447697937499119	272722.0895628799
0.7448939220488703	268997.02014384937
0.7450180710358784	265271.32987991895
0.7451422407143843	261545.0186676108
0.7452664310878367	257818.08640343044
0.7453906421596846	254090.5329838767
0.7455148739333779	250362.3583054185
0.7456391264123667	246729.14547980914
0.7457633996001021	243110.6103463134
0.7458876935000356	239491.47212362222
0.7460120081156189	235871.7307112342
0.7461363434503048	232251.3860086091
0.7462606995075466	228630.4379151969
0.7463850762907978	225008.88633044128
0.7465094738035127	221387.81855022564
0.7466338920491467	218050.60412576
0.746758331031155	214712.833498887
0.7468827907529935	211374.50657691347
0.7470072712181189	208035.62326711952
0.7471317724299886	204696.18347677327
0.7472562943920602	201356.18711313102
0.7473808371077922	198015.63408342516
0.7475054005806435	194695.7671128544
0.7476299848140736	191506.19425892681
0.7477545898115426	188316.08980952288
0.7478792155765113	185125.45367604325
0.7480038621124406	181934.28576987726
0.7481285294227926	178742.5860023943
0.7482532175110298	175550.35428494672
0.7483779263806148	172357.59052888403
0.7485026560350116	169237.5509821979
0.7486274064776842	166315.25696063606
0.748752177712097	163392.47589007596
0.7488769697417158	160469.2076893312
0.749001782570006	157545.4522772232
0.7491266162004343	154621.20957254735
0.7492514706364677	151696.47949408606
0.7493763458815739	148771.26196060877
0.7495012419392209	145927.74815433903
0.7496261588128773	143201.92016503276
0.7497510965060128	140475.63787105973
0.7498760550220971	137748.9011967054
0.7500010343646007	135021.71006623824
0.7501260345369949	132294.06440391464
0.750251055542751	129565.96413398374
0.7503760973853414	126837.40918067287
0.7505011600682389	124248.50343347136
0.750626243594917	121776.14980934755
0.7507513479688495	119303.38412629016
0.7508764731935109	116830.20631561807
0.7510016192723765	114356.61630864357
0.7511267862089218	111882.61403667023
0.7512519740066232	109408.199430984
0.7513771826689577	106933.37242286207
0.7515024121994025	104666.70735140171
0.7516276626014359	102496.91361259615
0.751752933878536	100326.75824150458
0.7518782260341824	98156.24117785045
0.7520035390718548	95985.36236135139
0.7521288729950334	93814.12173171737
0.7522542278071992	91642.51922864493
0.7523796035118337	89470.5547918209
0.7525050001124189	87454.29407543923
0.7526304176124378	85471.6381181905
0.7527558560153731	83488.65171828477
0.752881315324709	81505.33482064381
0.7530067955439299	79521.68737018586
0.7531322966765205	77537.70931182214
0.7532578187259665	75553.40059044809
0.7533833616957542	73568.76115095388
0.75350892558937	71792.95224118106
0.7536345104103016	70026.68272550889
0.7537601161620366	68260.118831585
0.7538857428480638	66493.26051034377
0.7540113904718717	64726.10771271792
0.7541370590369503	62958.66038962621
0.7542627485467898	61190.91849197954
0.7543884590048808	59449.289031220695
0.7545141904147151	57970.703498799994
0.7546399427797842	56491.871535459606
0.7547657161035808	55012.7931001251
0.754891510389598	53533.46815171811
0.7550173256413296	52053.89664915246
0.7551431618622698	50574.078551336745
0.7552690190559135	49094.013817171704
0.7553948972257561	47658.91493443668
0.7555207963752938	46375.33830632141
0.755646716508023	45091.547748768855
0.755772657627441	43807.543226122936
0.7558986197370455	42523.324702723046
0.756024602840335	41238.89214290292
0.7561506069408084	39954.2455109895
0.7562766320419653	38669.384771302946
0.7564026781473054	37448.05057710074
0.75652874526033	36338.67943422537
0.7566548333845401	35229.12339615895
0.7567809425234375	34119.38243208658
0.7569070726805247	33009.456511187505
0.7570332238593047	31899.345602635087
0.7571593960632813	30789.049675596852
0.7572855892959586	29678.56869923739
0.7574118035608413	28687.46081888436
0.7575380388614347	27813.155419459705
0.7576642952012449	26938.704302468148
0.7577905725837782	26064.107443625024
0.7579168710125422	25189.364818637197
0.7580431904910444	24314.47640321155
0.7581695310227928	23439.4421730511
0.7582958926112967	22564.26210385119
0.7584222752600652	21795.753906123122
0.7585486789726085	21088.480335736363
0.7586751037524372	20381.08888642094
0.7588015496030628	19673.579538529248
0.7589280165279966	18965.95227241431
0.7590545045307512	18258.207068421685
0.7591810136148396	17550.343906895076
0.7593075437837755	16842.362768173836
0.7594340950410726	16246.865883602497
0.7595606673902461	15683.93978063298
0.7596872608348112	15120.919856645734
0.7598138753782836	14557.806096005113
0.75994051102418	13994.598483070527
0.7600671677760173	13431.297002200889
0.7601938456373134	12867.901637750676
0.7603205446115863	12304.412374073372
0.7604472647023548	11848.079957033677
0.7605740059131385	11402.33219747389
0.7607007682474575	10956.51014662041
0.7608275517088319	10510.613792092778
0.7609543563007835	10064.643121505069
0.7610811820268336	9618.59812247253
0.7612080288905045	9172.478782607675
0.7613348968953197	8730.274296256923
0.7614617860448022	8369.84582308481
0.7615886963424764	8009.357278500012
0.7617156277918667	7648.808652491465
0.7618425803964988	7288.199935044953
0.7619695541598982	6927.531116145629
0.7620965490855914	6566.802185776754
0.7622235651771058	6206.013133919068
0.7623506024379685	5862.995481742356
0.7624776608717082	5598.078207627886
0.7626047404818536	5333.116780634383
0.7627318412719337	5068.111193403503
0.762858963245479	4803.061438574587
0.7629861064060198	4537.967508786507
0.7631132707570876	4272.82939667652
0.7632404563022137	4007.6470948814203
0.7633676630449308	3761.948187523811
0.7634948909887717	3557.77608908578
0.7636221401372697	3353.569961964941
0.7637494104939593	3149.3298004893895
0.7638767020623748	2945.05559898722
0.7640040148460518	2740.747351784568
0.7641313488485262	2536.4050532073893
0.7642587040733344	2332.028697580216
0.7643860805240132	2149.185196146664
0.7645134782041005	1992.0470178105056
0.7646408971171346	1834.8826497778925
0.764768337266654	1677.6920876839981
0.7648957986561985	1520.475327163037
0.7650232812893079	1363.2323638486769
0.7651507851695227	1205.9631933737628
0.7652783103003843	1048.6678113704556
