#wavelength	surface flux
0.7	277245.81373024045
0.7001166666666666	277661.2717851704
0.7002333527777778	277777.40059442486
0.700350058336574	277893.54875848076
0.7004667833462966	278009.71628056385
0.7005835278101878	278125.90316390095
0.7007002917314895	278242.10941171844
0.7008170751134447	278358.3350272439
0.7009338779592968	278474.5800137051
0.7010507002722901	278589.739900229
0.7011675420556689	278703.57490851363
0.701284403312678	278817.42888929957
0.7014012840465635	278931.3018457491
0.7015181842605713	279045.19378102466
0.701635103957948	279159.10469828936
0.701752043141941	279273.0346007069
0.701869001815798	279386.9834914417
0.7019859799827672	279768.93737680785
0.7021029776460976	280337.45808966225
0.7022199948090387	280906.0735559695
0.7023370314748403	281474.7837915209
0.7024540876467528	282043.58881211147
0.702571163328027	282612.48863353784
0.7026882585219152	283181.48327160266
0.7028053732316688	283750.57274210633
0.7029225074605406	284530.1475504928
0.7030396612117841	285391.0937048184
0.7031568344886527	286252.18335017
0.7032740272944008	287113.41651046183
0.7033912396322832	287974.79320961423
0.7035084715055552	288836.3134715489
0.7036257229174727	289697.97732019424
0.7037429938712924	290559.7847794819
0.7038602843702709	290753.88673477166
0.7039775944176659	290834.74893927487
0.7040949240167356	290915.6246208122
0.7042122731707383	290996.51378162974
0.7043296418829335	291077.41642397415
0.7044470301565806	291158.33255009225
0.70456443799494	291239.2621622313
0.7046818654012724	291320.20526263915
0.7047993123788394	292038.45714593236
0.7049167789309024	292757.56006250076
0.7050342650607243	293476.7828295564
0.7051517707715678	294196.1254670729
0.7052692960666963	294915.5879950286
0.705386840949374	295635.1704334053
0.7055044054228656	296354.8728021896
0.7056219894904361	296987.38565350574
0.7057395931553511	297065.1615498763
0.705857216420877	297142.9504088964
0.7059748592902804	297220.7522327262
0.7060925217668288	297298.56702352676
0.70621020385379	297376.3947834591
0.7063279055544321	297454.23551468464
0.7064456268720246	297532.08921936556
0.7065633678098366	297677.45278295316
0.7066811283711383	298008.72822810325
0.7067989085592001	298340.0588858275
0.7069167083772933	298671.44476532785
0.7070345278286895	299002.8858758083
0.707152366916661	299334.3822264739
0.7072702256444803	299665.93382653093
0.7073881040154211	299997.5406851884
0.7075060020327569	300432.23720325914
0.7076239196997625	301017.0600354442
0.7077418570197124	301601.9803381007
0.7078598139958823	302186.9981274743
0.7079777906315483	302772.11341981334
0.7080957869299869	303357.3262313673
0.7082138028944751	303942.6365783896
0.7083318385282908	304528.0444771368
0.7084498938347124	304674.3973747146
0.708567968817018	304448.4521430469
0.7086860634784875	304222.46925384033
0.7088041778224007	303996.44870081876
0.7089223118520377	303770.3904777052
0.7090404655706796	303544.2945782214
0.709158638981608	303318.1609960873
0.709276832088105	303091.98972502287
0.7093950448934531	303312.2177708931
0.7095132774009353	303745.3931487017
0.7096315296138355	304178.6407224068
0.7097498015354378	304611.96050404065
0.7098680931690269	305045.35250563774
0.7099864045178884	305478.8167392356
0.7101047355853081	305912.3532168723
0.7102230863745722	306345.9619505884
0.7103414568889679	306757.63548697846
0.7104598471317828	307164.3770209792
0.7105782571063047	307571.1863452353
0.7106966868158224	307978.06347104546
0.710815136263625	308385.0084097098
0.7109336054530023	308792.0211725309
0.7110520943872445	309199.10177081224
0.7111706030696424	309606.25021586026
0.7112891315034873	309568.747864141
0.7114076796920712	309510.0204542337
0.7115262476386865	309451.2832564247
0.7116448353466263	309392.53626908286
0.711763442819184	309333.77949057636
0.711882070059654	309275.0129192734
0.7120007170713306	309216.2365535419
0.7121193838575091	309161.2288909833
0.7122380704214853	309145.62084029155
0.7123567767665555	309130.010188258
0.7124755028960166	309114.3969344492
0.7125942488131658	309098.7810784314
0.7127130145213015	309083.16261977085
0.7128318000237216	309067.54155803396
0.7129506053237256	309051.91789278673
0.7130694304246129	309034.80464484164
0.7131882753296837	309012.48954313126
0.7133071400422386	308990.17072223726
0.7134260245655789	308967.8481815398
0.7135449289030065	308945.52192041883
0.7136638530578235	308923.1919382544
0.7137827970333332	308900.85823442624
0.7139017608328388	308878.5208083141
0.7140207444596443	308831.4510244865
0.7141397479170543	308740.2599654676
0.7142587712083737	308649.053707939
0.7143778143369084	308557.8322493674
0.7144968773059646	308466.5955872193
0.7146159601188489	308375.3437189609
0.7147350627788687	308284.0766420578
0.7148541852893318	308192.7943539753
0.7149733276535467	307886.8596483551
0.7150924898748222	307364.438594702
0.715211671956468	306841.93047087314
0.7153308739017941	306319.3352623566
0.715450095714111	305796.6529546389
0.71556933739673	305273.8835332031
0.7156885989529628	304751.02698353055
0.7158078803861218	304228.0832910989
0.7159271816995193	303030.63632509194
0.7160465028964692	301437.1496001077
0.7161658439802853	299843.3972940027
0.7162852049542819	298249.3793625136
0.7164045858217744	296655.0957613683
0.716523986586078	295060.54644629016
0.7166434072505089	293465.7313729936
0.716762847818384	291870.6504971843
0.7168823082930204	290746.8503445004
0.7170017886777359	289761.58988595457
0.7171212889758488	288776.16521733295
0.7172408091906781	287790.5763112663
0.7173603493255433	286804.8231403816
0.7174799093837642	285818.90567730233
0.7175994893686615	284832.8238946455
0.7177190892835562	283846.5777650253
0.7178387091317702	284355.55151380907
0.7179583489166254	285014.72105809185
0.7180780086414448	285674.0004639659
0.7181976883095517	286333.38974974083
0.7183173879242699	286992.88893373014
0.718437107488924	287652.4980342503
0.7185568470068389	288312.2170696208
0.7186766064813399	288940.77130533726
0.7187963859157535	288787.49255571136
0.7189161853134061	288634.1882596272
0.719036004677625	288480.858412827
0.7191558440117378	288327.50301105244
0.7192757033190732	288174.122050044
0.7193955826029597	288020.71552554227
0.7195154818667269	287867.2834332863
0.7196354011137046	287691.43597380264
0.7197553403472235	287412.4725870575
0.7198752995706147	287133.46270641463
0.7199952787872098	286854.40632412484
0.720115278000341	286575.303432438
0.7202352972133411	286296.1540236025
0.7203553364295432	286016.958089866
0.7204753956522815	285737.7156234734
0.7205954748848902	285808.16597622796
0.7207155741307044	286649.6726449916
0.7208356933930594	287491.31956486515
0.7209558326752915	288333.1067592256
0.7210759919807375	289175.03425145283
0.7211961713127342	290017.10206492775
0.7213163706746197	290859.31022303953
0.7214365900697322	291701.65874917683
0.7215568295014103	291865.5227597964
0.721677088972994	291219.7002439428
0.7217973684878227	290573.7700910043
0.7219176680492374	289927.73228303954
0.7220379876605789	289281.58680210717
0.722158327325189	288635.3336302611
0.7222786870464099	287988.9727495534
0.7223990668275843	287342.50414203195
0.7225194666720555	286603.3223917911
0.7226398865831676	285798.3856806963
0.7227603265642646	284993.31481348496
0.722880786618692	284188.10976779397
0.7230012667497951	283382.7705212626
0.7231217669609201	282577.2970515234
0.7232422872554135	281771.6893362066
0.7233628276366229	280965.94735293585
0.7234833881078956	280923.17753710685
0.7236039686725803	281170.1226653468
0.7237245693340255	281417.10895110766
0.7238451900955812	281664.13640124997
0.7239658309605971	281911.2050226337
0.7240864919324239	282158.3148221213
0.7242071730144127	282405.4658065755
0.724327874209915	282652.65798285994
0.7244485955222832	280990.43523816904
0.7245693369548704	279012.22301899287
0.7246900985110294	277033.68109778303
0.7248108801941148	275054.8094195811
0.7249316820074803	273075.60792943946
0.7250525039544815	271096.0765723795
0.7251733460384739	269116.2152934264
0.7252942082628137	267139.2658093864
0.7254150906308574	267040.3720862972
0.7255359931459625	266941.46188092086
0.7256569158114868	266842.5351905103
0.7257778586307888	266743.59201231785
0.7258988216072273	266644.6323435958
0.7260198047441617	266545.65618159575
0.7261408080449525	266446.6635235685
0.72626183151296	266350.843270771
0.7263828751515454	266276.19914470275
0.7265039389640706	266201.54257794685
0.726625022953898	266126.8735684298
0.7267461271243904	266052.1921140778
0.7268672514789111	265977.4982128168
0.7269883960208241	265902.7918625723
0.7271095607534942	265828.07306126936
0.7272307456802866	265653.9331852724
0.7273519508045666	265211.2376045616
0.7274731761297006	264768.4682412543
0.7275944216590555	264325.6250830531
0.7277156873959987	263882.7081176587
0.7278369733438982	263439.7173327693
0.727958279506122	262996.6527160836
0.7280796058860397	262553.5142552947
0.7282009524870207	261682.52907214078
0.7283223193124353	260178.67501931038
0.7284437063656539	258674.57032414092
0.7285651136500483	257170.21494485316
0.7286865411689898	255665.6088396719
0.7288079889258514	254160.75196680287
0.7289294569240056	252655.64428445845
0.7290509451668262	251150.2857508319
0.7291724536576875	249917.47361071638
0.7292939823999636	248910.4979198704
0.7294155313970303	247903.35439974058
0.7295371006522632	246896.04302235768
0.7296586901690385	245888.56375974603
0.7297802999507332	244880.91658392438
0.7299019300007252	243873.10146690416
0.7300235803223919	242865.11838070047
0.7301452509191123	242311.56032381504
0.7302669417942654	241967.73626014724
0.7303886529512311	241623.85489246875
0.7305103843933897	241279.9162112289
0.7306321361241218	240935.92020687574
0.7307539081468093	240591.86686985462
0.7308757004648336	240247.75619061137
0.7309975130815778	239903.58815958785
0.7311193460004248	239701.9074261491
0.7312411992247582	239532.4633703056
0.7313630727579622	239362.9910737862
0.7314849666034219	239193.49053188387
0.7316068807645224	239023.96173989133
0.7317288152446498	238854.40469310002
0.7318507700471907	238684.81938680084
0.7319727451755319	238515.20581628403
0.732094740633061	237590.20564309094
0.7322167564231665	236631.04483179373
0.7323387925492371	235671.72416036122
0.7324608490146619	234712.2436021504
0.732582925822831	233752.60313051302
0.7327050229771347	232792.8027187981
0.7328271404809642	231832.84234034692
0.7329492783377112	230883.35269970138
0.7330714365507675	230038.2161490677
0.7331936151235259	229192.93874234246
0.7333158140593796	228347.5204560504
0.7334380333617229	227501.96126670935
0.7335602730339499	226656.26115083633
0.7336825330794556	225810.42008494382
0.7338048135016354	224964.438045542
0.7339271143038857	224255.6117290534
0.734049435489603	224006.70543152236
0.7341717770621846	223757.75764960836
0.7342941390250283	223508.7683763975
0.7344165213815324	223259.7376049745
0.734538924135096	223010.6653284226
0.7346613472891185	222761.55153982493
0.734783790847	222512.3962322624
0.7349062548121412	221856.35811150586
0.7350287391879431	220481.10206004692
0.7351512439778078	219105.61679924326
0.7352737691851374	217729.9022908978
0.735396314813335	216353.95849679972
0.7355188808658037	214977.78537873825
0.7356414673459482	213601.38289848762
0.7357640742571725	212224.75101782454
0.7358867016028818	211033.4582115814
0.7360093493864824	210025.23249781886
0.7361320176113801	209016.83874643873
0.736254706280982	208008.27692943334
0.7363774153986956	206999.5470187905
0.7365001449679286	205990.64898649795
0.7366228949920899	204981.58280453252
0.7367456654745885	203972.3484448701
0.7368684564188344	202981.93040564074
0.7369912678282374	202002.07695083666
0.7371140997062088	201022.06018712305
0.7372369520561599	200041.88008728123
0.7373598248815024	199061.53662409162
0.7374827181856494	198081.02977032316
0.7376056319720137	197100.3594987457
0.7377285662440091	196119.5257821228
0.7378515210050496	194740.78114220055
0.7379744962585505	193242.13660355925
0.738097492007927	191743.24229082855
0.7382205082565949	190244.09816238
0.738343545007971	188744.70417657698
0.7384666022654723	187245.06029177486
0.7385896800325165	185745.1664663275
0.7387127783125219	184245.02265857402
0.7388358971089073	183927.23768266456
0.7389590364250921	183728.01834614328
0.7390821962644963	183528.76580639905
0.7392053766305403	183329.4800578985
0.7393285775266454	183130.1610951064
0.7394517989562333	182930.80891248697
0.7395750409227259	182731.42350450408
0.7396983034295463	182498.34524349312
0.739821586480118	181516.44479208786
0.7399448900778645	180534.3806906093
0.7400682142262109	179552.15291177752
0.740191558928582	178569.76142831697
0.7403149241884034	177587.20621294327
0.7404383100091014	176604.4872383668
0.7405617163941028	175621.60447729516
0.7406851433468352	174582.14197767462
0.7408085908707264	173284.41694606896
0.7409320589692048	171986.47562695865
0.7410555476456997	170688.31798429412
0.7411790569036406	169389.94398202343
0.7413025867464579	168091.3535840853
0.7414261371775823	166792.54675441384
0.7415497082004452	165493.52345693845
0.7416732998184786	164196.3292086967
0.741796912035115	162903.30687559053
0.7419205448537874	161610.06903876248
0.7420441982779297	160316.615662295
0.742167872310976	159022.94671026358
0.7422915669563612	157729.06214674018
0.7424152822175206	156434.96193578988
0.7425390180978901	155140.6460414719
0.7426627746009065	154033.35139788222
0.7427865517300065	153154.1274793838
0.7429103494886282	152274.75702356474
0.7430341678802096	151395.2400060037
0.7431580069081896	150515.57640227315
0.7432818665760077	149635.7661879407
0.7434057468871037	148755.80933857328
0.7435296478449182	147875.70582973145
0.7436535694528923	146857.56784989306
0.7437775117144678	145744.87176069053
0.7439014746330868	144631.99022214147
0.7440254582121922	143518.92320333503
0.7441494624552276	142405.6706733583
0.7442734873656368	141292.23260129354
0.7443975329468645	140178.60895621584
0.7445215992023557	139064.79970719744
0.7446456861355559	137916.99272362536
0.7447697937499119	136756.5389591421
0.7448939220488703	135595.89178569836
0.7450180710358784	134435.05117106007
0.7451422407143843	133274.01708298587
0.7452664310878367	132112.78948922924
0.7453906421596846	130951.36835754155
0.7455148739333779	129789.75365566487
0.7456391264123667	128714.10589651742
0.7457633996001021	127652.05545748047
0.7458876935000356	126589.82801003513
0.7460120081156189	125527.4235246839
0.7461363434503048	124464.84197191795
0.7462606995075466	123402.08332222558
0.7463850762907978	122339.14754609318
0.7465094738035127	121275.97681601605
0.7466338920491467	120197.50926010133
0.746758331031155	119118.86195959289
0.7468827907529935	118040.03488453566
0.7470072712181189	116961.02800496589
0.7471317724299886	115881.84129091597
0.7472562943920602	114802.47471241449
0.7473808371077922	113722.92823948228
0.7475054005806435	112639.06373472954
0.7476299848140736	111529.52946711735
0.7477545898115426	110419.81027712698
0.7478792155765113	109309.90613393798
0.7480038621124406	108199.81700672602
0.7481285294227926	107089.54286465977
0.7482532175110298	105979.08367690201
0.7483779263806148	104868.4394126145
0.7485026560350116	103766.5412059797
0.7486274064776842	102688.63121332422
0.748752177712097	101610.54156900528
0.7488769697417158	100532.27224307663
0.749001782570006	99453.82320559498
0.7491266162004343	98375.1944266074
0.7492514706364677	97296.38587615616
0.7493763458815739	96217.39752427876
0.7495012419392209	95131.83980660525
0.7496261588128773	94036.91544550174
0.7497510965060128	92941.80859700394
0.7498760550220971	91846.51923069847
0.7500010343646007	90751.0473161651
0.7501260345369949	89655.39282297877
0.750251055542751	88559.55572071149
0.7503760973853414	87463.53597892648
0.7505011600682389	86387.16711446238
0.750626243594917	85327.1794136473
0.7507513479688495	84267.01504821703
0.7508764731935109	83206.6739887255
0.7510016192723765	82146.15620572376
0.7511267862089218	81085.4616697592
0.7512519740066232	80024.59035137159
0.7513771826689577	78963.54222109697
0.7515024121994025	77954.74808700125
0.7516276626014359	76970.23202345843
0.751752933878536	75985.55187390673
0.7518782260341824	75000.70761099645
0.7520035390718548	74015.69920737525
0.7521288729950334	73030.52663568729
0.7522542278071992	72045.18986857063
0.7523796035118337	71059.68887865897
0.7525050001124189	70078.65155851831
0.7526304176124378	69098.45720124121
0.7527558560153731	68118.09947823915
0.752881315324709	67137.57836228232
0.7530067955439299	66156.89382613914
0.7531322966765205	65176.045842574575
0.7532578187259665	64195.03438434579
0.7533833616957542	63213.85942420732
0.75350892558937	62257.2322572703
0.7536345104103016	61301.60764947398
0.7537601161620366	60345.82377091019
0.7538857428480638	59389.88059503237
0.7540113904718717	58433.77809529314
0.7541370590369503	57477.51624513751
0.7542627485467898	56521.09501800624
0.7543884590048808	55571.799518346925
0.7545141904147151	54694.99395469
0.7546399427797842	53818.042256773886
0.7547657161035808	52940.94440024131
0.754891510389598	52063.70036073269
0.7550173256413296	51186.31011388381
0.7551431618622698	50308.77363532732
0.7552690190559135	49431.09090069127
0.7553948972257561	48560.816499202025
0.7555207963752938	47715.75504566812
0.755646716508023	46870.552748559116
0.755772657627441	46025.2095844003
0.7558986197370455	45179.72552971399
0.756024602840335	44334.100561018786
0.7561506069408084	43488.33465482881
0.7562766320419653	42642.42778765371
0.7564026781473054	41805.98265368609
0.75652874526033	40986.29633339046
0.7566548333845401	40166.4733987077
0.7567809425234375	39346.51382686944
0.7569070726805247	38526.41759510301
0.7570332238593047	37706.1846806314
0.7571593960632813	36885.81506067326
0.7572855892959586	36065.308712445076
0.7574118035608413	35290.60338315434
0.7575380388614347	34560.71135589295
0.7576642952012449	33830.69767996007
0.7577905725837782	33100.56233508225
0.7579168710125422	32370.30530097899
0.7580431904910444	31639.92655736977
0.7581695310227928	30909.426083970873
0.7582958926112967	30178.803860492157
0.7584222752600652	29482.82646008593
0.7585486789726085	28806.705144540843
0.7586751037524372	28130.471142109574
0.7588015496030628	27454.124434009915
0.7589280165279966	26777.665001460242
0.7590545045307512	26101.09282567181
0.7591810136148396	25424.4078878541
0.7593075437837755	24747.61016921242
0.7594340950410726	24118.275794384634
0.7595606673902461	23502.64010964841
0.7596872608348112	22886.90181896412
0.7598138753782836	22271.060905232058
0.75994051102418	21655.11735134713
0.7600671677760173	21039.071140203705
0.7601938456373134	20422.922254691282
0.7603205446115863	19806.670677698286
0.7604472647023548	19236.66169657579
0.7605740059131385	18671.164431683996
0.7607007682474575	18105.5729172475
0.7608275517088319	17539.887137559854
0.7609543563007835	16974.107076907672
0.7610811820268336	16408.232719579057
0.7612080288905045	15842.26404985864
0.7613348968953197	15277.855046155553
0.7614617860448022	14747.288281748502
0.7615886963424764	14216.633089546662
0.7617156277918667	13685.8894548133
0.7618425803964988	13155.057362807045
0.7619695541598982	12624.136798785596
0.7620965490855914	12093.12774800387
0.7622235651771058	11562.030195713065
0.7623506024379685	11047.187871307127
0.7624776608717082	10603.896154488684
0.7626047404818536	10160.530555717416
0.7627318412719337	9717.091062680449
0.762858963245479	9273.57766306103
0.7629861064060198	8829.990344541635
0.7631132707570876	8386.329094802026
0.7632404563022137	7942.593901521191
0.7633676630449308	7519.483385160176
0.7634948909887717	7140.362867231348
0.7636221401372697	6761.1791625500255
0.7637494104939593	6381.932260584232
0.7638767020623748	6002.622150801992
0.7640040148460518	5623.248822667688
0.7641313488485262	5243.812265645377
0.7642587040733344	4864.312469196464
0.7643860805240132	4510.051757380649
0.7645134782041005	4185.9252721873745
0.7646408971171346	3861.7447659131
0.764768337266654	3537.510229554565
0.7648957986561985	3213.221654106532
0.7650232812893079	2888.8790305626335
0.7651507851695227	2564.4823499148083
