#wavelength	surface flux
0.6450077295303345	5688.487427635026
0.6472567915916443	6384.018379962927
0.6494921445846558	7203.293324890907
0.6517150402069092	8073.52063482159
0.6539263725280762	9016.65538636059
0.6561272740364075	10018.767660698644
0.6583186388015747	11085.053562233079
0.6605015397071838	12266.161846690089
0.6626768708229065	13517.097129285676
0.6648455858230591	14856.955223835725
0.6670085787773132	16203.853733788477
0.6691668033599854	16360.81452030327
0.6713210344314575	15933.322570701235
0.6734722256660461	20634.72957577457
0.6756211519241333	22683.52024895103
0.6777685880661011	24521.80031142872
0.6799154281616211	26389.670033826547
0.6820623278617859	28305.523535213575
0.6842101216316223	30253.197855837712
0.6863595843315125	32209.37853102148
0.688511312007904	34158.28515242424
0.6906660795211792	35876.12987935702
0.6928245425224304	36998.21937998433
0.6949873566627502	39236.46300086459
0.6971551775932312	41525.433962880525
0.6993286609649658	43188.040027740055
0.7015084028244019	44380.89499125406
0.7036949396133423	45963.68761830168
0.7058889269828796	47218.435893408525
0.7080909013748169	48248.82542695241
0.710301399230957	48960.26135176656
0.712520956993103	49393.862646125155
0.7147500514984131	49211.134346186416
0.7169892191886902	47346.18618883899
0.7192389369010925	46539.255450335724
0.7214996814727783	46478.982296202215
0.723771870136261	44876.04155331954
0.7260559797286987	42686.52248072763
0.7283523678779602	40923.43464215064
0.7306615710258484	38264.86979336936
0.7329838871955872	36304.1167084271
0.7353196740150452	33742.353283541925
0.7376693487167358	30574.021149796077
0.7400332689285278	27734.441083239413
0.7424117922782898	24525.186541459112
0.7448052167892456	21464.27437403121
0.7472138404846191	18403.62081880074
0.7496379613876343	15413.9723009773
0.7520779371261597	12562.27816079389
0.7545340061187744	9902.890042209225
0.7570064663887024	7460.147814788287
0.7594954967498779	5252.478937785842
0.7620013952255249	3227.2511985050814
0.7645244002342224	1340.5441109890405
0.7670646905899048	404.39798047872586
0.7696225643157959	465.3330335171263
0.7721980810165405	2329.918301620626
0.7747915983200073	5319.8721907341305
0.7774031162261963	8730.740350181522
0.7800329327583313	10987.975861229967
0.7826811671257019	17953.33897196394
0.7853479981422424	24816.348547718662
0.7880334854125977	32507.475822200457
0.7907378077507019	40987.251522483806
0.7934610247612	32065.04252081237
0.7962033748626709	47189.39063689229
0.7989648580551147	76968.1396941243
0.801745593547821	94403.3634334912
0.8045456409454346	113091.43107911051
0.8073651194572449	133262.43323457878
0.8102040886878967	151371.62676033014
0.8130625486373901	170221.61634600634
0.8159406185150146	202400.39128823843
0.8188382983207703	234295.3247804255
0.8217556476593018	271887.05391980265
0.8246926665306091	309152.53373279684
0.8276493549346924	354375.08508161386
0.8306257724761963	396972.3755847405
0.8336219191551208	448574.90851470747
0.8366377949714661	496776.7301365685
0.8396733403205872	559759.1487273574
0.8427285552024841	629557.7798869179
0.8458034992218018	708152.7908726146
0.8488980531692505	778214.0483677655
0.8520121574401855	621208.2494263008
0.8551458716392517	943100.3224002473
0.8582990765571594	1101916.436613665
0.8614717125892639	1217172.4701744777
0.8646637797355652	1343127.9739751364
0.8678751587867737	1480695.8992866655
0.8711057901382446	1637979.0930626993
0.8743556141853333	1794650.7871615638
0.87762451171875	1961058.3093302408
0.8809124231338501	2103430.8278511334
0.8842192888259888	2234687.8362314
0.8875449895858765	2358832.631012987
0.8908893465995789	2387483.6975652487
0.894252359867096	1674033.3754874943
0.8976338505744934	2609118.6378030847
0.9010337591171265	3220230.743362125
0.9044519662857056	3726957.2365444344
0.9078882932662964	3882357.825706281
0.9113426208496094	4150680.889547561
0.914814829826355	4417901.010846238
0.9183048605918884	4321116.931860716
0.9218124747276306	5034042.305031901
0.925337553024292	4434206.297294557
0.9288799166679382	1623219.4691764703
0.9324395060539246	2217785.172341876
0.9360161423683167	2948736.344036187
0.9396095871925354	4342223.870699959
0.943219780921936	2935882.135211184
0.9468464851379395	2582424.6058455072
0.9504896402359009	2950613.669631347
0.9541489481925964	3966249.168778386
0.9578243494033813	4512930.0164458295
0.9615156054496765	3346820.922065656
0.9652225375175476	3685357.2612351873
0.9689450263977051	4437938.2001169715
0.9726828336715698	7416776.222095805
0.9764357805252075	7462263.0025951
0.9802037477493286	7610953.2906088205
0.983986496925354	8730959.121732999
0.9877838492393494	9818540.22662745
0.9915955662727356	11169691.853671389
0.9954215884208679	12090745.20371842
0.9992615580558777	12780835.38321569
1.0031154155731201	13430368.254893657
1.0069829225540161	14767887.561489886
1.0108637809753418	15915181.26090967
1.0147579908370972	17282324.57514469
1.018665075302124	18064113.84752764
1.022585153579712	18599235.200206857
1.0265177488327026	19013846.51659014
1.0304628610610962	19869295.65713128
1.0344202518463135	21115439.427823428
1.0383895635604858	21962999.908232115
1.0423706769943237	22487826.40375107
1.0463634729385376	22971391.538022477
1.0503677129745483	23350358.817925334
1.0543830394744873	24018606.096825182
1.058409333229065	24697835.078728776
1.0624464750289917	25425113.368767805
1.0664942264556885	25441179.676757798
1.0705522298812866	25040660.008757487
1.0746204853057861	25691656.694602005
1.0786986351013184	25692091.598773684
1.0827864408493042	25920713.091954973
1.086883783340454	24999639.594271824
1.0909905433654785	21271011.548065
1.0951062440872192	16326134.645022348
1.0992310047149658	12967115.7265964
1.10336434841156	6233475.457567838
1.1075061559677124	6207065.4026464075
1.1116561889648438	3172220.814460763
1.115814208984375	2706873.140870232
1.1199802160263062	2637518.5052346224
1.124153733253479	1296680.5581972362
1.1283347606658936	4132198.1070855986
1.1325229406356812	1871410.1483196067
1.1367181539535522	4599738.662391229
1.1409201622009277	6020495.3573657
1.145128846168518	4180098.0986981755
1.1493438482284546	5497842.105675905
1.1535650491714478	1680981.350950321
1.1577922105789185	2780630.8327335464
1.1620250940322876	2814784.7806021287
1.1662636995315552	4240479.050253431
1.170507550239563	4329897.984841583
1.174756646156311	6915058.370244505
1.1790107488632202	9721133.937837645
1.1832695007324219	14102210.448235938
1.1875330209732056	16225060.089761693
1.191800832748413	18620179.598052163
1.1960728168487549	23598926.365135968
1.2003488540649414	24464912.51057708
1.2046287059783936	27794515.5053913
1.2089121341705322	28182946.07632961
1.2131990194320679	29081407.6179833
1.2174891233444214	32079784.928906705
1.2217823266983032	34052453.341983
1.2260783910751343	36033078.68972801
1.230377197265625	37008307.12411464
1.2346785068511963	38561782.14521983
1.238982081413269	40326922.151628815
1.2432878017425537	40548941.73636362
1.2475954294204712	42407566.51374641
1.2519049644470215	41644516.81336653
1.256216049194336	45122601.49700393
1.2605286836624146	46780078.588088445
1.2648425102233887	46832158.21233204
1.2691574096679688	48112031.585103296
1.2734732627868652	48038457.45779815
1.2777899503707886	48509530.16092592
1.2821072340011597	44862405.71149193
1.2864248752593994	43765511.12965229
1.2907428741455078	38330677.21463186
1.2950609922409058	37638803.45298636
1.2993791103363037	36526324.16541582
1.303696870803833	37132548.23119652
1.3080145120620728	36718173.86468545
1.3123314380645752	33712272.16329816
1.3166478872299194	34841629.06967089
1.3209635019302368	32761691.972555783
1.3252781629562378	21272122.725115437
1.3295916318893433	13151940.146723144
1.3339040279388428	3095021.6436213944
1.3382149934768677	609863.0533201823
1.3425244092941284	181436.73413108673
1.3468321561813354	295649.61965902144
1.3511382341384888	39944.79613406787
1.3554422855377197	72994.09892646549
1.3597444295883179	80105.30923123252
1.3640443086624146	80428.2352294474
1.3683418035507202	63263.83088825282
1.3726370334625244	167495.55663234062
1.3769296407699585	156952.5395269897
1.381219506263733	24937.265605381064
1.3855066299438477	15806.981938082328
1.3897908926010132	50711.24253135751
1.3940720558166504	119389.21902537023
1.3983501195907593	115164.26183387509
1.4026249647140503	319617.94372419047
1.4068963527679443	441628.14605270996
1.4111642837524414	104543.38265415267
1.4154287576675415	88410.20655005705
1.419689416885376	119143.32663471495
1.4239463806152344	114084.47725143284
1.4281994104385376	328665.92334658845
1.4324485063552856	219622.79488473095
1.436693549156189	291912.8628079154
1.440934419631958	490959.7246091679
1.4451709985733032	668597.3902487643
1.449403166770935	1089328.1174169262
1.453631043434143	1274196.2161191045
1.4578542709350586	1819967.713692036
1.4620729684829712	2038271.0096139773
1.4662868976593018	2034733.6073014569
1.4704961776733398	1898257.8693762831
1.4747005701065063	2085200.6509766954
1.4788999557495117	1850077.8233012906
1.4830944538116455	2058393.7300236018
1.4872838258743286	1896466.128973511
1.491468071937561	1641861.0153214186
1.4956470727920532	1987300.5778320723
1.4998208284378052	3294653.8495721244
1.5039892196655273	4856168.627936547
1.5081522464752197	4242013.051316261
1.5123097896575928	4535010.246997425
1.5164618492126465	6475381.2493273355
1.5206083059310913	7746677.863510246
1.5247491598129272	9211595.882068597
1.5288842916488647	10522348.855553508
1.5330137014389038	11668294.333742261
1.5371372699737549	12683329.413124535
1.541254997253418	14631000.766572936
1.545366883277893	15614712.968266478
1.5494728088378906	17334689.555299964
1.5535727739334106	18909864.436203793
1.5576666593551636	20202164.21148059
1.561754584312439	22878220.95319403
1.5658363103866577	24470067.79943479
1.5699119567871094	24999053.32176242
1.5739814043045044	24248542.361007612
1.5780447721481323	24520609.913233384
1.582101821899414	25139816.733262837
1.5861525535583496	25858193.406253826
1.5901970863342285	24993753.01490552
1.5942351818084717	23856913.815653075
1.5982669591903687	23616797.35875909
1.6022924184799194	22091515.090008173
1.606311559677124	20285247.952765107
1.6103241443634033	19483265.177452587
1.6143304109573364	18199259.379655156
1.6183301210403442	16046991.815709509
1.6223233938217163	13787182.994004508
1.6263102293014526	12062996.109925076
1.6302905082702637	10650471.957207168
1.634264349937439	11915012.625177154
1.638231635093689	16132407.282097237
1.6421923637390137	15171642.734408021
1.646146535873413	9213742.313137712
1.6500942707061768	9344311.520049918
1.6540353298187256	13487855.885784985
1.6579699516296387	12953538.930184718
1.661897897720337	12360924.790936047
1.6658192873001099	6662367.004425339
1.6697341203689575	4457436.290882264
1.6736423969268799	8553616.70306487
1.677544116973877	7624985.62235422
1.6814392805099487	7488645.585891478
1.6853278875350952	7027037.93188269
1.6892099380493164	5892324.066884202
1.6930854320526123	4645782.676001666
1.696954369544983	3240640.4306466277
1.7008168697357178	3860292.6588994735
1.7046726942062378	3772611.2708860897
1.708522081375122	5107849.953237261
1.712364912033081	5930236.712226655
1.7162011861801147	6976345.883820186
1.7200311422348022	7559242.4713035105
1.723854422569275	6775341.939937656
1.7276713848114014	6154838.027662931
1.731481909751892	5673457.272934898
1.7352858781814575	5404656.443005825
1.7390835285186768	5210175.525914465
1.7428747415542603	4917575.141514475
1.7466596364974976	4561176.258684634
1.7504380941390991	4296681.397657062
1.7542102336883545	3008488.3233284038
1.7579760551452637	2797189.030285179
1.7617355585098267	2846611.299369031
1.7654887437820435	2365979.7503338126
1.7692357301712036	1774184.7246602552
1.7729763984680176	1572784.188943647
1.776710867881775	999752.8942979162
1.7804391384124756	894460.138364819
1.7841613292694092	921613.5973143671
1.7878772020339966	587184.205272094
1.7915871143341064	443756.0888935965
1.7952908277511597	465281.28297736205
1.7989884614944458	577996.7466424461
1.8026801347732544	234539.78091569696
1.806365728378296	131747.62417609573
1.8100452423095703	104725.54986098199
1.8137187957763672	75268.88712307085
1.817386507987976	74199.18023573328
1.8210482597351074	72946.04444588358
1.8247040510177612	69743.11587142153
1.828354001045227	50240.84789784264
1.8319982290267944	58724.11354947057
1.8356364965438843	53771.48294701799
1.8392690420150757	87004.4744267108
1.8428958654403687	298666.073738358
1.8465168476104736	442654.30183488346
1.8501322269439697	249567.1719909152
1.8537418842315674	128386.24536554003
1.8573459386825562	223307.33851637898
1.860944390296936	210964.36936356744
1.864537239074707	127653.04613869579
1.8681244850158691	159886.16280824458
1.871706247329712	97111.30749200568
1.8752825260162354	194223.2573893106
1.8788533210754395	618942.9996786818
1.8824186325073242	699861.5578676461
1.8859784603118896	437461.9743060775
1.8895330429077148	397199.77525504644
1.8930821418762207	809392.7523227566
1.8966259956359863	987599.2586480518
1.9001644849777222	249381.58663377387
1.9036977291107178	126724.3646417563
1.9072256088256836	342901.7677759152
1.9107483625411987	261902.21518939157
1.9142658710479736	94428.83644601548
1.9177782535552979	74148.49611584969
1.9212853908538818	48616.30799812771
1.9247875213623047	61839.12118045636
1.9282845258712769	80202.97198901576
1.9317764043807983	96321.49493089865
1.9352631568908691	129380.86118061551
1.9387450218200684	169332.49463021985
1.942221760749817	210556.67590702177
1.9456936120986938	195806.96007635453
1.9491604566574097	285384.52489746845
1.952622413635254	275808.4059151927
1.956079363822937	149682.52475087356
1.959531545639038	193486.31998581343
1.962978720664978	359391.14065215347
1.966421127319336	569006.7754357837
1.9698586463928223	735949.7569868152
1.9732913970947266	714011.9135567256
1.9767193794250488	598595.0276955953
1.9801424741744995	616080.5008399787
1.9835609197616577	1077386.8162762625
1.9869745969772339	1328370.5645111375
1.990383505821228	1092721.8952414694
1.9937876462936401	977441.7566992539
1.9971871376037598	1246421.8544902839
2.000581979751587	1630489.2828681597
2.003972291946411	1361842.3869017449
2.007357597351074	1445287.4214330981
2.0107386112213135	2240186.141610764
2.0141148567199707	2180007.043707455
2.017486572265625	1961157.316168298
2.0208535194396973	2137700.506249039
2.0242159366607666	2065958.151795928
2.027573823928833	2275972.0576268923
2.0309269428253174	2488216.2722108047
2.034275770187378	2553210.1171301114
2.0376198291778564	2839578.5397548373
2.040959596633911	3096167.794074636
2.044294595718384	3452683.235650061
2.0476250648498535	3995950.2148916023
2.0509510040283203	3971439.893432477
2.054272413253784	3820230.2469738964
2.057589530944824	4049055.658954692
2.0609018802642822	4316957.534771335
2.0642096996307373	4338910.194870925
2.0675129890441895	4367836.62803905
2.0708119869232178	4371410.785877898
2.074106216430664	4326349.31694804
2.0773961544036865	4295805.374799305
2.080681324005127	4283888.874538613
2.0839622020721436	4289971.059056693
2.087238311767578	4325899.073042593
2.090510129928589	4329895.224744446
2.0937774181365967	4287599.913262515
2.0970399379730225	4255551.697332849
2.1002981662750244	4191920.242659916
2.1035518646240234	4114006.6023191623
2.1068007946014404	4035794.6678248914
2.1100454330444336	3993627.074283221
2.1132853031158447	3978755.8570394744
2.116520881652832	3934343.805430173
2.1197516918182373	3879371.78397714
2.1229779720306396	3842104.5999484356
2.12619948387146	3804419.286947402
2.1294167041778564	3756896.0256522074
2.132629156112671	3722268.254324737
2.1358368396759033	3631145.8722793665
2.139039993286133	3537220.71045911
2.1422386169433594	3410422.1534880404
2.145432472229004	3304075.43907613
2.1486217975616455	3247664.6423940635
2.151806354522705	3094480.2572878124
2.1549863815307617	3063533.4692289406
2.1581614017486572	3061232.639374239
2.16133189201355	2951217.321015853
2.1644976139068604	2879194.60366247
2.167658567428589	2797866.642197885
2.1708147525787354	2759619.9340947573
2.173966407775879	2714912.4932403145
2.1771130561828613	2584946.670255837
2.1802549362182617	2400446.84481936
2.183391809463501	2276411.8115715925
2.1865241527557373	2130038.7382453447
2.1896514892578125	1811093.7950672696
2.1927738189697266	1365883.5210983213
2.1958916187286377	1040660.6320573494
2.1990041732788086	833820.0370001331
2.2021119594573975	667371.9208748328
2.2052149772644043	613414.1489445429
2.208312749862671	699530.4977999349
2.2114057540893555	862427.3023962637
2.214493751525879	976489.5977345479
2.217576742172241	962409.8752721987
2.2206547260284424	874447.0106942973
2.2237277030944824	799007.0597959659
2.2267956733703613	724191.473800375
2.2298583984375	675307.4638693387
2.2329163551330566	653052.8473104537
2.235969066619873	621094.1232305475
2.2390167713165283	569256.5689683361
2.2420592308044434	466237.80750494386
2.2450966835021973	329042.2973226859
2.248128890991211	308019.7706684233
2.2511560916900635	391713.4595150856
2.254178285598755	408239.1531546112
2.257194995880127	391863.22855345946
2.260206699371338	395683.94526124105
2.2632133960723877	387106.5091876831
2.266214609146118	396752.9228951069
2.2692108154296875	450553.3526835467
2.2722020149230957	516778.5443070467
2.2751877307891846	539356.4326764639
2.278168201446533	500213.48164663854
2.2811436653137207	441432.724642454
2.284113883972168	399210.452560149
2.287078857421875	372219.3981487557
2.290038824081421	351670.7275329219
2.2929933071136475	349860.95143361896
2.295942783355713	354710.4674989845
2.298887014389038	346575.9301299435
2.301826238632202	366998.1739467203
2.304760217666626	486645.6800238488
2.3076889514923096	692928.7730378481
2.310612440109253	858533.5102021471
2.3135311603546143	806278.8615122691
2.3164443969726562	494306.07724867604
2.319352865219116	275526.1802981607
2.322256088256836	297111.6689845849
2.3251543045043945	322702.4483470178
2.328047275543213	290666.571017896
2.330935478210449	293527.87556221714
2.3338186740875244	299211.5275617634
2.3366971015930176	281770.44509431854
2.3395702838897705	256446.62069089027
2.3424389362335205	230984.9818189537
2.3453025817871094	218196.75108169072
2.348161458969116	236725.9644766721
2.351015567779541	292826.63542655023
2.353865146636963	372560.16649808054
2.3567099571228027	461441.4230907017
2.3595502376556396	560438.8835399501
2.3623859882354736	636731.4096254193
2.3652172088623047	575612.2419442472
2.368043899536133	366170.6259195361
2.370866537094116	212511.21303624398
2.3736846446990967	198683.21192442483
2.3764986991882324	264443.02867424965
2.3793084621429443	332243.26267656055
2.3821144104003906	370252.9941951798
2.384916305541992	397273.29479605984
2.387714147567749	438364.1296425451
2.3905084133148193	476656.3850695467
2.393299102783203	486883.86600346974
2.3960859775543213	487776.4613268164
2.398869514465332	516689.8161219766
2.4016497135162354	527873.3275295519
2.4044265747070312	527463.3507971511
2.407200336456299	568949.3243318641
2.409970998764038	668544.0469107477
2.4127390384674072	764706.7552639962
2.415503978729248	770885.4125966085
2.418266534805298	736898.6387171315
2.4210267066955566	752908.3733373097
2.4237842559814453	783203.0248285064
2.426539897918701	858221.5900163014
2.429293394088745	986695.5606668261
2.4320452213287354	1096538.2920214992
2.4347951412200928	1087251.436505487
2.4375438690185547	1071320.8337888233
2.440291166305542	1212576.0541626904
2.443037271499634	1196353.7954937613
2.445782423019409	1044730.9124861554
2.4485268592834473	921706.6726174533
2.451270818710327	933748.2099585572
2.454014539718628	1048116.9254330996
2.4567582607269287	1152710.0675272704
2.4595019817352295	1160603.0343473293
2.4622461795806885	1152662.0530660762
2.4649908542633057	1089794.4775921584
2.4677364826202393	976344.7363742625
2.4704833030700684	844408.2758949763
2.473231554031372	730199.9838602681
2.4759814739227295	647096.8497201498
2.4787333011627197	638102.0753248933
2.481487512588501	669092.5853715694
