#wavelength	surface flux
0.8	1693223.590560048
0.8002000000000001	1723181.1836190762
0.8004000500000003	1754043.6468131864
0.8006001500125003	1784922.8900520846
0.8008003000500035	1815809.8531017948
0.8010005001250161	1846704.5378922818
0.8012007502500472	1877606.9463539217
0.8014010504376099	1908125.7369284532
0.8016014007002193	1938521.0690876872
0.8018018010503944	1968924.0000799606
0.8020022515006572	1999334.5318049958
0.8022027520635323	2029752.6661629362
0.8024033027515483	2061654.1560882484
0.8026039035772362	2095009.7998847868
0.8028045545531306	2128373.782592276
0.8030052556917691	2161746.106295458
0.803206007005692	2195126.7730795364
0.8034068085074435	2228572.025865547
0.8036076602095705	2262183.2912755595
0.8038085621246229	2295802.9595018984
0.8040095142651542	2329431.032645315
0.8042105166437206	2363067.5128070056
0.8044115692728815	2396721.329156139
0.8046126721651998	2430767.5278571937
0.8048138253332411	2464822.238107896
0.8050150287895745	2498885.462036193
0.805216282546772	2532957.201770463
0.8054175866174087	2567037.4594396483
0.8056189410140631	2601652.5776412315
0.8058203457493168	2636425.3381124903
0.8060218008357541	2671206.791773822
0.8062233062859632	2705996.9407985867
0.8064248621125346	2740795.787360584
0.806626468328063	2776883.9702488147
0.8068281249451449	2814081.0871106265
0.8070298319763813	2851287.503251699
0.8072315894343755	2888503.2209967794
0.8074333973317341	2925728.2426713095
0.8076352556810671	2961820.222943862
0.8078371644949874	2995171.404649213
0.8080391237861113	3028530.9241499975
0.8082411335670578	3061898.783530637
0.8084431938504498	3095274.984876157
0.8086453046489125	3128568.20211233
0.8088474659750746	3160169.375942251
0.8090496778415686	3191778.4500656715
0.809251940261029	3223395.4264575997
0.8094542532460944	3255020.3070936534
0.8096566168094059	3286653.0939498297
0.8098590309636085	3321876.2770517836
0.8100614957213493	3357946.7765293834
0.8102640110952797	3394026.2936318573
0.8104665770980536	3430114.830613621
0.8106691937423283	3466212.389729644
0.8108718610407639	3503133.4035681915
0.8110745790060241	3540686.3997891736
0.8112773476507757	3578248.784259244
0.8114801669876885	3615820.5593254217
0.8116830370294355	3653401.7273353445
0.8118859577886929	3689778.948990199
0.8120889292781401	3723645.1012926535
0.8122919515104597	3757519.720133181
0.8124950244983374	3791402.807628421
0.8126981482544621	3825294.3658955297
0.8129013227915257	3859882.583849821
0.8131045481222237	3902359.2929045535
0.8133078242592543	3944846.621136554
0.8135111512153191	3987344.5712006018
0.813714529003123	4029853.14575217
0.8139179576353739	4072372.347447384
0.8141214371247829	4127891.285070525
0.8143249674840641	4185942.908580581
0.814528548725935	4244009.0449964795
0.8147321808631167	4302089.6979465615
0.8149358639083326	4360184.871059862
0.8151395978743097	4412676.089187258
0.8153433827737784	4461384.350124997
0.8155472186194719	4510104.788127953
0.8157511054241268	4558837.406240401
0.815955043200483	4607582.20750741
0.8161590319612831	4657746.700567026
0.8163630717192736	4710502.817179965
0.8165671624872033	4763272.122821999
0.8167713042778252	4816054.620790496
0.8169754971038948	4868850.31438351
0.8171797409781707	4913643.03709588
0.8173840359134155	4894451.391761409
0.8175883819223938	4875254.948515626
0.8177927790178745	4856053.706159021
0.8179972272126291	4836847.663491822
0.8182017265194322	4817636.819313975
0.8184062769510622	4839414.832990304
0.8186108785203001	4867506.608794427
0.8188155312399301	4895605.407542462
0.8190202351227402	4923711.230990217
0.819224990181521	4951824.0808938155
0.8194297964290664	5046078.964527877
0.8196346538781738	5180220.169148085
0.8198395625416434	5314394.909069393
0.8200445224322789	5448603.192675739
0.820249533562887	5582845.028352946
0.8204545959462778	5695553.4004989285
0.8206597095952644	5773578.406858908
0.8208648745226633	5851622.919470537
0.8210700907412941	5929686.943210308
0.8212753582639793	6007770.4829559345
0.8214806771035456	6080994.9974753745
0.8216860472728215	6124180.030324566
0.8218914687846397	6167375.859431973
0.822096941651836	6210582.487496678
0.822302465887249	6253799.917218374
0.8225080415037209	6297028.151297525
0.8227136685140968	6339985.10032739
0.8229193469312254	6382920.765244618
0.8231250767679583	6425867.164078089
0.8233308580371503	6468824.2995112445
0.8235366907516598	6511792.174228291
0.8237425749243477	6586525.180624317
0.8239485105680789	6678107.25504204
0.824154497695721	6769712.224978309
0.824360536320145	6861340.09615708
0.8245666264542252	6952990.87430364
0.8247727681108388	7034781.307664663
0.8249789613028664	7102437.503767397
0.8251852060431922	7170110.613919215
0.825391502344703	7237800.642348541
0.8255978502202894	7305507.593285035
0.8258042496828445	7373363.2485935325
0.8260107007452654	7441875.85517736
0.8262172034204517	7510405.589912764
0.8264237577213068	7578952.457081869
0.8266303636607373	7647516.460967797
0.8268370212516525	7716097.605854662
0.8270437305069654	7769131.318879869
0.8272504914395923	7820962.019785707
0.8274573040624523	7872805.678366783
0.8276641683884679	7924662.29786246
0.8278710844305652	7976531.881513072
0.8280780522016729	8039872.492088717
0.8282850717147234	8108466.395609393
0.8284921429826521	8177077.447605878
0.8286992660183978	8245705.652365415
0.8289064408349024	8314351.014176096
0.8291136674451112	8381365.1043640785
0.8293209458619727	8446317.356710006
0.8295282760984382	8511285.847118935
0.829735658167463	8576270.57965054
0.8299430920820048	8641271.558365196
0.8301505778550254	8707214.773028025
0.8303581154994891	8776870.353600461
0.8305657050283641	8846543.34806811
0.8307733464546212	8916233.760784322
0.8309810397912352	8985941.596103827
0.8311887850511829	9055666.858382024
0.8313965822474458	9148327.466720175
0.8316044313930077	9242074.981863631
0.8318123325008561	9335845.933885962
0.8320202855839813	9429640.328646252
0.8322282906553774	9523458.17200524
0.8324363477280413	9600086.184841502
0.8326444568149735	9669803.346872743
0.8328526179291771	9739537.938194409
0.8330608310836596	9809289.963164013
0.8332690962914304	9879059.426139766
0.8334774135655034	9939816.031425571
0.833685782918895	9990500.684151977
0.8338942043646247	10041198.008041533
0.834102677915716	10091908.006262098
0.834311203585195	10142630.681982176
0.8345197813860912	10200114.744441116
0.8347284113314379	10280329.95365948
0.8349370934342709	10360565.216680104
0.8351458277076294	10440820.538516385
0.8353546141645565	10521095.92418326
0.8355634528180977	10601391.378696518
0.8357723436813022	10662839.598522443
0.8359812867672226	10724070.217216933
0.8361902820889144	10785316.143566066
0.8363993296594368	10846577.381396806
0.8366084294918518	10907853.934537021
0.8368175815992247	11001643.083952462
0.8370267859946247	11106648.076685807
0.8372360426911234	11211679.320667302
0.8374453517017962	11316736.822459783
0.8376547130397217	11421820.588627698
0.8378641267179816	11514776.730051156
0.8380735927496613	11595696.286573973
0.8382831111478488	11676636.07298587
0.8384926819256358	11757596.09434433
0.8387023050961173	11838576.355708197
0.8389119806723914	11918589.671282206
0.8391217086675596	11995844.712544031
0.8393314890947265	12073119.067566112
0.8395413219670003	12150412.741176957
0.8397512072974922	12227725.738206258
0.8399611450993165	12304950.019142766
0.8401711353855914	12376828.162740497
0.8403811781694378	12448724.275874108
0.8405912734639802	12520638.363036022
0.8408014212823464	12592570.428719757
0.8410116216376671	12664520.477419907
0.8412218745430766	12737744.85333969
0.8414321800117124	12811353.081727799
0.8416425380567154	12884979.71217304
0.8418529486912297	12958624.74927591
0.8420634119284025	13032288.197637994
0.8422739277813847	13153285.682634167
0.8424844962633302	13316000.31492441
0.842695117387396	13478755.62587252
0.8429057911667428	13641551.625648372
0.8431165176145345	13804388.324424248
0.8433272967439382	13929264.584752483
0.8435381285681244	13961476.727370976
0.8437490131002665	13993696.923025114
0.8439599503535415	14025925.173728148
0.84417094034113	14058161.48149388
0.8443819830762154	14093441.25261839
0.8445930785719846	14189878.322432157
0.8448042268416277	14286339.501513327
0.8450154278983382	14382824.795889253
0.8452266817553128	14479334.211588766
0.8454379884257517	14575867.754642216
0.8456493479228583	14701860.837102164
0.845860760259839	14834973.817370309
0.846072225449904	14968120.075883517
0.8462837435062666	15101299.620961385
0.8464953144421433	15234512.460925596
0.8467069382707537	15343683.115585705
0.8469186150053215	15434114.959014188
0.847130344659073	15524569.410403555
0.8473421272452377	15615046.47540568
0.8475539627770492	15705546.159674147
0.8477658512677435	15783751.72605601
0.8479777927305605	15835823.862371966
0.8481897871787432	15887909.016721986
0.848401834625538	15940007.192360625
0.8486139350841944	15992118.392543139
0.8488260885679657	16031573.927123895
0.8490382950901076	15916612.450426504
0.8492505546638802	15801622.23335988
0.8494628673025462	15686603.268739032
0.8496752330193721	15571555.549376857
0.8498876518276269	15456479.068084998
0.8501001237405839	14673109.363364834
0.8503126487715191	13756146.494517637
0.850525226933712	12838954.38495374
0.8507378582404455	11921532.977362458
0.8509505427050057	11003882.214418747
0.8511632803406821	10306109.472356832
0.8513760711607672	9758895.573743306
0.8515889151785576	9211544.871654274
0.8518018124073523	8664057.33189018
0.8520147628604541	8116432.920241468
0.8522277665511693	7951732.099015188
0.8524408234928071	8495414.18770318
0.8526539336986805	9039232.196913488
0.8528670971821053	9583186.160626136
0.8530803139564007	10127276.112829069
0.8532935840348901	10751859.214174595
0.8535069074308987	12055255.458451552
0.8537202841577566	13358977.551790673
0.8539337142287962	14663025.575653275
0.8541471976573534	15967399.611521028
0.8543607344567677	17272099.740897987
0.8545743246403821	17754857.664334834
0.8547879682215422	18107150.660295915
0.8550016652135977	18459531.72950594
0.8552154156299011	18812000.893983286
0.8554292194838088	19164558.175752006
0.8556430767886797	19410600.387345348
0.855856987557877	19591977.45624359
0.8560709518047664	19773399.869408943
0.8562849695427177	19954867.638177652
0.8564990407851035	20136380.773888607
0.8567131655452999	20295341.429032225
0.8569273438366862	20417314.47845679
0.8571415756726455	20539318.021143734
0.8573558610665638	20661352.064716395
0.8575702000318304	20783416.616799816
0.8577845925818384	20906784.232954804
0.857999038729984	21038131.494217083
0.8582135384896665	21169511.59229465
0.858428091874289	21300924.53539674
0.8586426988972576	21432370.331734568
0.8588573595719821	21563848.98952153
0.8590720739118751	21572566.87468226
0.8592868419303532	21566809.201982092
0.8595016636408359	21561050.089863747
0.8597165390567462	21555289.537967376
0.8599314681915105	21549527.54593303
0.8601464510585584	21267693.128990337
0.860361487671323	20839251.702075966
0.8605765780432408	20410703.164804988
0.8607917221877518	19982047.49039934
0.8610069201182988	19553284.65207521
0.8612221718483286	18892503.457448542
0.8614374773912907	17897225.73775894
0.8616528367606385	16901699.198639687
0.8618682499698288	15905923.777885024
0.8620837170323213	14909899.413275335
0.8622992379615795	14084204.770460492
0.8625148127710699	14102432.476412915
0.8627304414742627	14120664.739291826
0.8629461240846313	14138901.560236461
0.8631618606156526	14157142.940386334
0.8633776510808066	14175388.88088124
0.8635934954935769	14485730.29673418
0.8638093938674504	14820092.518437322
0.8640253462159173	15154538.33069588
0.8642413525524714	15489067.754407497
0.8644574128906095	15823680.81047497
0.8646735272438323	16156424.371848859
0.8648896956256433	16488342.851193523
0.8651059180495498	16820344.310158044
0.8653221945290621	17152428.769486986
0.8655385250776946	17484596.249931227
0.8657549097089641	17787756.976132475
0.8659713484363913	18053752.15881547
0.8661878412735006	18319813.84029426
0.866404388233819	18585942.03719338
0.8666209893308775	18852136.76614161
0.8668376445782103	19084594.235981397
0.8670543539893549	19179139.320413772
0.8672711175778525	19273708.041117318
0.8674879353572469	19368300.404000934
0.8677048073410862	19462916.41497531
0.8679217335429217	19557556.079952486
0.8681387139763074	19731259.19248038
0.8683557486548015	19908932.22606451
0.8685728375919655	20086649.67790726
0.8687899808013633	20264411.55911258
0.8690071782965637	20442217.88078843
0.869224430091138	20459459.261757653
0.8694417361986609	20411353.19438393
0.8696590966327107	20363235.10049338
0.869876511406869	20315104.97707935
0.8700939805347206	20266962.821134493
0.8703115040298544	20261403.610905748
0.870529081905862	20304541.39671822
0.8707467141763385	20347689.966977127
0.8709644008548827	20390849.3243786
0.8711821419550964	20434019.471619394
0.8713999374905854	20483090.61749102
0.871617787474958	20552503.1760515
0.8718356919218269	20621933.087751683
0.8720536508448075	20691380.356929794
0.8722716642575187	20760844.987925157
0.8724897321735832	20830326.9850783
0.8727078546066265	21017200.46911805
0.8729260315702784	21205906.316872057
0.873144263078171	21394659.3410878
0.8733625491439405	21583459.553559616
0.8735808897812266	21772306.966084626
0.8737992850036719	21835748.60618596
0.874017734824923	21854772.722461298
0.8742362392586293	21873801.594765697
0.874454798318444	21892835.22428817
0.8746734120180236	21911873.612218022
0.8748920803710283	21956064.60918127
0.875110803391121	22025537.846321013
0.8753295810919689	22095028.451770082
0.875548413487242	22164536.42987051
0.8757673005906139	22234061.784965467
0.8759862424157616	22407728.483282436
0.8762052389763657	22882726.195875578
0.8764242902861098	23357842.65789654
0.8766433963586814	23833077.899033133
0.8768625572077712	24308431.948980156
0.8770817728470732	24779223.31259201
0.8773010432902849	24884610.726532713
0.8775203685511077	24990024.48732705
0.8777397486432454	25095464.601561457
0.8779591835804065	25200931.075824548
0.8781786733763015	25306423.916706067
0.8783982180446457	25152974.742413893
0.878617817599157	24922448.95077393
0.8788374720535569	24691865.527686164
0.8790571814215703	24461224.458742682
0.8792769457169257	24230525.729531962
0.879496764953355	24236904.979211777
0.8797166391445934	24456486.351615667
0.8799365683043796	24676122.619362675
0.8801565524464557	24895813.796176616
0.8803765915845676	25115559.89578497
0.8805966857324639	25301978.035597883
0.880816834903897	25404594.952171706
0.881037039112623	25507237.522974715
0.8812572983724012	25609905.754420415
0.8814776126969944	25712599.652924024
0.8816979821001687	25811144.33697001
0.8819184065956938	25811436.092549976
0.8821388861973429	25811727.92106884
0.8823594209188923	25812019.82254483
0.882580010774122	25812311.796996195
0.8828006557768155	25812603.844441168
0.8830213559407598	26140473.056005143
0.8832421112797452	26550813.19842781
0.8834629218075651	26961255.92588584
0.8836837875380171	27371801.264025856
0.8839047084849018	27782449.238500472
0.884125684662023	27850570.05215452
0.8843467160831886	27644133.851890624
0.8845678027622095	27437646.04257666
0.8847889447129001	27231106.611310333
0.8850101419490785	27024515.545186225
0.8852313944845657	27202412.96808976
0.885452702333187	28222066.06068705
0.8856740655087704	29241974.066557344
0.8858954840251476	30262137.04942883
0.8861169578961539	31282555.07304556
0.886338487135628	32186017.90867115
0.886560071757412	31529941.5635408
0.8867817117753515	30873701.199324187
0.8870034072032955	30217296.77501622
0.8872251580550963	29560728.249602947
0.8874469643446101	28903995.582057916
0.8876688260856963	28968939.253964916
0.8878907432922178	29183293.308872346
0.8881127159780409	29397700.952293362
0.8883347441570356	29612162.19762549
0.8885568278430749	29826677.058268733
0.8887789670500358	29771290.808984958
0.8890011617917983	29524391.936305847
0.8892234120822464	29277431.338908456
0.8894457179352669	29030409.001361914
0.8896680793647509	28783324.908230793
0.8898904963845921	28588664.698006272
0.8901129690086883	28494099.832001336
0.8903354972509405	28399511.32477992
0.8905580811252535	28304899.17043163
0.8907807206455347	28210263.363044877
0.8910034158256963	28106735.870456357
0.8912261666796527	27923929.265826024
0.8914489732213227	27741076.95954448
0.8916718354646282	27558178.940186188
0.8918947534234944	27375235.196323235
0.8921177271118502	27192245.71652443
0.8923407565436284	26037134.386550643
0.8925638417327644	24723162.2343841
0.8927869826931977	23408861.589179084
0.8930101794388711	22094232.36881285
0.8932334319837308	20779274.491141737
0.8934567403417267	19923910.00691651
0.8936801045268123	19354119.147423394
0.8939035245529441	18784185.840215787
0.8941270004340824	18214110.049681157
0.894350532184191	17643891.740199037
0.8945741198172371	17954077.60288747
0.8947977633471915	19724622.72346335
0.8950214627880284	21495610.4803193
0.8952452181537254	23267040.98411341
0.8954690294582639	25038914.345534533
0.8956928967156286	26810340.605604358
0.8959168199398075	28576433.487007264
0.8961407991447926	30342967.891630974
0.8963648343445789	32109943.92985579
0.896588925553165	33877361.712089166
0.8968130727845534	35645221.34876832
0.8970372760527496	35923486.09662783
0.8972615353717629	36015386.793683186
0.8974858507556059	36107310.46591281
0.8977102222182949	36199257.11906047
0.8979346497738496	36291226.75887147
0.8981591334362931	36558919.28421791
0.8983836732196523	36922764.87291878
0.8986082691379572	37286701.423016585
0.8988329212052417	37650728.957251914
0.8990576294355432	38014847.49837112
0.8992823938429022	38256393.96137948
0.8995072144413631	38315616.357878536
0.8997320912449734	38374853.55997669
0.8999570242677847	38434105.571375355
0.9001820135238516	38493372.395776875
0.9004070590272328	38666559.83495977
0.9006321607919896	39436923.62497815
0.9008573188321878	40207480.00594482
0.9010825331618959	40978229.02600636
0.9013078037951865	41749170.733323045
0.9015331307461353	42520305.176066145
0.9017585140288219	43546737.73208082
0.9019839536573292	44595399.77951043
0.9022094496457435	45644323.99245114
0.9024350020081551	46693510.43644628
0.9026606107586572	47742959.17705207
0.902886275911347	48096548.68597496
0.9031119974803249	48114647.52948551
0.9033377754796951	48132750.89770693
0.903563609923565	48150858.791770406
0.903789500826046	48168971.21280741
0.9040154482012526	47999349.54129188
0.904241452063303	47586486.47363784
0.9044675124263188	47173520.19021698
0.9046936293044254	46760450.665225334
0.9049198027117517	46347277.87285223
0.9051460326624297	46036324.93534592
0.9053723191705955	46161010.028109305
0.9055986622503881	46285726.29214577
0.9058250619159507	46410473.73524824
0.9060515181814298	46535252.36521157
0.9062780310609752	46660062.1898323
0.9065046005687405	47207259.77296584
0.906731226718883	47778156.179053366
0.9069579095255627	48349195.309241675
0.907184649002944	48920377.199212566
0.907411445165195	49491701.88465653
0.9076382980264862	50209547.297397144
0.907865207600993	50988362.64064823
0.9080921739028933	51767372.6877349
0.9083191969463691	52546577.48733322
0.9085462767456058	53325977.088131815
0.9087734133147922	53556544.912676156
0.9090006066681211	53153037.82065453
0.909227856819788	52749429.85186042
0.9094551637839932	52345720.98107356
0.9096825275749393	51941911.18306913
0.9099099482068329	51641489.523032226
0.9101374256938848	51708794.77938235
0.9103649600503083	51776116.86204653
0.9105925512903209	51843455.77523136
0.9108201994281437	51910811.52314456
0.9110479044780008	51978184.10999466
0.9112756664541204	53060847.71080511
0.911503485370734	54167021.424297266
0.9117313612420768	55273471.6812178
0.9119592940823873	56380198.55070222
0.912187283905908	57487202.10190436
0.9124153307268845	57532776.45749638
0.9126434345595664	57193025.006477274
0.9128715954182063	56853188.61759573
0.9130998133170609	56513267.2696168
0.9133280882703902	56173260.94130089
0.913556420292458	56061192.66839945
0.9137848093975312	56184259.92396147
0.9140132555998806	56307357.94633736
0.9142417589137806	56430486.74321885
