#wavelength	surface flux
0.7	60867686.44655029
0.7001166666666666	61144959.5987676
0.7002333527777778	62038449.95104064
0.700350058336574	62932089.21837196
0.7004667833462966	63825877.42558001
0.7005835278101878	64719814.59749173
0.7007002917314895	65613900.75893065
0.7008170751134447	66508135.93472969
0.7009338779592968	67402520.14972427
0.7010507002722901	67850549.7996613
0.7011675420556689	67755288.8894561
0.701284403312678	67660012.1024327
0.7014012840465635	67564719.43594465
0.7015181842605713	67469410.88734554
0.701635103957948	67374086.4539884
0.701752043141941	67278746.13322572
0.701869001815798	67183389.92240945
0.7019859799827672	67309359.90874474
0.7021029776460976	67589392.52134375
0.7022199948090387	67869471.80604525
0.7023370314748403	68149597.77062738
0.7024540876467528	68429770.42287025
0.702571163328027	68709989.77055469
0.7026882585219152	68990255.8214645
0.7028053732316688	69270568.58338237
0.7029225074605406	68941705.20881899
0.7030396612117841	68377538.13959725
0.7031568344886527	67813277.04253055
0.7032740272944008	67248921.90194803
0.7033912396322832	66684472.70217511
0.7035084715055552	66119929.42753613
0.7036257229174727	65555292.06235117
0.7037429938712924	64990560.590938136
0.7038602843702709	65403088.46220946
0.7039775944176659	65981451.38783326
0.7040949240167356	66559910.70727823
0.7042122731707383	67138466.43660948
0.7043296418829335	67717118.59189592
0.7044470301565806	68295867.18920816
0.70456443799494	68874712.24461952
0.7046818654012724	69453653.77420712
0.7047993123788394	67504037.7207258
0.7049167789309024	65551194.98847545
0.7050342650607243	63598026.782433376
0.7051517707715678	61644533.04835787
0.7052692960666963	59690713.731994316
0.705386840949374	57736568.77907886
0.7055044054228656	55782098.135334745
0.7056219894904361	54206274.43612812
0.7057395931553511	55038519.19886256
0.705857216420877	55870902.66905811
0.7059748592902804	56703424.869831555
0.7060925217668288	57536085.82430597
0.70621020385379	58368885.55560598
0.7063279055544321	59201824.086860165
0.7064456268720246	60034901.44120417
0.7065633678098366	60709441.242107585
0.7066811283711383	60947095.75190449
0.7067989085592001	61184789.87078636
0.7069167083772933	61422523.605354555
0.7070345278286895	61660296.962212004
0.707152366916661	61898109.947962314
0.7072702256444803	62135962.56920996
0.7073881040154211	62373854.832561485
0.7075060020327569	62570957.07288542
0.7076239196997625	62708629.97874234
0.7077418570197124	62846325.83008343
0.7078598139958823	62984044.63073307
0.7079777906315483	63121786.38451629
0.7080957869299869	63259551.09525836
0.7082138028944751	63397338.766785495
0.7083318385282908	63535149.40292464
0.7084498938347124	63484995.72586609
0.708567968817018	63275454.231318675
0.7086860634784875	63065877.8131886
0.7088041778224007	62856266.46565532
0.7089223118520377	62646620.18289773
0.7090404655706796	62436938.959093146
0.709158638981608	62227222.788417675
0.709276832088105	62017471.66504706
0.7093950448934531	62049459.72617325
0.7095132774009353	62196757.81571223
0.7096315296138355	62344080.45493287
0.7097498015354378	62491427.64792666
0.7098680931690269	62638799.398785815
0.7099864045178884	62786195.71160363
0.7101047355853081	62933616.590473555
0.7102230863745722	63081062.03948985
0.7103414568889679	63101269.03546348
0.7104598471317828	63092562.24115268
0.7105782571063047	63083853.9957095
0.7106966868158224	63075144.29889208
0.710815136263625	63066433.15045852
0.7109336054530023	63057720.55016689
0.7110520943872445	63049006.49777521
0.7111706030696424	63040290.99304146
0.7112891315034873	63420361.67592142
0.7114076796920712	63819045.88192366
0.7115262476386865	64217796.53529358
0.7116448353466263	64616613.64710545
0.711763442819184	65015497.228436165
0.711882070059654	65414447.29036412
0.7120007170713306	65813463.843968816
0.7121193838575091	66203733.38374831
0.7122380704214853	66502145.24651284
0.7123567767665555	66800606.84458753
0.7124755028960166	67099118.186262034
0.7125942488131658	67397679.2798266
0.7127130145213015	67696290.13357425
0.7128318000237216	67994950.7557966
0.7129506053237256	68293661.15478973
0.7130694304246129	68538672.39878267
0.7131882753296837	68595799.24877095
0.7133071400422386	68652935.61990091
0.7134260245655789	68710081.51375934
0.7135449289030065	68767236.93193345
0.7136638530578235	68824401.87601055
0.7137827970333332	68881576.3475784
0.7139017608328388	68938760.34822485
0.7140207444596443	69092660.49351218
0.7141397479170543	69419101.29018386
0.7142587712083737	69745596.49365452
0.7143778143369084	70072146.11299269
0.7144968773059646	70398750.1572675
0.7146159601188489	70725408.63554956
0.7147350627788687	71052121.55691136
0.7148541852893318	71378888.93042661
0.7149733276535467	71712885.00198995
0.7150924898748222	72054171.07961944
0.715211671956468	72395514.03826194
0.7153308739017941	72736913.8873978
0.715450095714111	73078370.63650836
0.71556933739673	73419884.29507716
0.7156885989529628	73761454.872589
0.7158078803861218	74103082.37853095
0.7159271816995193	74323400.451223
0.7160465028964692	74472520.75558026
0.7161658439802853	74621665.91332157
0.7162852049542819	74770835.92858914
0.7164045858217744	74920030.805526
0.716523986586078	75069250.54827563
0.7166434072505089	75218495.16098231
0.716762847818384	75367764.64779118
0.7168823082930204	75739314.73978545
0.7170017886777359	76176313.44582942
0.7171212889758488	76613384.9849908
0.7172408091906781	77050529.36940883
0.7173603493255433	77487746.6112244
0.7174799093837642	77925036.72258003
0.7175994893686615	78362399.71562105
0.7177190892835562	78799835.60249408
0.7178387091317702	79377910.71018194
0.7179583489166254	79970192.6141574
0.7180780086414448	80562573.23178397
0.7181976883095517	81155052.57951348
0.7183173879242699	81747630.67380098
0.718437107488924	82340307.53110434
0.7185568470068389	82933083.16788414
0.7186766064813399	83523187.61490387
0.7187963859157535	84044134.66566245
0.7189161853134061	84565168.54092947
0.719036004677625	85086289.25517575
0.7191558440117378	85607496.82287408
0.7192757033190732	86128791.25850108
0.7193955826029597	86650172.57653342
0.7195154818667269	87171640.79145253
0.7196354011137046	87618614.50597945
0.7197553403472235	87722276.56489241
0.7198752995706147	87825955.90081513
0.7199952787872098	87929652.51662725
0.720115278000341	88033366.41520867
0.7202352972133411	88137097.59943986
0.7203553364295432	88240846.0722016
0.7204753956522815	88344611.83637561
0.7205954748848902	88402916.03532742
0.7207155741307044	88360966.06393556
0.7208356933930594	88319009.10088189
0.7209558326752915	88277045.14500102
0.7210759919807375	88235074.19512746
0.7211961713127342	88193096.25009562
0.7213163706746197	88151111.30873956
0.7214365900697322	88109119.36989331
0.7215568295014103	88445823.08148822
0.721677088972994	89234438.96811421
0.7217973684878227	90023186.29071999
0.7219176680492374	90812065.07121378
0.7220379876605789	91601075.33150387
0.722158327325189	92390217.09350428
0.7222786870464099	93179490.37913129
0.7223990668275843	93968895.21030623
0.7225194666720555	94463462.69751726
0.7226398865831676	94749060.76059441
0.7227603265642646	95034706.42334807
0.722880786618692	95320399.69371282
0.7230012667497951	95606140.5796224
0.7231217669609201	95891929.08901303
0.7232422872554135	96177765.22982162
0.7233628276366229	96463649.00998752
0.7234833881078956	96589050.24670061
0.7236039686725803	96653525.26533985
0.7237245693340255	96718011.02981542
0.7238451900955812	96782507.54191852
0.7239658309605971	96847014.80344023
0.7240864919324239	96911532.81617227
0.7242071730144127	96976061.58190645
0.724327874209915	97040601.10243477
0.7244485955222832	97906536.6260901
0.7245693369548704	98905118.75235066
0.7246900985110294	99903867.30896412
0.7248108801941148	100902782.323673
0.7249316820074803	101901863.82421432
0.7250525039544815	102901111.8383407
0.7251733460384739	103900526.39380293
0.7252942082628137	104898820.4554077
0.7254150906308574	105151515.86136416
0.7255359931459625	105404253.38322163
0.7256569158114868	105657033.02799949
0.7257778586307888	105909854.80271827
0.7258988216072273	106162718.71439943
0.7260198047441617	106415624.77006559
0.7261408080449525	106668572.97674146
0.72626183151296	106906328.24042247
0.7263828751515454	107042877.14241679
0.7265039389640706	107179448.80256142
0.726625022953898	107316043.22464949
0.7267461271243904	107452660.41247465
0.7268672514789111	107589300.36983101
0.7269883960208241	107725963.10051347
0.7271095607534942	107862648.60831782
0.7272307456802866	107947350.83193207
0.7273519508045666	107891586.2378613
0.7274731761297006	107835812.34969154
0.7275944216590555	107780029.16587377
0.7277156873959987	107724236.68485865
0.7278369733438982	107668434.90509662
0.727958279506122	107612623.82503812
0.7280796058860397	107556803.44313286
0.7282009524870207	107566263.51723184
0.7283223193124353	107672295.99282329
0.7284437063656539	107778346.1404938
0.7285651136500483	107884413.96318907
0.7286865411689898	107990499.46385458
0.7288079889258514	108096602.64543714
0.7289294569240056	108202723.51088303
0.7290509451668262	108308862.06313998
0.7291724536576875	108998783.75319903
0.7292939823999636	110172532.94493224
0.7294155313970303	111346477.76153308
0.7295371006522632	112520618.23560305
0.7296586901690385	113694954.39975111
0.7297802999507332	114869486.28659268
0.7299019300007252	116044213.92875174
0.7300235803223919	117219137.35884802
0.7301452509191123	118004573.24683455
0.7302669417942654	118610274.10569045
0.7303886529512311	119216075.91468967
0.7305103843933897	119821978.69065723
0.7306321361241218	120427982.45042032
0.7307539081468093	121034087.2108111
0.7308757004648336	121640292.98866066
0.7309975130815778	122246599.80080725
0.7311193460004248	123072556.793765
0.7312411992247582	123948354.5664075
0.7313630727579622	124824298.30534527
0.7314849666034219	125700388.03490706
0.7316068807645224	126576623.77942325
0.7317288152446498	127453005.5632306
0.7318507700471907	128329533.41066904
0.7319727451755319	129206207.3460817
0.732094740633061	130482463.25636525
0.7322167564231665	131776914.60500214
0.7323387925492371	133071581.69553052
0.7324608490146619	134366464.56390697
0.732582925822831	135661563.24609512
0.7327050229771347	136956877.77806216
0.7328271404809642	138252408.19578585
0.7329492783377112	139429199.21524516
0.7330714365507675	139436729.67990738
0.7331936151235259	139444261.3996471
0.7333158140593796	139451794.3746734
0.7334380333617229	139459328.60519555
0.7335602730339499	139466864.0914228
0.7336825330794556	139474400.83356443
0.7338048135016354	139481938.83182973
0.7339271143038857	138784274.6376579
0.734049435489603	135723579.0517519
0.7341717770621846	132662373.34991437
0.7342941390250283	129600657.4471281
0.7344165213815324	126538431.25835921
0.734538924135096	123475694.69855435
0.7346613472891185	120412447.68266022
0.734783790847	117348690.1255957
0.7349062548121412	113801288.21126197
0.7350287391879431	109399336.46219136
0.7351512439778078	104996651.0544869
0.7352737691851374	100593231.86588645
0.735396314813335	96189078.774084
0.7355188808658037	91784191.65677355
0.7356414673459482	87378570.39160122
0.7357640742571725	82972214.85622108
0.7358867016028818	80829732.00234458
0.7360093493864824	80923395.77670775
0.7361320176113801	81017075.16169988
0.736254706280982	81110770.15992282
0.7363774153986956	81204480.77397893
0.7365001449679286	81298207.00647052
0.7366228949920899	81391948.86000094
0.7367456654745885	81485706.3371736
0.7368684564188344	80248245.31247962
0.7369912678282374	78258192.57010736
0.7371140997062088	76267808.15227723
0.7372369520561599	74277092.0037089
0.7373598248815024	72286044.06912029
0.7374827181856494	70294664.2932059
0.7376056319720137	68302952.62066206
0.7377285662440091	66310908.99617247
0.7378515210050496	66257676.506050356
0.7379744962585505	66787864.323555134
0.738097492007927	67318140.50569603
0.7382205082565949	67848505.06720029
0.738343545007971	68378958.02279803
0.7384666022654723	68909499.38722223
0.7385896800325165	69440129.17520636
0.7387127783125219	69970847.40148918
0.7388358971089073	68510918.33040842
0.7389590364250921	66851070.200913265
0.7390821962644963	65190945.430061944
0.7392053766305403	63530543.97175123
0.7393285775266454	61869865.77986294
0.7394517989562333	60208910.8082744
0.7395750409227259	58547679.01085995
0.7396983034295463	57080462.88810641
0.739821586480118	59935184.52346455
0.7399448900778645	62790381.94575624
0.7400682142262109	65646055.23429367
0.740191558928582	68502204.46837616
0.7403149241884034	71358829.72732872
0.7404383100091014	74215931.09049183
0.7405617163941028	77073508.63721366
0.7406851433468352	79042512.70020925
0.7408085908707264	76944656.14797358
0.7409320589692048	74846449.95298022
0.7410555476456997	72747894.05695266
0.7411790569036406	70648988.40161063
0.7413025867464579	68549732.92865877
0.7414261371775823	66450127.57979418
0.7415497082004452	64350172.29670639
0.7416732998184786	63012664.49422076
0.741796912035115	63311284.53718715
0.7419205448537874	63609954.350160636
0.7420441982779297	63908673.94143627
0.742167872310976	64207443.319310725
0.7422915669563612	64506262.49208148
0.7424152822175206	64805131.46804762
0.7425390180978901	65104050.25550957
0.7426627746009065	64682703.25525511
0.7427865517300065	63383169.72439653
0.7429103494886282	62083419.604614764
0.7430341678802096	60783452.85981405
0.7431580069081896	59483269.453889266
0.7432818665760077	58182869.350728326
0.7434057468871037	56882252.514217965
0.7435296478449182	55581418.90823558
0.7436535694528923	54613595.705145344
0.7437775117144678	53873715.44351201
0.7439014746330868	53133711.86850284
0.7440254582121922	52393584.959563866
0.7441494624552276	51653334.69613977
0.7442734873656368	50912961.05767193
0.7443975329468645	50172464.023597084
0.7445215992023557	49431843.57334998
0.7446456861355559	49100504.3128312
0.7447697937499119	48919923.62299623
0.7448939220488703	48739312.83637968
0.7450180710358784	48558671.9479655
0.7451422407143843	48378000.95273658
0.7452664310878367	48197299.84567494
0.7453906421596846	48016568.62176233
0.7455148739333779	47835807.275979
0.7456391264123667	48354058.401350185
0.7457633996001021	48984168.94787961
0.7458876935000356	49614384.51283459
0.7460120081156189	50244705.113715865
0.7461363434503048	50875130.76803091
0.7462606995075466	51505661.49328891
0.7463850762907978	52136297.307000175
0.7465094738035127	52765370.834885314
0.7466338920491467	52958368.79060124
0.746758331031155	53151398.91264331
0.7468827907529935	53344461.206372164
0.7470072712181189	53537555.677149974
0.7471317724299886	53730682.33033962
0.7472562943920602	53923841.17130466
0.7473808371077922	54117032.20541003
0.7475054005806435	54348230.44418485
0.7476299848140736	54813378.3611178
0.7477545898115426	55278603.802703686
0.7478792155765113	55743906.78186328
0.7480038621124406	56209287.31151903
0.7481285294227926	56674745.404596284
0.7482532175110298	57140281.074022874
0.7483779263806148	57605894.33272705
0.7485026560350116	58024855.013596825
0.7486274064776842	58317412.03902664
0.748752177712097	58610017.82396017
0.7488769697417158	58902672.37652514
0.749001782570006	59195375.70484851
0.7491266162004343	59488127.81705986
0.7492514706364677	59780928.721290044
0.7493763458815739	60073778.42567122
0.7495012419392209	60110637.422727495
0.7496261588128773	59779415.24713073
0.7497510965060128	59448137.867837794
0.7498760550220971	59116805.27564844
0.7500010343646007	58785417.461360335
0.7501260345369949	58453974.41576968
0.750251055542751	58122476.129671805
0.7503760973853414	57790922.59385938
0.7505011600682389	57568615.23112527
0.750626243594917	57437535.01359218
0.7507513479688495	57306432.94935638
0.7508764731935109	57175309.03477649
0.7510016192723765	57044163.266210794
0.7511267862089218	56912995.64001714
0.7512519740066232	56781806.152552396
0.7513771826689577	56650594.80017301
0.7515024121994025	56917084.64967632
0.7516276626014359	57369059.76040723
0.751752933878536	57821110.20032248
0.7518782260341824	58273235.98197786
0.7520035390718548	58725437.11793038
0.7521288729950334	59177713.62073866
0.7522542278071992	59630065.50296412
0.7523796035118337	60082492.77717016
0.7525050001124189	60617265.7723215
0.7526304176124378	61170019.85019611
0.7527558560153731	61722866.05374966
0.752881315324709	62275804.39833766
0.7530067955439299	62828834.89931664
0.7531322966765205	63381957.57204503
0.7532578187259665	63935172.43188572
0.7533833616957542	64488479.49420302
0.75350892558937	64722856.6718374
0.7536345104103016	64942271.58129924
0.7537601161620366	65161723.05991255
0.7538857428480638	65381211.1137725
0.7540113904718717	65600735.74897447
0.7541370590369503	65820296.971615605
0.7542627485467898	66039894.78779398
0.7543884590048808	66248885.55707488
0.7545141904147151	66351771.50886294
0.7546399427797842	66454674.60830946
0.7547657161035808	66557594.858272575
0.754891510389598	66660532.26161068
0.7550173256413296	66763486.82118271
0.7551431618622698	66866458.539847985
0.7552690190559135	66969447.42046634
0.7553948972257561	67038557.03021781
0.7555207963752938	66993900.58505751
0.755646716508023	66949236.697156385
0.755772657627441	66904565.36527392
0.7558986197370455	66859886.58816948
0.756024602840335	66815200.364602186
0.7561506069408084	66770506.69333097
0.7562766320419653	66725805.57311451
0.7564026781473054	66476201.71267889
0.75652874526033	65865995.205561824
0.7566548333845401	65255686.99735993
0.7567809425234375	64645277.07112355
0.7569070726805247	64034765.409899816
0.7570332238593047	63424151.99673262
0.7571593960632813	62813436.81466265
0.7572855892959586	62202619.846728966
0.7574118035608413	61779816.460648835
0.7575380388614347	61540982.02739176
0.7576642952012449	61302107.78839572
0.7577905725837782	61063193.737026855
0.7579168710125422	60824239.866649
0.7580431904910444	60585246.170626
0.7581695310227928	60346212.642320625
0.7582958926112967	60107139.27509357
0.7584222752600652	59272191.77237087
0.7585486789726085	58094821.051691204
0.7586751037524372	56917254.10255765
0.7588015496030628	55739490.89226361
0.7589280165279966	54561531.388103515
0.7590545045307512	53383375.5573594
0.7591810136148396	52205023.36731018
0.7593075437837755	51026474.78522755
0.7594340950410726	50307851.41422649
0.7595606673902461	49722606.386696324
0.7596872608348112	49137263.81832766
0.7598138753782836	48551823.69286491
0.75994051102418	47966285.994047366
0.7600671677760173	47380650.70561381
0.7601938456373134	46794917.8112984
0.7603205446115863	46209087.29483427
0.7604472647023548	45163136.66514373
0.7605740059131385	44071285.531303845
0.7607007682474575	42979252.42227392
0.7608275517088319	41887037.30772825
0.7609543563007835	40794640.157327734
0.7610811820268336	39702060.940736145
0.7612080288905045	38609299.62761055
0.7613348968953197	37507176.92704318
0.7614617860448022	36216532.381031305
0.7615886963424764	34925672.72759334
0.7617156277918667	33634597.93088105
0.7618425803964988	32343307.95503491
0.7619695541598982	31051802.76419314
0.7620965490855914	29760082.322487187
0.7622235651771058	28468146.59403945
0.7623506024379685	27171973.621783804
0.7624776608717082	25857956.101099674
0.7626047404818536	24543719.57749537
0.7627318412719337	23229264.014472723
0.762858963245479	21914589.375522085
0.7629861064060198	20599695.624131497
0.7631132707570876	19284582.72378098
0.7632404563022137	17969250.637948252
0.7633676630449308	16713645.220697127
0.7634948909887717	15585435.433754142
0.7636221401372697	14457037.611848135
0.7637494104939593	13328451.723637413
0.7638767020623748	12199677.737780284
0.7640040148460518	11070715.622924227
0.7641313488485262	9941565.347715735
0.7642587040733344	8812226.880793428
0.7643860805240132	7859642.205803141
0.7645134782041005	7118043.632635523
0.7646408971171346	6376321.459705403
0.764768337266654	5634475.666413398
0.7648957986561985	4892506.232155606
0.7650232812893079	4150413.1363255363
0.7651507851695227	3408196.358312821
0.7652783103003843	2665855.8775038617
0.7654058566854343	2194610.247179503
0.7655334243282153	1908128.6256417711
0.7656610132322699	1621599.2571674897
