#wavelength	surface flux
0.7	55248422.291552566
0.7001166666666666	55396976.5978924
0.7002333527777778	55943288.69699439
0.700350058336574	56489691.84811262
0.7004667833462966	57036186.066422
0.7005835278101878	57582771.36710261
0.7007002917314895	58129447.765332446
0.7008170751134447	58676215.27629524
0.7009338779592968	59223073.91517628
0.7010507002722901	59559581.17036744
0.7011675420556689	59640049.9458193
0.701284403312678	59720532.132733606
0.7014012840465635	59801027.733345844
0.7015181842605713	59881536.7498915
0.701635103957948	59962059.18460652
0.701752043141941	60042595.03972732
0.701869001815798	60123144.31749076
0.7019859799827672	60211981.23945611
0.7021029776460976	60306591.358321
0.7022199948090387	60401217.24553916
0.7023370314748403	60495858.90373848
0.7024540876467528	60590516.335547484
0.702571163328027	60685189.543594964
0.7026882585219152	60779878.53051071
0.7028053732316688	60874583.29892413
0.7029225074605406	60768422.91256937
0.7030396612117841	60584675.489673704
0.7031568344886527	60400897.44220752
0.7032740272944008	60217088.76506689
0.7033912396322832	60033249.45314663
0.7035084715055552	59849379.50134124
0.7036257229174727	59665478.9045438
0.7037429938712924	59481547.65764673
0.7038602843702709	59801629.766313046
0.7039775944176659	60207254.7747353
0.7040949240167356	60612947.387325786
0.7042122731707383	61018707.61535149
0.7043296418829335	61424535.4700821
0.7044470301565806	61830430.962788425
0.70456443799494	62236394.10474322
0.7046818654012724	62642424.90722192
0.7047993123788394	60118842.433569275
0.7049167789309024	57591477.423943594
0.7050342650607243	55063691.1868124
0.7051517707715678	52535483.651976205
0.7052692960666963	50006854.74921879
0.705386840949374	47477804.408311985
0.7055044054228656	44948332.55901091
0.7056219894904361	42825012.26489113
0.7057395931553511	43285067.06782892
0.705857216420877	43745198.54656757
0.7059748592902804	44205406.71388575
0.7060925217668288	44665691.582565606
0.70621020385379	45126053.16539016
0.7063279055544321	45586491.47514462
0.7064456268720246	46047006.52461806
0.7065633678098366	46447378.35284224
0.7066811283711383	46681969.99769369
0.7067989085592001	46916600.74115261
0.7069167083772933	47151270.589735284
0.7070345278286895	47385979.54995955
0.707152366916661	47620727.628343895
0.7072702256444803	47855514.831407696
0.7073881040154211	48090341.16567233
0.7075060020327569	48278860.828165255
0.7076239196997625	48399916.31307686
0.7077418570197124	48520991.9739025
0.7078598139958823	48642087.814004935
0.7079777906315483	48763203.836747505
0.7080957869299869	48884340.045493774
0.7082138028944751	49005496.443608105
0.7083318385282908	49126673.03445554
0.7084498938347124	49032602.556512915
0.708567968817018	48756008.41439836
0.7086860634784875	48479368.1732598
0.7088041778224007	48202681.82541416
0.7089223118520377	47925949.363177575
0.7090404655706796	47649170.778864115
0.709158638981608	47372346.06478628
0.709276832088105	47095475.21325604
0.7093950448934531	47041056.629246354
0.7095132774009353	47092740.86878878
0.7096315296138355	47144433.722371146
0.7097498015354378	47196135.19142909
0.7098680931690269	47247845.277398504
0.7099864045178884	47299563.98171564
0.7101047355853081	47351291.30581683
0.7102230863745722	47403027.25113866
0.7103414568889679	47442012.37668985
0.7104598471317828	47478104.75382975
0.7105782571063047	47514203.146365814
0.7106966868158224	47550307.55530063
0.710815136263625	47586417.981636934
0.7109336054530023	47622534.42637765
0.7110520943872445	47658656.8905258
0.7111706030696424	47694785.375084676
0.7112891315034873	47967903.628394976
0.7114076796920712	48252374.57850446
0.7115262476386865	48536892.94043896
0.7116448353466263	48821458.72210026
0.711763442819184	49106071.93139199
0.711882070059654	49390732.57621885
0.7120007170713306	49675440.664486334
0.7121193838575091	49940216.9501829
0.7122380704214853	49996658.86105437
0.7123567767665555	50053110.17891092
0.7124755028960166	50109570.90532048
0.7125942488131658	50166041.041851066
0.7127130145213015	50222520.59007122
0.7128318000237216	50279009.55154925
0.7129506053237256	50335507.92785426
0.7130694304246129	50359270.46671697
0.7131882753296837	50268548.023048215
0.7133071400422386	50177810.458972156
0.7134260245655789	50087057.77196881
0.7135449289030065	49996289.95951761
0.7136638530578235	49905507.019097716
0.7137827970333332	49814708.94818762
0.7139017608328388	49723895.74426573
0.7140207444596443	49752185.25548739
0.7141397479170543	49992973.90498843
0.7142587712083737	50233802.68593073
0.7143778143369084	50474671.60500337
0.7144968773059646	50715580.66889591
0.7146159601188489	50956529.88429902
0.7147350627788687	51197519.25790471
0.7148541852893318	51438548.79640591
0.7149733276535467	51700030.52571138
0.7150924898748222	51982138.85924538
0.715211671956468	52264294.210835025
0.7153308739017941	52546496.58831683
0.715450095714111	52828745.999528065
0.71556933739673	53111042.45230789
0.7156885989529628	53393385.954496466
0.7158078803861218	53675776.513935834
0.7159271816995193	53836704.6246368
0.7160465028964692	53926341.05286246
0.7161658439802853	54015992.42049281
0.7162852049542819	54105658.73001776
0.7164045858217744	54195339.983927675
0.716523986586078	54285036.184713215
0.7166434072505089	54374747.334865496
0.716762847818384	54464473.43687618
0.7168823082930204	54696760.6364962
0.7170017886777359	54971023.01937743
0.7171212889758488	55245331.11265563
0.7172408091906781	55519684.923949465
0.7173603493255433	55794084.460878596
0.7174799093837642	56068529.73106373
0.7175994893686615	56343020.74212734
0.7177190892835562	56617557.501692675
0.7178387091317702	56998484.01328853
0.7179583489166254	57390149.12840061
0.7180780086414448	57781879.521032184
0.7181976883095517	58173675.20206252
0.7183173879242699	58565536.18237306
0.718437107488924	58957462.47284708
0.7185568470068389	59349454.08436967
0.7186766064813399	59738823.87108164
0.7187963859157535	60061073.712130964
0.7189161853134061	60383377.261487104
0.719036004677625	60705734.52810151
0.7191558440117378	61028145.52092681
0.7192757033190732	61350610.248918034
0.7193955826029597	61673128.721030205
0.7195154818667269	61995700.946221344
0.7196354011137046	62263435.80255396
0.7197553403472235	62278486.702885754
0.7198752995706147	62293540.11170093
0.7199952787872098	62308596.02941758
0.720115278000341	62323654.45645385
0.7202352972133411	62338715.393227965
0.7203553364295432	62353778.84015819
0.7204753956522815	62368844.79766292
0.7205954748848902	62374982.74051302
0.7207155741307044	62361433.23504532
0.7208356933930594	62347881.47132674
0.7209558326752915	62334327.44898087
0.7210759919807375	62320771.167631246
0.7211961713127342	62307212.626901425
0.7213163706746197	62293651.826414794
0.7214365900697322	62280088.765794754
0.7215568295014103	62504556.197509244
0.721677088972994	63013074.214310095
0.7217973684878227	63521676.9841129
0.7219176680492374	64030364.521044604
0.7220379876605789	64539136.83923216
0.722158327325189	65047993.95280627
0.7222786870464099	65556935.87589904
0.7223990668275843	66065962.62264587
0.7225194666720555	66367650.438990995
0.7226398865831676	66522382.119289555
0.7227603265642646	66677139.58820112
0.722880786618692	66831922.85002451
0.7230012667497951	66986731.909058094
0.7231217669609201	67141566.76960154
0.7232422872554135	67296427.43595494
0.7233628276366229	67451313.91241966
0.7234833881078956	67553517.41856189
0.7236039686725803	67635726.46718432
0.7237245693340255	67717949.21731472
0.7238451900955812	67800185.67123695
0.7239658309605971	67882435.83123475
0.7240864919324239	67964699.69959265
0.7242071730144127	68046977.27859528
0.724327874209915	68129268.57052758
0.7244485955222832	68623827.62322663
0.7245693369548704	69186631.82594109
0.7246900985110294	69749529.82935517
0.7248108801941148	70312521.64910464
0.7249316820074803	70875607.3008222
0.7250525039544815	71438786.80014929
0.7251733460384739	72002060.16272636
0.7252942082628137	72564793.84705961
0.7254150906308574	72760518.24839227
0.7255359931459625	72956275.2704585
0.7256569158114868	73152064.91869514
0.7257778586307888	73347887.19853991
0.7258988216072273	73543742.11543128
0.7260198047441617	73739629.67480856
0.7261408080449525	73935549.88211276
0.72626183151296	74112900.16256459
0.7263828751515454	74166655.18249823
0.7265039389640706	74220419.16160187
0.726625022953898	74274192.10136871
0.7267461271243904	74327974.0032922
0.7268672514789111	74381764.868866
0.7269883960208241	74435564.69958399
0.7271095607534942	74489373.49694048
0.7272307456802866	74531824.543839
0.7273519508045666	74543578.41537781
0.7274731761297006	74555334.2458952
0.7275944216590555	74567092.0357177
0.7277156873959987	74578851.78517182
0.7278369733438982	74590613.4945842
0.727958279506122	74602377.16428146
0.7280796058860397	74614142.79459035
0.7282009524870207	74683053.44798632
0.7283223193124353	74836496.53885318
0.7284437063656539	74989965.20356819
0.7285651136500483	75143459.44639425
0.7286865411689898	75296979.27159378
0.7288079889258514	75450524.68343122
0.7289294569240056	75604095.6861703
0.7290509451668262	75757692.28407666
0.7291724536576875	76183234.07249337
0.7292939823999636	76834161.43727387
0.7294155313970303	77485197.2899498
0.7295371006522632	78136341.64860101
0.7296586901690385	78787594.53131147
0.7297802999507332	79438955.95616877
0.7299019300007252	80090425.94126523
0.7300235803223919	80742004.50469078
0.7301452509191123	81207912.44278143
0.7302669417942654	81588148.01911592
0.7303886529512311	81968446.9680466
0.7305103843933897	82348809.30013554
0.7306321361241218	82729235.02594618
0.7307539081468093	83109724.15604514
0.7308757004648336	83490276.7009983
0.7309975130815778	83870892.67137608
0.7311193460004248	84324861.3282741
0.7312411992247582	84795497.39732014
0.7313630727579622	85266211.90571092
0.7314849666034219	85737004.86652023
0.7316068807645224	86207876.29282273
0.7317288152446498	86678826.19769649
0.7318507700471907	87149854.59422131
0.7319727451755319	87620961.4954787
0.732094740633061	88251043.76662183
0.7322167564231665	88888384.6380804
0.7323387925492371	89525831.7330176
0.7324608490146619	90163385.0691371
0.732582925822831	90801044.6641461
0.7327050229771347	91438810.53575355
0.7328271404809642	92076682.70167358
0.7329492783377112	92672396.30328953
0.7330714365507675	92852700.72702646
0.7331936151235259	93033035.20150064
0.7333158140593796	93213399.73172036
0.7334380333617229	93393794.32269539
0.7335602730339499	93574218.97943565
0.7336825330794556	93754673.70695208
0.7338048135016354	93935158.5102561
0.7339271143038857	93861365.72984196
0.734049435489603	92935455.59465122
0.7341717770621846	92009391.14110446
0.7342941390250283	91083172.34348257
0.7344165213815324	90156799.17606144
0.734538924135096	89230271.61311103
0.7346613472891185	88303589.62890136
0.734783790847	87376753.19769399
0.7349062548121412	86178767.63235131
0.7350287391879431	84501588.2711114
0.7351512439778078	82824129.37997451
0.7352737691851374	81146390.91235779
0.735396314813335	79468372.82166164
0.7355188808658037	77790075.0612865
0.7356414673459482	76111497.58461452
0.7357640742571725	74432640.34503093
0.7358867016028818	73724826.10025604
0.7360093493864824	73976162.74996173
0.7361320176113801	74227541.2891087
0.736254706280982	74478961.72467886
0.7363774153986956	74730424.06365527
0.7365001449679286	74981928.313021
0.7366228949920899	75233474.47976182
0.7367456654745885	75485062.57086377
0.7368684564188344	75006395.89718862
0.7369912678282374	74114901.1436897
0.7371140997062088	73223257.80773151
0.7372369520561599	72331465.8645498
0.7373598248815024	71439525.28937957
0.7374827181856494	70547436.05744532
0.7376056319720137	69655198.14397234
0.7377285662440091	68762811.52418031
0.7378515210050496	68872441.25859836
0.7379744962585505	69283610.25146168
0.738097492007927	69694847.7724904
0.7382205082565949	70106153.83310568
0.738343545007971	70517528.444731
0.7384666022654723	70928971.618792
0.7385896800325165	71340483.3667147
0.7387127783125219	71752063.69992927
0.7388358971089073	71079773.59900147
0.7389590364250921	70298649.67451973
0.7390821962644963	69517395.56271665
0.7392053766305403	68736011.24189608
0.7393285775266454	67954496.69035482
0.7394517989562333	67172851.88638754
0.7395750409227259	66391076.80828753
0.7396983034295463	65727180.762290165
0.739821586480118	67688379.39086618
0.7399448900778645	69649904.8858764
0.7400682142262109	71611757.30180843
0.740191558928582	73573936.69314101
0.7403149241884034	75536443.11437061
0.7404383100091014	77499276.62000425
0.7405617163941028	79462437.26455423
0.7406851433468352	80845534.93874486
0.7408085908707264	79573717.70836705
0.7409320589692048	78301688.50845146
0.7410555476456997	77029447.30366819
0.7411790569036406	75756994.05868505
0.7413025867464579	74484328.7381607
0.7414261371775823	73211451.30674927
0.7415497082004452	71938361.72910024
0.7416732998184786	71146623.16024265
0.741796912035115	71387800.49099132
0.7419205448537874	71629018.01796174
0.7420441982779297	71870275.74785331
0.742167872310976	72111573.68736674
0.7422915669563612	72352911.84320343
0.7424152822175206	72594290.22206602
0.7425390180978901	72835708.83065827
0.7426627746009065	72557338.72856955
0.7427865517300065	71645213.5208856
0.7429103494886282	70732936.29233274
0.7430341678802096	69820507.01757583
0.7431580069081896	68907925.67127317
0.7432818665760077	67995192.22807819
0.7434057468871037	67082306.66264343
0.7435296478449182	66169268.94961496
0.7436535694528923	65454211.67347591
0.7437775117144678	64874663.069901526
0.7439014746330868	64295017.874894075
0.7440254582121922	63715276.07235363
0.7441494624552276	63135437.64617919
0.7442734873656368	62555502.58026718
0.7443975329468645	61975470.85851039
0.7445215992023557	61395342.46480004
0.7446456861355559	61086188.96486795
0.7447697937499119	60876839.512620196
0.7448939220488703	60667455.16879711
0.7450180710358784	60458035.927583575
0.7451422407143843	60248581.783163145
0.7452664310878367	60039092.72971845
0.7453906421596846	59829568.76143174
0.7455148739333779	59620009.872483574
0.7456391264123667	60139780.15835004
0.7457633996001021	60776258.35927082
0.7458876935000356	61412842.63989288
0.7460120081156189	62049533.017893836
0.7461363434503048	62686329.5109581
0.7462606995075466	63323232.13677177
0.7463850762907978	63960240.91302212
0.7465094738035127	64595466.23054856
0.7466338920491467	64736481.546278305
0.746758331031155	64877520.364560805
0.7468827907529935	65018582.68931285
0.7470072712181189	65159668.524452366
0.7471317724299886	65300777.87389776
0.7472562943920602	65441910.74156796
0.7473808371077922	65583067.131382905
0.7475054005806435	65749604.84533252
0.7476299848140736	66072364.406981185
0.7477545898115426	66395177.761890195
0.7478792155765113	66718044.9190251
0.7480038621124406	67040965.88735261
0.7481285294227926	67363940.67584144
0.7482532175110298	67686969.29346201
0.7483779263806148	68010051.74918507
0.7485026560350116	68296189.1289634
0.7486274064776842	68482237.99877855
0.748752177712097	68668317.87673834
0.7488769697417158	68854428.76801151
0.749001782570006	69040570.67776634
0.7491266162004343	69226743.61117275
0.7492514706364677	69412947.57340147
0.7493763458815739	69599182.56962408
0.7495012419392209	69614311.11226761
0.7496261588128773	69383411.63612415
0.7497510965060128	69152473.6767345
0.7498760550220971	68921497.22768505
0.7500010343646007	68690482.2825607
0.7501260345369949	68459428.83494541
0.750251055542751	68228336.87842242
0.7503760973853414	67997206.40657322
0.7505011600682389	67819308.26435563
0.750626243594917	67685860.41525298
0.7507513479688495	67552390.32484235
0.7508764731935109	67418897.98941661
0.7510016192723765	67285383.40526827
0.7511267862089218	67151846.56868935
0.7512519740066232	67018287.47597095
0.7513771826689577	66884706.1234037
0.7515024121994025	67018033.12654801
0.7516276626014359	67275840.40624282
0.751752933878536	67533690.6538171
0.7518782260341824	67791583.87643275
0.7520035390718548	68049520.08125229
0.7521288729950334	68307499.27543916
0.7522542278071992	68565521.4661584
0.7523796035118337	68823586.66057624
0.7525050001124189	69116264.23781738
0.7526304176124378	69416508.6599324
0.7527558560153731	69716803.12278406
0.752881315324709	70017147.63471314
0.7530067955439299	70317542.204061
0.7531322966765205	70617986.83917001
0.7532578187259665	70918481.54838496
0.7533833616957542	71219026.34005144
0.75350892558937	71233294.40308298
0.7536345104103016	71234100.93874441
0.7537601161620366	71234907.60882847
0.7538857428480638	71235714.41335753
0.7540113904718717	71236521.352354
0.7541370590369503	71237328.42584032
0.7542627485467898	71238135.63383889
0.7543884590048808	71231246.29625513
0.7545141904147151	71147603.64419252
0.7546399427797842	71063947.05168803
0.7547657161035808	70980276.51641811
0.754891510389598	70896592.03605899
0.7550173256413296	70812893.60828646
0.7551431618622698	70729181.23077595
0.7552690190559135	70645454.90120257
0.7553948972257561	70513622.09093799
0.7555207963752938	70220338.8037115
0.755646716508023	69927006.63593733
0.755772657627441	69633625.57946843
0.7558986197370455	69340195.62615673
0.756024602840335	69046716.7678529
0.7561506069408084	68753188.99640602
0.7562766320419653	68459612.30366363
0.7564026781473054	68053392.78572308
0.75652874526033	67448970.34715723
0.7566548333845401	66844447.17151796
0.7567809425234375	66239823.2420163
0.7569070726805247	65635098.54186008
0.7570332238593047	65030273.054253906
0.7571593960632813	64425346.76239923
0.7572855892959586	63820319.64949587
0.7574118035608413	63255413.3124055
0.7575380388614347	62729762.94155608
0.7576642952012449	62204024.96231132
0.7577905725837782	61678199.36007078
0.7579168710125422	61152286.12022893
0.7580431904910444	60626285.228180245
0.7581695310227928	60100196.66931688
0.7582958926112967	59574020.42902637
0.7584222752600652	58306062.85837385
0.7585486789726085	56611819.274671465
0.7586751037524372	54917293.31703783
0.7588015496030628	53222484.93840794
0.7589280165279966	51527394.0917183
0.7590545045307512	49832020.729887545
0.7591810136148396	48136364.80582986
0.7593075437837755	46440426.272448994
0.7594340950410726	45729359.74721892
0.7595606673902461	45304004.10796967
0.7596872608348112	44878577.57611346
0.7598138753782836	44453080.13983574
0.75994051102418	44027511.787318245
0.7600671677760173	43601872.50674232
0.7601938456373134	43176162.28628598
0.7603205446115863	42750381.11412647
0.7604472647023548	41921016.00383735
0.7605740059131385	41051403.524555705
0.7607007682474575	40181646.109859996
0.7608275517088319	39311743.735597104
0.7609543563007835	38441696.37760324
0.7610811820268336	37571504.0117169
0.7612080288905045	36701166.613771245
0.7613348968953197	35818205.0952865
0.7614617860448022	34679053.57137887
0.7615886963424764	33539712.18888237
0.7617156277918667	32400180.916156553
0.7618425803964988	31260459.721551012
0.7619695541598982	30120548.573413342
0.7620965490855914	28980447.440085154
0.7622235651771058	27840156.289900094
0.7623506024379685	26668862.246343028
0.7624776608717082	25362316.924642608
0.7626047404818536	24055553.84538851
0.7627318412719337	22748572.972290114
0.762858963245479	21441374.269045383
0.7629861064060198	20133957.69934999
0.7631132707570876	18826323.226891622
0.7632404563022137	17518470.81535569
0.7633676630449308	16254169.137981944
0.7634948909887717	15082825.794261632
0.7636221401372697	13911287.226652225
0.7637494104939593	12739553.40261378
0.7638767020623748	11567624.289606351
0.7640040148460518	10395499.855078753
0.7641313488485262	9223180.066478778
0.7642587040733344	8050664.891246038
0.7643860805240132	7082239.248942449
0.7645134782041005	6357425.38888985
0.7646408971171346	5632490.726526942
0.764768337266654	4907435.241720571
0.7648957986561985	4182258.9143331656
0.7650232812893079	3456961.724224625
0.7651507851695227	2731543.65125106
0.7652783103003843	2006004.6752654212
0.7654058566854343	1588829.8204780817
0.7655334243282153	1381826.0603088038
0.7656610132322699	1174787.799513101
0.765788623401142	967715.032340404
0.7659162548383754	760607.7530399638
