#wavelength	surface flux
0.8	1207137.9516238451
0.8002000000000001	1223459.486548387
0.8004000500000003	1240363.208411768
0.8006001500125003	1257276.9956510179
0.8008003000500035	1274195.0113370786
0.8010005001250161	1291117.256527069
0.8012007502500472	1308043.7322783323
0.8014010504376099	1324244.4648049243
0.8016014007002193	1340204.7282435703
0.8018018010503944	1356168.981748076
0.8020022515006572	1372137.2263159647
0.8022027520635323	1388109.4629449819
0.8024033027515483	1404918.8190692759
0.8026039035772362	1422548.8089706092
0.8028045545531306	1440183.2063694187
0.8030052556917691	1457822.0123675861
0.803206007005692	1475465.228067238
0.8034068085074435	1493071.474494985
0.8036076602095705	1510566.1280619593
0.8038085621246229	1528065.1552923117
0.8040095142651542	1545568.5572794823
0.8042105166437206	1563076.335117144
0.8044115692728815	1580587.1803739995
0.8046126721651998	1598046.0783535421
0.8048138253332411	1615509.3410575655
0.8050150287895745	1632976.9695772815
0.805216282546772	1650448.9650041224
0.8054175866174087	1667925.328429811
0.8056189410140631	1685236.9617246115
0.8058203457493168	1702505.0568804813
0.8060218008357541	1719777.4690601183
0.8062233062859632	1737054.1993428087
0.8064248621125346	1754335.248808058
0.806626468328063	1772496.289996633
0.8068281249451449	1791413.9672967722
0.8070298319763813	1810336.3740162596
0.8072315894343755	1829263.5113374128
0.8074333973317341	1848195.3804429031
0.8076352556810671	1866032.0211657616
0.8078371644949874	1881225.3304063627
0.8080391237861113	1896422.4379742774
0.8082411335670578	1911623.344819075
0.8084431938504498	1926828.0518905995
0.8086453046489125	1941918.1472708292
0.8088474659750746	1954807.379718616
0.8090496778415686	1967699.8344745315
0.809251940261029	1980595.512344127
0.8094542532460944	1993494.414133201
0.8096566168094059	2006396.5406477072
0.8098590309636085	2021854.985668241
0.8100614957213493	2037914.8675573964
0.8102640110952797	2053978.7644170262
0.8104665770980536	2070046.6772508773
0.8106691937423283	2086118.6070629428
0.8108718610407639	2102503.654093122
0.8110745790060241	2119129.1493470776
0.8112773476507757	2135758.800974861
0.8114801669876885	2152392.610015547
0.8116830370294355	2169030.577508483
0.8118859577886929	2184585.1755659203
0.8120889292781401	2197884.817135408
0.8122919515104597	2211187.783615287
0.8124950244983374	2224494.0758367865
0.8126981482544621	2237803.6946313395
0.8129013227915257	2251668.980347659
0.8131045481222237	2271862.1043000887
0.8133078242592543	2292060.276533509
0.8135111512153191	2312263.4983099825
0.813714529003123	2332471.770891902
0.8139179576353739	2352685.095541971
0.8141214371247829	2381826.8083397322
0.8143249674840641	2412706.1912754835
0.814528548725935	2443593.29405695
0.8147321808631167	2474488.118614154
0.8149358639083326	2505390.6668774877
0.8151395978743097	2532010.7781454427
0.8153433827737784	2555738.930567071
0.8155472186194719	2579473.0150267957
0.8157511054241268	2603213.0330076306
0.815955043200483	2626958.9859929774
0.8161590319612831	2653722.014489359
0.8163630717192736	2686009.2789594233
0.8165671624872033	2718304.615245569
0.8167713042778252	2750608.0253658183
0.8169754971038948	2782919.5113386135
0.8171797409781707	2810811.4115278036
0.8173840359134155	2803362.8744450896
0.8175883819223938	2795912.4752281136
0.8177927790178745	2788460.2134113293
0.8179972272126291	2781006.0885290885
0.8182017265194322	2773550.100115635
0.8184062769510622	2792431.6096176133
0.8186108785203001	2815371.077453197
0.8188155312399301	2838316.2801557085
0.8190202351227402	2861267.2191589214
0.819224990181521	2884223.8958968706
0.8194297964290664	2925490.6268808213
0.8196346538781738	2977800.5679917443
0.8198395625416434	3030123.5865879245
0.8200445224322789	3082459.6859387755
0.820249533562887	3134808.869314449
0.8204545959462778	3179093.5673597227
0.8206597095952644	3210388.7015033583
0.8208648745226633	3241691.659430554
0.8210700907412941	3273002.4430972273
0.8212753582639793	3304321.0544597846
0.8214806771035456	3333178.509652045
0.8216860472728215	3346831.2184600597
0.8218914687846397	3360487.3404452763
0.822096941651836	3374146.876460997
0.822302465887249	3387809.8273607134
0.8225080415037209	3401476.1939981617
0.8227136685140968	3415323.857232124
0.8229193469312254	3429195.175480132
0.8231250767679583	3443069.9615577064
0.8233308580371503	3456948.2163317925
0.8235366907516598	3470829.940669582
0.8237425749243477	3507587.335246875
0.8239485105680789	3556476.5871511647
0.824154497695721	3605378.0613683993
0.824360536320145	3654291.7609541975
0.8245666264542252	3703217.68896489
0.8247727681108388	3744328.5509450696
0.8249789613028664	3774239.52740556
0.8251852060431922	3804157.981610191
0.825391502344703	3834083.91542836
0.8255978502202894	3864017.3307300108
0.8258042496828445	3894200.163658753
0.8260107007452654	3925565.5131319733
0.8262172034204517	3956938.70394253
0.8264237577213068	3988319.7380507975
0.8266303636607373	4019708.617417606
0.8268370212516525	4051105.344004241
0.8270437305069654	4070697.344620849
0.8272504914395923	4089371.1672611726
0.8274573040624523	4108049.65835716
0.8276641683884679	4126732.8190759053
0.8278710844305652	4145420.6505848523
0.8280780522016729	4172708.43267907
0.8282850717147234	4203931.922662374
0.8284921429826521	4235163.218518141
0.8286992660183978	4266402.322197896
0.8289064408349024	4297649.23565355
0.8291136674451112	4326372.947485802
0.8293209458619727	4351912.359236877
0.8295282760984382	4377458.155840858
0.829735658167463	4403010.338894018
0.8299430920820048	4428568.909992909
0.8301505778550254	4454574.231201505
0.8303581154994891	4482343.661317987
0.8305657050283641	4510120.033792026
0.8307733464546212	4537903.350359162
0.8309810397912352	4565693.612755485
0.8311887850511829	4593490.822717352
0.8313965822474458	4639139.003612701
0.8316044313930077	4685626.831987527
0.8318123325008561	4732126.282319491
0.8320202855839813	4778637.3575140145
0.8322282906553774	4825160.060477341
0.8324363477280413	4858704.415084044
0.8326444568149735	4887027.43604786
0.8328526179291771	4915357.537766885
0.8330608310836596	4943694.722011382
0.8332690962914304	4972038.990551902
0.8334774135655034	4993375.272890185
0.833685782918895	5006880.823204301
0.8338942043646247	5020389.749905988
0.834102677915716	5033902.0538393585
0.834311203585195	5047417.7358487025
0.8345197813860912	5065803.424613117
0.8347284113314379	5100575.234198695
0.8349370934342709	5135355.736736649
0.8351458277076294	5170144.934400195
0.8353546141645565	5204942.829363215
0.8355634528180977	5239749.423799961
0.8357723436813022	5261240.514900152
0.8359812867672226	5282572.458791818
0.8361902820889144	5303909.735669446
0.8363993296594368	5325252.346866301
0.8366084294918518	5346600.293715962
0.8368175815992247	5388825.744416588
0.8370267859946247	5438250.34012919
0.8372360426911234	5487687.291990706
0.8374453517017962	5537136.603090181
0.8376547130397217	5586598.276517426
0.8378641267179816	5628321.951880638
0.8380735927496613	5662365.682874573
0.8382831111478488	5696417.924801239
0.8384926819256358	5730478.679788367
0.8387023050961173	5764547.949964272
0.8389119806723914	5797286.798401315
0.8391217086675596	5826265.619533743
0.8393314890947265	5855251.6853714315
0.8395413219670003	5884244.997725583
0.8397512072974922	5913245.558407842
0.8399611450993165	5942204.554300606
0.8401711353855914	5968746.657982204
0.8403811781694378	5995295.397189715
0.8405912734639802	6021850.773582034
0.8408014212823464	6048412.788818464
0.8410116216376671	6074981.4445587
0.8412218745430766	6102869.050530552
0.8414321800117124	6131145.459411354
0.8416425380567154	6159428.93739439
0.8418529486912297	6187719.486246928
0.8420634119284025	6216017.1077366555
0.8422739277813847	6274616.283559864
0.8424844962633302	6359920.72153258
0.842695117387396	6445246.485614681
0.8429057911667428	6530593.581137805
0.8431165176145345	6615962.013434852
0.8433272967439382	6676093.460816137
0.8435381285681244	6674627.877310241
0.8437490131002665	6673161.927408468
0.8439599503535415	6671695.611019221
0.84417094034113	6670228.928050877
0.8443819830762154	6670925.829210315
0.8445930785719846	6715215.878421697
0.8448042268416277	6759517.000145356
0.8450154278983382	6803829.197149442
0.8452266817553128	6848152.472202774
0.8454379884257517	6892486.828074875
0.8456493479228583	6956839.137302199
0.845860760259839	7026025.429298011
0.846072225449904	7095229.01786682
0.8462837435062666	7164449.907332787
0.8464953144421433	7233688.10202116
0.8467069382707537	7288413.009557807
0.8469186150053215	7331825.444454044
0.847130344659073	7375248.732459018
0.8473421272452377	7418682.876285951
0.8475539627770492	7462127.878648884
0.8477658512677435	7502333.663260213
0.8479777927305605	7535648.384533795
0.8481897871787432	7568971.434487686
0.848401834625538	7602302.815204084
0.8486139350841944	7635642.528765641
0.8488260885679657	7664667.010825884
0.8490382950901076	7640996.009101165
0.8492505546638802	7617319.089626005
0.8494628673025462	7593636.250920984
0.8496752330193721	7569947.4915062515
0.8498876518276269	7546252.809901698
0.8501001237405839	7292204.572852162
0.8503126487715191	6992111.390882808
0.850525226933712	6691943.185618129
0.8507378582404455	6391699.938302136
0.8509505427050057	6091381.63017414
0.8511632803406821	5848485.4770334745
0.8513760711607672	5644903.676823057
0.8515889151785576	5441270.9811622705
0.8518018124073523	5237587.377327738
0.8520147628604541	5033852.852592369
0.8522277665511693	4977696.327837497
0.8524408234928071	5194547.631723465
0.8526539336986805	5411453.148435463
0.8528670971821053	5628412.8915266525
0.8530803139564007	5845426.87455336
0.8532935840348901	6088187.994427572
0.8535069074308987	6547999.33357131
0.8537202841577566	7007925.62555022
0.8539337142287962	7467966.899102177
0.8541471976573534	7928123.182972234
0.8543607344567677	8388394.505913341
0.8545743246403821	8559008.918926584
0.8547879682215422	8683646.883546723
0.8550016652135977	8808316.007658003
0.8552154156299011	8933016.299050316
0.8554292194838088	9057747.765515568
0.8556430767886797	9149554.928002473
0.855856987557877	9221375.341073832
0.8560709518047664	9293213.709248412
0.8562849695427177	9365070.037015064
0.8564990407851035	9436944.328863679
0.8567131655452999	9503186.770746896
0.8569273438366862	9560188.35701493
0.8571415756726455	9617204.193679543
0.8573558610665638	9674234.284303343
0.8575702000318304	9731278.632449737
0.8577845925818384	9789141.290906023
0.857999038729984	9852040.802686967
0.8582135384896665	9914956.039345842
0.858428091874289	9977887.004813885
0.8586426988972576	10040833.703023277
0.8588573595719821	10103796.137907246
0.8590720739118751	10156010.224384751
0.8592868419303532	10206968.246126015
0.8595016636408359	10257939.007372715
0.8597165390567462	10308922.511309708
0.8599314681915105	10359918.761122698
0.8601464510585584	10384862.926672723
0.860361487671323	10395978.296684742
0.8605765780432408	10407096.44553926
0.8607917221877518	10418217.373931002
0.8610069201182988	10429341.082554838
0.8612221718483286	10407036.42261032
0.8614374773912907	10336530.660262
0.8616528367606385	10266007.271473112
0.8618682499698288	10195466.251836982
0.8620837170323213	10124907.596945954
0.8622992379615795	10074773.61810316
0.8625148127710699	10125788.29439319
0.8627304414742627	10176815.724352296
0.8629461240846313	10227855.911168901
0.8631618606156526	10278908.858032215
0.8633776510808066	10329974.568132235
0.8635934954935769	10419191.026861362
0.8638093938674504	10511556.029083941
0.8640253462159173	10603944.122557072
0.8642413525524714	10696355.31305357
0.8644574128906095	10788789.606347673
0.8646735272438323	10870323.068743085
0.8648896956256433	10946796.979961589
0.8651059180495498	11023290.0096579
0.8653221945290621	11099802.162611563
0.8655385250776946	11176333.44360357
0.8657549097089641	11255418.076686336
0.8659713484363913	11337766.838679355
0.8661878412735006	11420136.187862908
0.866404388233819	11502526.129383747
0.8666209893308775	11584936.668389928
0.8668376445782103	11659776.921210898
0.8670543539893549	11703653.613378316
0.8672711175778525	11747541.274718806
0.8674879353572469	11791439.907974584
0.8677048073410862	11835349.515888691
0.8679217335429217	11879270.101204805
0.8681387139763074	11948683.225659793
0.8683557486548015	12019379.562326668
0.8685728375919655	12090093.573077796
0.8687899808013633	12160825.262331458
0.8690071782965637	12231574.634507524
0.869224430091138	12286082.385648727
0.8694417361986609	12333987.871702831
0.8696590966327107	12381905.33412844
0.869876511406869	12429834.775919655
0.8700939805347206	12477776.200071296
0.8703115040298544	12530545.680425448
0.870529081905862	12588834.515364638
0.8707467141763385	12647137.922512544
0.8709644008548827	12705455.905512232
0.8711821419550964	12763788.468007637
0.8713999374905854	12821405.609866802
0.871617787474958	12876517.65969417
0.8718356919218269	12931643.487534046
0.8720536508448075	12986783.096830886
0.8722716642575187	13041936.491030017
0.8724897321735832	13097103.673577722
0.8727078546066265	13161321.634174056
0.8729260315702784	13225693.13146637
0.873144263078171	13290080.721632937
0.8733625491439405	13354484.408697052
0.8735808897812266	13418904.19668296
0.8737992850036719	13464493.660598628
0.874017734824923	13503419.426609948
0.8742362392586293	13542354.924062755
0.874454798318444	13581300.155389924
0.8746734120180236	13620255.12302492
0.8748920803710283	13667017.881244645
0.875110803391121	13721628.629205052
0.8753295810919689	13776253.029852482
0.875548413487242	13830891.08660007
0.8757673005906139	13885542.80286185
0.8759862424157616	13954715.760789052
0.8762052389763657	14065884.375681467
0.8764242902861098	14177080.78272753
0.8766433963586814	14288304.988875385
0.8768625572077712	14399557.001074811
0.8770817728470732	14510092.092274437
0.8773010432902849	14562507.865444342
0.8775203685511077	14614936.742557613
0.8777397486432454	14667378.7268901
0.8779591835804065	14719833.821718732
0.8781786733763015	14772302.030321002
0.8783982180446457	14795828.600951197
0.878617817599157	14810747.55481018
0.8788374720535569	14825670.23840762
0.8790571814215703	14840596.652675955
0.8792769457169257	14855526.798547858
0.879496764953355	14892621.193716194
0.8797166391445934	14949648.62257941
0.8799365683043796	15006690.308299847
0.8801565524464557	15063746.25444171
0.8803765915845676	15120816.464570165
0.8805966857324639	15180593.057780124
0.880816834903897	15247146.382284041
0.881037039112623	15313716.34511911
0.8812572983724012	15380302.95044488
0.8814776126969944	15446906.202422014
0.8816979821001687	15512273.738088522
0.8819184065956938	15548176.68275258
0.8821388861973429	15584088.603152841
0.8823594209188923	15620009.501533166
0.882580010774122	15655939.380138071
0.8828006557768155	15691878.241212647
0.8830213559407598	15770604.702628432
0.8832421112797452	15860110.101723133
0.8834629218075651	15949637.877167553
0.8836837875380171	16039188.034555862
0.8839047084849018	16128760.579483533
0.884125684662023	16186966.255901068
0.8843467160831886	16220031.999398239
0.8845678027622095	16253106.009331286
0.8847889447129001	16286188.287766822
0.8850101419490785	16319278.83677196
0.8852313944845657	16394053.787768416
0.885452702333187	16560071.368053725
0.8856740655087704	16726130.45273408
0.8858954840251476	16892231.052185558
0.8861169578961539	17058373.176786825
0.886338487135628	17207080.8445699
0.886560071757412	17123265.549387157
0.8867817117753515	17039429.300380625
0.8870034072032955	16955572.0923118
0.8872251580550963	16871693.91994106
0.8874469643446101	16787794.778027173
0.8876688260856963	16810436.304032642
0.8878907432922178	16855137.788044576
0.8881127159780409	16899850.447427485
0.8883347441570356	16944574.284975294
0.8885568278430749	16989309.303482443
0.8887789670500358	17000219.774449196
0.8890011617917983	16987130.79700654
0.8892234120822464	16974038.547319517
0.8894457179352669	16960943.024570085
0.8896680793647509	16947844.227939952
0.8898904963845921	16919446.45233203
0.8901129690086883	16861856.97088932
0.8903354972509405	16804253.092076257
0.8905580811252535	16746634.81229345
0.8907807206455347	16689002.127940772
0.8910034158256963	16616609.739062058
0.8912261666796527	16412421.07134989
0.8914489732213227	16208181.356470738
0.8916718354646282	16003890.581662664
0.8918947534234944	15799548.734161086
0.8921177271118502	15595155.80119776
0.8923407565436284	14909410.296588548
0.8925638417327644	14144979.998086955
0.8927869826931977	13380358.592010483
0.8930101794388711	12615546.030582542
0.8932334319837308	11850542.266014365
0.8934567403417267	11363741.749622028
0.8936801045268123	11049808.94308137
0.8939035245529441	10735797.653339287
0.8941270004340824	10421707.860774647
0.894350532184191	10107539.545761947
0.8945741198172371	10194519.870919412
0.8947977633471915	10946909.363046903
0.8950214627880284	11699486.952547394
0.8952452181537254	12452252.686444812
0.8954690294582639	13205206.611776158
0.8956928967156286	13955362.593406433
0.8959168199398075	14686326.85543061
0.8961407991447926	15417473.85852048
0.8963648343445789	16148803.648361102
0.896588925553165	16880316.27064877
0.8968130727845534	17612011.771092106
0.8970372760527496	17810868.221098214
0.8972615353717629	17943082.602152426
0.8974858507556059	18075330.036801912
0.8977102222182949	18207610.533310026
0.8979346497738496	18339924.09994234
0.8981591334362931	18636604.631055426
0.8983836732196523	19023229.67053136
0.8986082691379572	19409951.366266906
0.8988329212052417	19796769.742426388
0.8990576294355432	20183684.823180243
0.8992823938429022	20445177.897214457
0.8995072144413631	20520105.935831927
0.8997320912449734	20595052.706459027
0.8999570242677847	20670018.213778764
0.9001820135238516	20745002.462475337
0.9004070590272328	20824000.545310996
0.9006321607919896	20923961.99234305
0.9008573188321878	21023948.42973696
0.9010825331618959	21123959.863740172
0.9013078037951865	21223996.3006019
0.9015331307461353	21324057.74657279
0.9017585140288219	21682836.597107388
0.9019839536573292	22063986.988366514
0.9022094496457435	22445232.66722318
0.9024350020081551	22826573.657499995
0.9026606107586572	23208009.983024254
0.902886275911347	23418814.405398775
0.9031119974803249	23547369.104766775
0.9033377754796951	23675955.94280962
0.903563609923565	23804574.927561913
0.903789500826046	23933226.06706048
0.9040154482012526	23999520.630877532
0.904241452063303	23985012.605106488
0.9044675124263188	23970500.952329002
0.9046936293044254	23955985.67163833
0.9049198027117517	23941466.76212747
0.9051460326624297	23951697.903455544
0.9053723191705955	24067338.533016667
0.9055986622503881	24183008.07273507
0.9058250619159507	24298706.52983841
0.9060515181814298	24414433.911556095
0.9062780310609752	24530190.225119133
0.9065046005687405	24481220.83816762
0.906731226718883	24423048.034626443
0.9069579095255627	24364860.687884457
0.907184649002944	24306658.794305783
0.907411445165195	24248442.350253653
0.9076382980264862	24511784.907194663
0.907865207600993	24908742.2016276
0.9080921739028933	25305798.73538403
0.9083191969463691	25702954.53327383
0.9085462767456058	26100209.620113302
0.9087734133147922	26276316.633094307
0.9090006066681211	26196924.197702635
0.909227856819788	26117511.914202217
0.9094551637839932	26038079.777630817
0.9096825275749393	25958627.783025302
0.9099099482068329	25874043.669855945
0.9101374256938848	25771269.36573466
0.9103649600503083	25668469.36803739
0.9105925512903209	25565643.670340717
0.9108201994281437	25462792.26621951
0.9110479044780008	25359915.149247393
0.9112756664541204	25773589.471424226
0.911503485370734	26199191.572267737
0.9117313612420768	26624900.073636465
0.9119592940823873	27050715.002130404
0.912187283905908	27476636.3843566
0.9124153307268845	27488658.712332103
0.9126434345595664	27350424.236104365
0.9128715954182063	27212155.201257702
0.9130998133170609	27073851.599152256
0.9133280882703902	26935513.421146292
0.913556420292458	26935566.43402859
0.9137848093975312	27078380.006279506
0.9140132555998806	27221229.28192347
0.9142417589137806	27364114.26988635
