#wavelength	surface flux
0.6450077295303345	21280.28798517269
0.6472567915916443	23965.15891045001
0.6494921445846558	27144.918836627614
0.6517150402069092	30484.529194060364
0.6539263725280762	34084.89798894754
0.6561272740364075	37879.25194696113
0.6583186388015747	41862.628355661276
0.6605015397071838	46273.963943091476
0.6626768708229065	50897.26363970673
0.6648455858230591	55814.479115139344
0.6670085787773132	60625.74288446686
0.6691668033599854	59746.771470343505
0.6713210344314575	56070.57063385292
0.6734722256660461	76082.3299828537
0.6756211519241333	83802.64664219273
0.6777685880661011	90321.5849385957
0.6799154281616211	96859.80077171515
0.6820623278617859	103517.22154391391
0.6842101216316223	110218.56698529283
0.6863595843315125	116869.29574219865
0.688511312007904	123474.85848113333
0.6906660795211792	128884.84661195024
0.6928245425224304	131476.45240670964
0.6949873566627502	139813.57324611925
0.6971551775932312	147995.4816438876
0.6993286609649658	153618.628481076
0.7015084028244019	157205.15952306762
0.7036949396133423	162553.37008055736
0.7058889269828796	166985.25023511559
0.7080909013748169	170496.10279681985
0.710301399230957	172964.63725121296
0.712520956993103	174537.84430128048
0.7147500514984131	173706.23811813368
0.7169892191886902	165880.3645581156
0.7192389369010925	163345.99349010014
0.7214996814727783	163853.4146213463
0.723771870136261	158822.97109870007
0.7260559797286987	151179.54697956724
0.7283523678779602	145455.8096643743
0.7306615710258484	135950.3371725649
0.7329838871955872	129314.28561750268
0.7353196740150452	120526.4725310579
0.7376693487167358	108827.99725834932
0.7400332689285278	98667.4490330101
0.7424117922782898	86701.7496496018
0.7448052167892456	75176.88790291798
0.7472138404846191	63615.28221548151
0.7496379613876343	52336.77294528192
0.7520779371261597	41663.191387033985
0.7545340061187744	31938.681688273555
0.7570064663887024	23261.90302193472
0.7594954967498779	15699.485480333553
0.7620013952255249	9146.286762411912
0.7645244002342224	3573.2828397884114
0.7670646905899048	977.5765760869562
0.7696225643157959	1091.4183543102235
0.7721980810165405	6278.676467857329
0.7747915983200073	15158.395603557707
0.7774031162261963	25819.688652902027
0.7800329327583313	32247.859727738687
0.7826811671257019	55878.21964679569
0.7853479981422424	79184.14379493221
0.7880334854125977	105316.40916685142
0.7907378077507019	133740.29480155458
0.7934610247612	93057.65321708981
0.7962033748626709	148800.4326567115
0.7989648580551147	252730.63535227516
0.801745593547821	309106.24690225493
0.8045456409454346	367538.8546915589
0.8073651194572449	428100.8008302215
0.8102040886878967	475315.94268486433
0.8130625486373901	523476.0532218128
0.8159406185150146	620902.8935620872
0.8188382983207703	706147.9881969597
0.8217556476593018	811700.8193497396
0.8246926665306091	909478.1285345579
0.8276493549346924	1029244.8631244957
0.8306257724761963	1133985.4356080065
0.8336219191551208	1262462.8277926268
0.8366377949714661	1364787.1899233917
0.8396733403205872	1514211.1291178542
0.8427285552024841	1677642.0656434377
0.8458034992218018	1863537.5649120472
0.8488980531692505	2045931.997402301
0.8520121574401855	1615257.2730773732
0.8551458716392517	2411819.7807450346
0.8582990765571594	2773206.530686364
0.8614717125892639	3010165.403846726
0.8646637797355652	3270837.6546528647
0.8678751587867737	3551604.3078120155
0.8711057901382446	3878372.4735824377
0.8743556141853333	4179382.4933666615
0.87762451171875	4494630.423189875
0.8809124231338501	4735239.747470807
0.8842192888259888	4954895.551534562
0.8875449895858765	5112949.259762503
0.8908893465995789	5008920.572264221
0.894252359867096	3449494.5888203895
0.8976338505744934	5298147.305294458
0.9010337591171265	6530565.154341358
0.9044519662857056	7555786.441196595
0.9078882932662964	7748920.251947771
0.9113426208496094	8106339.116318033
0.914814829826355	8516600.995216971
0.9183048605918884	7840397.072666001
0.9218124747276306	9329579.466794055
0.925337553024292	7647688.680979961
0.9288799166679382	2145029.4228735156
0.9324395060539246	3503401.975100483
0.9360161423683167	4225856.955745739
0.9396095871925354	6543073.3078305535
0.943219780921936	4044236.1563450373
0.9468464851379395	3346501.081717077
0.9504896402359009	3801862.933898461
0.9541489481925964	5591876.6331554
0.9578243494033813	6420883.637861548
0.9615156054496765	4084669.983727764
0.9652225375175476	4496757.235972712
0.9689450263977051	5269641.394841762
0.9726828336715698	10785477.426575743
0.9764357805252075	10447737.220178127
0.9802037477493286	10410349.802143404
0.983986496925354	12356551.21266359
0.9877838492393494	14039753.936199676
0.9915955662727356	16533641.190536596
0.9954215884208679	18169979.490164082
0.9992615580558777	19284036.89837874
1.0031154155731201	20435311.206425574
1.0069829225540161	23195581.181672506
1.0108637809753418	25646119.472245757
1.0147579908370972	29068779.399478536
1.018665075302124	31002245.045051243
1.022585153579712	32462263.678824216
1.0265177488327026	33611001.793911904
1.0304628610610962	36087397.79207754
1.0344202518463135	39857363.03641223
1.0383895635604858	42574182.20597972
1.0423706769943237	44682178.99865968
1.0463634729385376	46885644.965595216
1.0503677129745483	48508568.466354124
1.0543830394744873	51613946.25193308
1.058409333229065	54297070.10239656
1.0624464750289917	57431173.53158833
1.0664942264556885	58875002.29191829
1.0705522298812866	58810272.292921446
1.0746204853057861	63347104.918219104
1.0786986351013184	64948425.29837827
1.0827864408493042	67158360.2375555
1.086883783340454	62052731.74190222
1.0909905433654785	44729540.93199746
1.0951062440872192	27922348.980202083
1.0992310047149658	21600205.14909925
1.10336434841156	7402909.300138065
1.1075061559677124	9090312.12435486
1.1116561889648438	4320088.962880194
1.115814208984375	4436492.093147952
1.1199802160263062	3669391.557810848
1.124153733253479	1441376.333507196
1.1283347606658936	5096555.599430174
1.1325229406356812	2073277.442955519
1.1367181539535522	6079757.605828506
1.1409201622009277	7195346.561740221
1.145128846168518	5016130.399587812
1.1493438482284546	7496862.813981348
1.1535650491714478	1923397.8652307177
1.1577922105789185	3072765.7384870737
1.1620250940322876	3194912.1471698545
1.1662636995315552	4783766.88566574
1.170507550239563	4420447.794489133
1.174756646156311	7511043.512870232
1.1790107488632202	11596208.86008916
1.1832695007324219	19315733.961098686
1.1875330209732056	22327047.051422328
1.191800832748413	26399773.175580215
1.1960728168487549	37953076.15544943
1.2003488540649414	39239046.19908582
1.2046287059783936	49358470.65739233
1.2089121341705322	49126262.870594524
1.2131990194320679	51715733.97870629
1.2174891233444214	62590001.14179473
1.2217823266983032	71054881.63019359
1.2260783910751343	79013928.16746788
1.230377197265625	80650536.74319911
1.2346785068511963	85995701.92851634
1.238982081413269	87428970.53820947
1.2432878017425537	74640471.8074901
1.2475954294204712	87979912.11824456
1.2519049644470215	70822201.90091969
1.256216049194336	94954130.0229101
1.2605286836624146	102923867.49756993
1.2648425102233887	98315590.73177321
1.2691574096679688	100434735.3752112
1.2734732627868652	96905427.09231474
1.2777899503707886	97338942.58991598
1.2821072340011597	81669261.00893006
1.2864248752593994	78840533.38181639
1.2907428741455078	60377636.59535089
1.2950609922409058	59660280.47264942
1.2993791103363037	57092817.961691864
1.303696870803833	58065718.39178466
1.3080145120620728	56252229.41410272
1.3123314380645752	48390881.61386649
1.3166478872299194	47653304.89967615
1.3209635019302368	43874808.86339425
1.3252781629562378	24028553.631284416
1.3295916318893433	15335619.944855202
1.3339040279388428	3302703.713164013
1.3382149934768677	698393.2227430777
1.3425244092941284	250468.99349541904
1.3468321561813354	470145.4827238028
1.3511382341384888	61017.51374511096
1.3554422855377197	128058.79337705458
1.3597444295883179	134808.50139006498
1.3640443086624146	129729.8476375018
1.3683418035507202	100054.9962471117
1.3726370334625244	246724.37455156824
1.3769296407699585	226949.76405055166
1.381219506263733	40090.723355661285
1.3855066299438477	25896.347991454633
1.3897908926010132	77709.90903077758
1.3940720558166504	191175.26621953546
1.3983501195907593	159488.82231963225
1.4026249647140503	451125.4694197456
1.4068963527679443	670899.3441208825
1.4111642837524414	158494.1612657363
1.4154287576675415	128001.53609111201
1.419689416885376	170186.86836080364
1.4239463806152344	161858.18596063578
1.4281994104385376	491729.69140469615
1.4324485063552856	313714.974970411
1.436693549156189	382403.9472665166
1.440934419631958	634173.3025730975
1.4451709985733032	853432.5347014734
1.449403166770935	1332072.5622324438
1.453631043434143	1483254.9517661743
1.4578542709350586	2150662.4923167815
1.4620729684829712	2441205.4884136342
1.4662868976593018	2385473.8921103287
1.4704961776733398	2459421.153637886
1.4747005701065063	2793799.656115946
1.4788999557495117	2512003.639673535
1.4830944538116455	2953344.3634718517
1.4872838258743286	3133963.113351888
1.491468071937561	3077490.478878213
1.4956470727920532	3677693.010559626
1.4998208284378052	5575972.179625762
1.5039892196655273	7459221.625361396
1.5081522464752197	6615605.495456875
1.5123097896575928	7764448.638713094
1.5164618492126465	10601864.99379073
1.5206083059310913	12521147.307451034
1.5247491598129272	16148376.913944203
1.5288842916488647	14861846.17579024
1.5330137014389038	18528142.08233885
1.5371372699737549	19475457.140700933
1.541254997253418	20494660.493394747
1.545366883277893	23244654.068543226
1.5494728088378906	26290078.13878026
1.5535727739334106	27091464.71978048
1.5576666593551636	28108751.40764793
1.561754584312439	32903560.861568984
1.5658363103866577	35995123.274300136
1.5699119567871094	38614245.1394182
1.5739814043045044	37455213.88078486
1.5780447721481323	39180458.9758714
1.582101821899414	41889415.48133921
1.5861525535583496	45204219.031802684
1.5901970863342285	43618715.78126828
1.5942351818084717	42146293.9260641
1.5982669591903687	42776174.254157566
1.6022924184799194	40600480.42489703
1.606311559677124	36929460.947456814
1.6103241443634033	36183070.89107349
1.6143304109573364	34114572.20707419
1.6183301210403442	29795941.647944402
1.6223233938217163	25326701.985368863
1.6263102293014526	22409102.59496079
1.6302905082702637	19751156.60008074
1.634264349937439	23550359.46024923
1.638231635093689	35336185.06093278
1.6421923637390137	33204432.374904335
1.646146535873413	18697501.739118062
1.6500942707061768	18895999.324369058
1.6540353298187256	28913029.150416758
1.6579699516296387	27538224.00250226
1.661897897720337	26476356.49646609
1.6658192873001099	14110365.36725914
1.6697341203689575	7785694.954157911
1.6736423969268799	16964635.829132695
1.677544116973877	15498097.980073791
1.6814392805099487	15459011.578892633
1.6853278875350952	14413998.608783772
1.6892099380493164	11253864.82590626
1.6930854320526123	8454327.155339926
1.696954369544983	5555001.550162097
1.7008168697357178	6903746.374634799
1.7046726942062378	6971376.675981081
1.708522081375122	9927889.270965103
1.712364912033081	11579952.394874135
1.7162011861801147	13631107.00923259
1.7200311422348022	14828544.2409515
1.723854422569275	12942603.170597186
1.7276713848114014	11474041.560122345
1.731481909751892	10238214.92281854
1.7352858781814575	9392201.24597326
1.7390835285186768	8616758.973804703
1.7428747415542603	7693656.802871423
1.7466596364974976	7078034.759915648
1.7504380941390991	6687761.067774457
1.7542102336883545	4239473.586348707
1.7579760551452637	3839001.402124161
1.7617355585098267	4088522.0559931663
1.7654887437820435	3459742.6969520617
1.7692357301712036	2457146.266069558
1.7729763984680176	2146878.1325084427
1.776710867881775	1314801.4210844513
1.7804391384124756	1178566.4884689427
1.7841613292694092	1249899.8038678146
1.7878772020339966	781212.2892893989
1.7915871143341064	593337.349965866
1.7952908277511597	635631.0706084004
1.7989884614944458	795095.9647505543
1.8026801347732544	330830.64579294267
1.806365728378296	190295.96729372907
1.8100452423095703	154196.0607981456
1.8137187957763672	116290.3207942384
1.817386507987976	117204.62125205633
1.8210482597351074	116824.28572448979
1.8247040510177612	113250.983285826
1.828354001045227	86299.97637480922
1.8319982290267944	101024.04591734131
1.8356364965438843	93258.32484706823
1.8392690420150757	146891.57940331884
1.8428958654403687	462811.09807982936
1.8465168476104736	676346.5282340996
1.8501322269439697	375417.06992899114
1.8537418842315674	194881.6788471029
1.8573459386825562	319060.2224082056
1.860944390296936	299573.3399762222
1.864537239074707	198841.87326929285
1.8681244850158691	262570.4602217043
1.871706247329712	166794.29058352538
1.8752825260162354	310686.9556841254
1.8788533210754395	927803.848214282
1.8824186325073242	1039207.8813245952
1.8859784603118896	673256.4361517462
1.8895330429077148	639591.6066040143
1.8930821418762207	1380269.5064352946
1.8966259956359863	1708231.6567778809
1.9001644849777222	429096.91913712246
1.9036977291107178	237758.96099595327
1.9072256088256836	639175.2019443205
1.9107483625411987	473906.3001214882
1.9142658710479736	165592.77291411505
1.9177782535552979	128311.66706855535
1.9212853908538818	87406.4837843092
1.9247875213623047	110238.41112123773
1.9282845258712769	143291.08766952742
1.9317764043807983	185539.96106239865
1.9352631568908691	269688.0853634482
1.9387450218200684	365017.94520269363
1.942221760749817	506656.6095048229
1.9456936120986938	428026.41153705696
1.9491604566574097	538327.4101174276
1.952622413635254	509063.26474239735
1.956079363822937	302861.57822539966
1.959531545639038	391835.2051390878
1.962978720664978	608052.128253368
1.966421127319336	1172551.6757499615
1.9698586463928223	1797210.157463754
1.9732913970947266	1587121.5497498794
1.9767193794250488	1395728.644776877
1.9801424741744995	1670658.0693927188
1.9835609197616577	2781058.077694491
1.9869745969772339	3382514.35455693
1.990383505821228	2533957.5600856575
1.9937876462936401	2648131.372757429
1.9971871376037598	3080563.180332905
2.000581979751587	3390229.222146505
2.003972291946411	3637845.8339292114
2.007357597351074	4281402.747493414
2.0107386112213135	5883203.499717291
2.0141148567199707	6214760.496117916
2.017486572265625	5739665.593867467
2.0208535194396973	7005909.457084974
2.0242159366607666	8146876.60156855
2.027573823928833	8014142.609709676
2.0309269428253174	8229790.214126199
2.034275770187378	9167721.226494182
2.0376198291778564	9874512.90116643
2.040959596633911	10414853.313759433
2.044294595718384	11978773.166205468
2.0476250648498535	14760708.073727552
2.0509510040283203	14027334.252136935
2.054272413253784	13295347.829775576
2.057589530944824	15335151.842755588
2.0609018802642822	16488991.178836664
2.0642096996307373	16318883.069320934
2.0675129890441895	17300429.111907326
2.0708119869232178	17939145.37245772
2.074106216430664	17320031.706000883
2.0773961544036865	16771584.82013362
2.080681324005127	17045866.18697188
2.0839622020721436	17183533.073537774
2.087238311767578	17473977.29854304
2.090510129928589	17785828.740161154
2.0937774181365967	17653524.547742713
2.0970399379730225	17615839.589462858
2.1002981662750244	17170592.77024564
2.1035518646240234	16431615.27700657
2.1068007946014404	15745922.185363486
2.1100454330444336	15662898.564589748
2.1132853031158447	15896414.602318658
2.116520881652832	15657500.993167343
2.1197516918182373	15362606.406137934
2.1229779720306396	15282015.680642355
2.12619948387146	15106622.142161153
2.1294167041778564	14784745.137909068
2.132629156112671	14633688.319298035
2.1358368396759033	14002028.361173147
2.139039993286133	13231907.70385944
2.1422386169433594	12282100.214326665
2.145432472229004	11416784.334001161
2.1486217975616455	11104644.915854298
2.151806354522705	10425283.864196928
2.1549863815307617	10391985.897885378
2.1581614017486572	10315291.041200135
2.16133189201355	9646098.254056722
2.1644976139068604	9416329.510356061
2.167658567428589	9080511.80830887
2.1708147525787354	8640075.964824907
2.173966407775879	8143678.925584166
2.1771130561828613	7659177.020698307
2.1802549362182617	7143118.700026427
2.183391809463501	6621951.176618433
2.1865241527557373	6046101.423663518
2.1896514892578125	5330589.343907838
2.1927738189697266	4137551.7964744447
2.1958916187286377	2841927.5454328987
2.1990041732788086	1882626.1295260102
2.2021119594573975	1329267.7794389182
2.2052149772644043	1232501.2502824194
2.208312749862671	1561057.240148285
2.2114057540893555	2001001.9841428862
2.214493751525879	2209436.436379929
2.217576742172241	2101686.0286862385
2.2206547260284424	1881698.4335855793
2.2237277030944824	1743959.5274097244
2.2267956733703613	1545051.0562464874
2.2298583984375	1375976.1654202773
2.2329163551330566	1266691.2987102873
2.235969066619873	1156494.5841142242
2.2390167713165283	1063423.4446893327
2.2420592308044434	907495.2042076378
2.2450966835021973	714843.7725158287
2.248128890991211	719866.0614341208
2.2511560916900635	853569.2101851779
2.254178285598755	863633.4411005399
2.257194995880127	830184.998691934
2.260206699371338	792314.057841802
2.2632133960723877	711555.3113892552
2.266214609146118	695116.8125647168
2.2692108154296875	790854.349185583
2.2722020149230957	930723.3461736178
2.2751877307891846	1000061.0034307305
2.278168201446533	945616.7089801079
2.2811436653137207	843516.8611793898
2.284113883972168	761073.4548677326
2.287078857421875	699882.9877553463
2.290038824081421	646469.0673198551
2.2929933071136475	630687.5728673191
2.295942783355713	648482.0639692812
2.298887014389038	673212.2500484894
2.301826238632202	770702.6058467505
2.304760217666626	1058604.6226648516
2.3076889514923096	1549333.3961430402
2.310612440109253	1988323.7747027993
2.3135311603546143	1873587.1959425833
2.3164443969726562	1129872.5515026539
2.319352865219116	566938.9557362954
2.322256088256836	521796.06084612414
2.3251543045043945	567160.4025169626
2.328047275543213	551370.9213503808
2.330935478210449	541743.0258534829
2.3338186740875244	527502.7896066852
2.3366971015930176	498669.79162052495
2.3395702838897705	457473.2157141272
2.3424389362335205	411290.3080500436
2.3453025817871094	387115.0398130486
2.348161458969116	414515.1659664675
2.351015567779541	500913.2169225743
2.353865146636963	624745.2596442868
2.3567099571228027	765098.5089737311
2.3595502376556396	927725.8803327193
2.3623859882354736	1062800.7496352205
2.3652172088623047	974347.6615348731
2.368043899536133	631230.3141503362
2.370866537094116	372799.56125273986
2.3736846446990967	338772.1783094409
2.3764986991882324	427546.51694613026
2.3793084621429443	523320.3868065815
2.3821144104003906	584902.0821997524
2.384916305541992	636229.7524313233
2.387714147567749	701984.4380604698
2.3905084133148193	755657.3247535436
2.393299102783203	771473.1618264514
2.3960859775543213	782017.1560486758
2.398869514465332	829903.8075258087
2.4016497135162354	842018.4587985063
2.4044265747070312	836007.904666427
2.407200336456299	897879.4047774626
2.409970998764038	1050326.026772588
2.4127390384674072	1195406.2076656295
2.415503978729248	1201586.3003375304
2.418266534805298	1152123.0986991655
2.4210267066955566	1176021.0530754519
2.4237842559814453	1212012.3724708941
2.426539897918701	1321044.3762062276
2.429293394088745	1525480.4130992177
2.4320452213287354	1704981.494678629
2.4347951412200928	1683947.5977578969
2.4375438690185547	1639994.4540009226
2.440291166305542	1849608.994437715
2.443037271499634	1803475.9577108766
2.445782423019409	1550403.0878237174
2.4485268592834473	1341044.3786369804
2.451270818710327	1336571.3654480851
2.454014539718628	1492631.9333068316
2.4567582607269287	1652942.861576922
2.4595019817352295	1640995.8764634617
2.4622461795806885	1618766.4041664903
2.4649908542633057	1518721.7199174094
2.4677364826202393	1342462.940765995
2.4704833030700684	1139132.3309409998
2.473231554031372	967269.7969312652
2.4759814739227295	842263.3728435594
2.4787333011627197	826480.2440213606
2.481487512588501	876089.8266421042
