#wavelength	surface flux
0.7	1129498.7345194581
0.7001166666666666	1130975.962432643
0.7002333527777778	1131807.484691015
0.700350058336574	1132639.1455364295
0.7004667833462966	1133470.944991984
0.7005835278101878	1134302.8830807833
0.7007002917314895	1135134.9598259295
0.7008170751134447	1135967.175250533
0.7009338779592968	1136799.529377707
0.7010507002722901	1137583.4846851078
0.7011675420556689	1138308.5036858164
0.701284403312678	1139033.6435230242
0.7014012840465635	1139758.9042168723
0.7015181842605713	1140484.2857875028
0.701635103957948	1141209.788255061
0.701752043141941	1141935.4116396972
0.701869001815798	1142661.155961565
0.7019859799827672	1143884.3617538263
0.7021029776460976	1145453.892406655
0.7022199948090387	1147023.684647928
0.7023370314748403	1148593.7385212404
0.7024540876467528	1150164.0540701982
0.702571163328027	1151734.6313384115
0.7026882585219152	1153305.470369507
0.7028053732316688	1154876.5712071056
0.7029225074605406	1156984.903807822
0.7030396612117841	1159300.936506778
0.7031568344886527	1161617.3552111841
0.7032740272944008	1163934.159985373
0.7033912396322832	1166251.3508936923
0.7035084715055552	1168568.928000494
0.7036257229174727	1170886.8913701475
0.7037429938712924	1173205.2410670314
0.7038602843702709	1173958.851438861
0.7039775944176659	1174447.1306375393
0.7040949240167356	1174935.491216084
0.7042122731707383	1175423.9331880584
0.7043296418829335	1175912.4565670283
0.7044470301565806	1176401.061366561
0.70456443799494	1176889.7476002271
0.7046818654012724	1177378.5152815988
0.7047993123788394	1179264.7957878713
0.7049167789309024	1181152.9942887283
0.7050342650607243	1183041.5074893385
0.7051517707715678	1184930.335442148
0.7052692960666963	1186819.4781996154
0.705386840949374	1188708.9358142081
0.7055044054228656	1190598.7083384062
0.7056219894904361	1192289.1825593004
0.7057395931553511	1192711.4174741346
0.705857216420877	1193133.722761455
0.7059748592902804	1193556.0984329896
0.7060925217668288	1193978.5445004697
0.70621020385379	1194401.0609756277
0.7063279055544321	1194823.647870198
0.7064456268720246	1195246.3051959178
0.7065633678098366	1195775.2688171703
0.7066811283711383	1196596.89608531
0.7067989085592001	1197418.6602913276
0.7069167083772933	1198240.5614580456
0.7070345278286895	1199062.599608292
0.707152366916661	1199884.774764897
0.7072702256444803	1200707.0869506937
0.7073881040154211	1201529.5361885226
0.7075060020327569	1202590.6734160332
0.7076239196997625	1203999.400495899
0.7077418570197124	1205408.3623636097
0.7078598139958823	1206817.5590582984
0.7079777906315483	1208226.9906191044
0.7080957869299869	1209636.6570851693
0.7082138028944751	1211046.5584956445
0.7083318385282908	1212456.694889689
0.7084498938347124	1212831.822334582
0.708567968817018	1212329.311308063
0.7086860634784875	1211826.7165297058
0.7088041778224007	1211324.0379855519
0.7089223118520377	1210821.2756616413
0.7090404655706796	1210318.4295440102
0.709158638981608	1209815.499618692
0.709276832088105	1209312.48587172
0.7093950448934531	1209829.199270286
0.7095132774009353	1210832.357646409
0.7096315296138355	1211835.6832155953
0.7097498015354378	1212839.1760057095
0.7098680931690269	1213842.836044621
0.7099864045178884	1214846.6633602069
0.7101047355853081	1215850.6579803452
0.7102230863745722	1216854.8199329195
0.7103414568889679	1217740.8392739308
0.7104598471317828	1218600.123471836
0.7105782571063047	1219459.550883774
0.7106966868158224	1220319.1215336137
0.710815136263625	1221178.8354452283
0.7109336054530023	1222038.6926424953
0.7110520943872445	1222898.693149295
0.7111706030696424	1223758.836989513
0.7112891315034873	1223490.1041852217
0.7114076796920712	1223167.4577963063
0.7115262476386865	1222844.757632993
0.7116448353466263	1222522.003686319
0.711763442819184	1222199.1959473207
0.711882070059654	1221876.334407032
0.7120007170713306	1221553.4190564868
0.7121193838575091	1221233.4479741212
0.7122380704214853	1220944.6928474356
0.7123567767665555	1220655.8895948958
0.7124755028960166	1220367.0382084802
0.7125942488131658	1220078.1386801675
0.7127130145213015	1219789.1910019324
0.7128318000237216	1219500.1951657517
0.7129506053237256	1219211.151163598
0.7130694304246129	1218904.9597096657
0.7131882753296837	1218538.9321249584
0.7133071400422386	1218172.8435356533
0.7134260245655789	1217806.6939315838
0.7135449289030065	1217440.4833025802
0.7136638530578235	1217074.2116384718
0.7137827970333332	1216707.8789290856
0.7139017608328388	1216341.485164248
0.7140207444596443	1215909.2244776874
0.7141397479170543	1215359.5006315252
0.7142587712083737	1214809.6851647226
0.7143778143369084	1214259.7780620086
0.7144968773059646	1213709.7793081107
0.7146159601188489	1213159.6888877538
0.7147350627788687	1212609.5067856603
0.7148541852893318	1212059.2329865498
0.7149733276535467	1210928.211246248
0.7150924898748222	1209211.4802395285
0.715211671956468	1207494.463110974
0.7153308739017941	1205777.159812897
0.715450095714111	1204059.5702976042
0.71556933739673	1202341.694517392
0.7156885989529628	1200623.53242455
0.7158078803861218	1198905.0839713565
0.7159271816995193	1195649.526454443
0.7160465028964692	1191491.40732574
0.7161658439802853	1187332.5951771825
0.7162852049542819	1183173.0898932675
0.7164045858217744	1179012.8913584691
0.716523986586078	1174851.9994572503
0.7166434072505089	1170690.41407405
0.716762847818384	1166528.1350932843
0.7168823082930204	1163674.6060599554
0.7170017886777359	1161205.8341909384
0.7171212889758488	1158736.6508599445
0.7172408091906781	1156267.055998395
0.7173603493255433	1153797.0495377008
0.7174799093837642	1151326.6314092649
0.7175994893686615	1148855.8015444728
0.7177190892835562	1146384.5598747046
0.7178387091317702	1147161.427652292
0.7179583489166254	1148264.5208088923
0.7180780086414448	1149367.7978143531
0.7181976883095517	1150471.2586993147
0.7183173879242699	1151574.9034944237
0.718437107488924	1152678.7322303322
0.7185568470068389	1153782.7449376974
0.7186766064813399	1154807.0146487379
0.7187963859157535	1153833.1039661302
0.7189161853134061	1152859.0309650754
0.719036004677625	1151884.7956185204
0.7191558440117378	1150910.3978994084
0.7192757033190732	1149935.837780675
0.7193955826029597	1148961.1152352563
0.7195154818667269	1147986.2302360793
0.7196354011137046	1146889.2104464858
0.7197553403472235	1145230.4255042898
0.7198752995706147	1143571.3640979375
0.7199952787872098	1141912.0261813495
0.720115278000341	1140252.4117084423
0.7202352972133411	1138592.5206331227
0.7203553364295432	1136932.3529092928
0.7204753956522815	1135271.90849084
0.7205954748848902	1134464.215178185
0.7207155741307044	1135536.99483619
0.7208356933930594	1136609.9532908027
0.7209558326752915	1137683.090571825
0.7210759919807375	1138756.406709062
0.7211961713127342	1139829.9017323204
0.7213163706746197	1140903.5756714179
0.7214365900697322	1141977.4285561708
0.7215568295014103	1141419.511769869
0.721677088972994	1138914.3123392083
0.7217973684878227	1136408.6953753137
0.7219176680492374	1133902.6608085886
0.7220379876605789	1131396.2085694375
0.722158327325189	1128889.3385882454
0.7222786870464099	1126382.0507953912
0.7223990668275843	1123874.345121237
0.7225194666720555	1121550.277166036
0.7226398865831676	1119356.2667272426
0.7227603265642646	1117161.890620048
0.722880786618692	1114967.1487834975
0.7230012667497951	1112772.0411566424
0.7231217669609201	1110576.5676785158
0.7232422872554135	1108380.7282881448
0.7233628276366229	1106184.5229245382
0.7234833881078956	1105294.684887233
0.7236039686725803	1104900.8147714
0.7237245693340255	1104506.8790105483
0.7238451900955812	1104112.877593736
0.7239658309605971	1103718.810510021
0.7240864919324239	1103324.6777484582
0.7242071730144127	1102930.479298102
0.724327874209915	1102536.2151480047
0.7244485955222832	1097823.681946128
0.7245693369548704	1092396.3848819118
0.7246900985110294	1086968.183268193
0.7248108801941148	1081539.0769541906
0.7249316820074803	1076109.065789154
0.7250525039544815	1070678.149622248
0.7251733460384739	1065246.3283026465
0.7252942082628137	1059820.7949567677
0.7254150906308574	1058562.37003953
0.7255359931459625	1057303.7353848058
0.7256569158114868	1056044.890957639
0.7257778586307888	1054785.8367230669
0.7258988216072273	1053526.5726461227
0.7260198047441617	1052267.098691834
0.7261408080449525	1051007.414825217
0.72626183151296	1049758.6162943174
0.7263828751515454	1048583.3441520259
0.7265039389640706	1047407.8761310441
0.726625022953898	1046232.2121987249
0.7267461271243904	1045056.3523224163
0.7268672514789111	1043880.2964694623
0.7269883960208241	1042704.0446072007
0.7271095607534942	1041527.5967029611
0.7272307456802866	1040057.9967685612
0.7273519508045666	1037796.8071533272
0.7274731761297006	1035535.2406731583
0.7275944216590555	1033273.2972652428
0.7277156873959987	1031010.9768667585
0.7278369733438982	1028748.2794148708
0.727958279506122	1026485.2048467472
0.7280796058860397	1024221.753099526
0.7282009524870207	1020989.8186032019
0.7283223193124353	1016325.409597951
0.7284437063656539	1011660.2231912088
0.7285651136500483	1006994.2592533912
0.7286865411689898	1002327.5176549269
0.7288079889258514	997659.9982661849
0.7289294569240056	992991.7009575556
0.7290509451668262	988322.6255993693
0.7291724536576875	984268.3692769767
0.7292939823999636	980723.525805494
0.7294155313970303	977178.091526759
0.7295371006522632	973632.0663423119
0.7296586901690385	970085.45015367
0.7297802999507332	966538.2428623317
0.7299019300007252	962990.444369769
0.7300235803223919	959442.054577467
0.7301452509191123	956832.5865540894
0.7302669417942654	954656.3341945753
0.7303886529512311	952479.7191263338
0.7305103843933897	950302.7412889138
0.7306321361241218	948125.4006218557
0.7307539081468093	945947.6970646828
0.7308757004648336	943769.6305569216
0.7309975130815778	941591.2010380732
0.7311193460004248	939603.7664456047
0.7312411992247582	937659.3216218983
0.7313630727579622	935714.5527240549
0.7314849666034219	933769.4596980601
0.7316068807645224	931824.0424898952
0.7317288152446498	929878.3010455283
0.7318507700471907	927932.2353109196
0.7319727451755319	925985.8452320225
0.732094740633061	922413.025769019
0.7322167564231665	918766.4030746538
0.7323387925492371	915119.1726098395
0.7324608490146619	911471.334273282
0.732582925822831	907822.8879636675
0.7327050229771347	904173.8335796723
0.7328271404809642	900524.1710199426
0.7329492783377112	896903.825573206
0.7330714365507675	893577.0749903502
0.7331936151235259	890249.7699490647
0.7333158140593796	886921.9103569429
0.7334380333617229	883593.4961215506
0.7335602730339499	880264.5271504509
0.7336825330794556	876935.0033511886
0.7338048135016354	873604.9246312996
0.7339271143038857	870564.3103347006
0.734049435489603	868494.9532485951
0.7341717770621846	866425.2512696417
0.7342941390250283	864355.2043403593
0.7344165213815324	862284.8124032563
0.734538924135096	860214.0754008275
0.7346613472891185	858142.9932755674
0.734783790847	856071.5659699526
0.7349062548121412	853027.3495598937
0.7350287391879431	848263.7915309747
0.7351512439778078	843499.4395757078
0.7352737691851374	838734.2935617875
0.735396314813335	833968.3533568605
0.7355188808658037	829201.618828574
0.7356414673459482	824434.089844523
0.7357640742571725	819665.7662723113
0.7358867016028818	815343.0839915721
0.7360093493864824	811460.5770854404
0.7361320176113801	807577.4230948295
0.736254706280982	803693.6219118868
0.7363774153986956	799809.173428742
0.7365001449679286	795924.0775375245
0.7366228949920899	792038.334130322
0.7367456654745885	788151.9430992184
0.7368684564188344	784370.9598460158
0.7369912678282374	780649.2867679865
0.7371140997062088	776926.9934111092
0.7372369520561599	773204.0796720023
0.7373598248815024	769480.5454472806
0.7374827181856494	765756.3906335152
0.7376056319720137	762031.6151272806
0.7377285662440091	758306.2188251277
0.7378515210050496	753609.4038696135
0.7379744962585505	748619.7226005315
0.738097492007927	743629.209717906
0.7382205082565949	738637.8650831364
0.738343545007971	733645.6885575954
0.7384666022654723	728652.6800026284
0.7385896800325165	723658.8392795763
0.7387127783125219	718664.1662497309
0.7388358971089073	716269.8497825343
0.7389590364250921	714136.0399764326
0.7390821962644963	712001.8745353615
0.7392053766305403	709867.3534000535
0.7393285775266454	707732.4765112213
0.7394517989562333	705597.2438095723
0.7395750409227259	703461.6552358097
0.7396983034295463	701253.8882649713
0.739821586480118	697448.0091337408
0.7399448900778645	693641.4956893292
0.7400682142262109	689834.3478259987
0.740191558928582	686026.5654380283
0.7403149241884034	682218.148419663
0.7404383100091014	678409.0966651269
0.7405617163941028	674599.4100686341
0.7406851433468352	670640.3024910997
0.7408085908707264	665999.8747417704
0.7409320589692048	661358.6735878185
0.7410555476456997	656716.6989003372
0.7411790569036406	652073.9505504115
0.7413025867464579	647430.4284090927
0.7414261371775823	642786.1323474157
0.7415497082004452	638141.0622363987
0.7416732998184786	633502.2061506262
0.741796912035115	628877.5679947707
0.7419205448537874	624252.1590658904
0.7420441982779297	619625.979235522
0.742167872310976	614999.0283751775
0.7422915669563612	610371.3063563565
0.7424152822175206	605742.8130505336
0.7425390180978901	601113.5483291626
0.7426627746009065	596905.7622434977
0.7427865517300065	593212.0280659666
0.7429103494886282	589517.6782660685
0.7430341678802096	585822.7127412067
0.7431580069081896	582127.1313887577
0.7432818665760077	578430.934106078
0.7434057468871037	574734.120790521
0.7435296478449182	571036.6913394135
0.7436535694528923	567000.8173529085
0.7437775117144678	562733.0168890954
0.7439014746330868	558464.5051252114
0.7440254582121922	554195.2819426964
0.7441494624552276	549925.3472229826
0.7442734873656368	545654.700847483
0.7443975329468645	541383.3426975842
0.7445215992023557	537111.2726546609
0.7446456861355559	532816.4528231908
0.7447697937499119	528512.7990565499
0.7448939220488703	524208.42801428214
0.7450180710358784	519903.3395768444
0.7451422407143843	515597.5336246667
0.7452664310878367	511291.0100381595
0.7453906421596846	506983.76869772584
0.7455148739333779	502675.8094837341
0.7456391264123667	498517.1884205155
0.7457633996001021	494381.86740145093
0.7458876935000356	490245.8571622091
0.7460120081156189	486109.15758793533
0.7461363434503048	481971.7685637306
0.7462606995075466	477833.68997468473
0.7463850762907978	473694.9217058802
0.7465094738035127	469555.5055649894
0.7466338920491467	465426.3662463799
0.746758331031155	461296.5387378799
0.7468827907529935	457166.02292480005
0.7470072712181189	453034.8186924179
0.7471317724299886	448902.9259259962
0.7472562943920602	444770.34451078303
0.7473808371077922	440637.07433199696
0.7475054005806435	436490.5242617965
0.7476299848140736	432265.72739739437
0.7477545898115426	428040.22640018055
0.7478792155765113	423814.0211527995
0.7480038621124406	419587.11153788056
0.7481285294227926	415359.49743802677
0.7482532175110298	411131.17873581854
0.7483779263806148	406902.1553138325
0.7485026560350116	402701.4264549419
0.7486274064776842	398578.4832655446
0.748752177712097	394454.85291895655
0.7488769697417158	390330.53530063527
0.749001782570006	386205.5302960493
0.7491266162004343	382079.8377906304
0.7492514706364677	377953.45766979206
0.7493763458815739	373826.3898189295
0.7495012419392209	369679.9610549719
0.7496261588128773	365505.996458392
0.7497510965060128	361331.3362010431
0.7498760550220971	357155.98016698624
0.7500010343646007	352979.9282402563
0.7501260345369949	348803.18030486995
0.750251055542751	344625.73624483234
0.7503760973853414	340447.59594411554
0.7505011600682389	336333.67561257107
0.750626243594917	332273.2732753664
0.7507513479688495	328212.19420444506
0.7508764731935109	324150.4382870105
0.7510016192723765	320088.0054102553
0.7511267862089218	316024.8954613578
0.7512519740066232	311961.10832746734
0.7513771826689577	307896.64389571897
0.7515024121994025	303996.81296205166
0.7516276626014359	300173.40929221263
0.751752933878536	296349.3683884353
0.7518782260341824	292524.69014450605
0.7520035390718548	288699.37445420114
0.7521288729950334	284873.42121128313
0.7522542278071992	281046.83030949096
0.7523796035118337	277219.6016425467
0.7525050001124189	273392.2663112806
0.7526304176124378	269564.40861645475
0.7527558560153731	265735.91294535133
0.752881315324709	261906.77919163232
0.7530067955439299	258077.007248953
0.7531322966765205	254246.59701095504
0.7532578187259665	250415.54837124955
0.7533833616957542	246583.8612234376
0.75350892558937	242828.1905097769
0.7536345104103016	239075.49839046344
0.7537601161620366	235322.18082246537
0.7538857428480638	231568.23770153566
0.7540113904718717	227813.66892342397
0.7541370590369503	224058.4743838501
0.7542627485467898	220302.65397851725
0.7543884590048808	216571.2946758458
0.7545141904147151	213089.48461186135
0.7546399427797842	209607.09424620518
0.7547657161035808	206124.1234821542
0.754891510389598	202640.57222297604
0.7550173256413296	199156.44037191995
0.7551431618622698	195671.72783222288
0.7552690190559135	192186.43450710326
0.7553948972257561	188724.99283253268
0.7555207963752938	185344.9850651206
0.755646716508023	181964.4139630825
0.755772657627441	178583.27943252627
0.7558986197370455	175201.58137954777
0.756024602840335	171819.31971022795
0.7561506069408084	168436.49433062997
0.7562766320419653	165053.105146799
0.7564026781473054	161698.12095340004
0.75652874526033	158393.5551112739
0.7566548333845401	155088.43850817234
0.7567809425234375	151782.7710523048
0.7569070726805247	148476.55265186317
0.7570332238593047	145169.7832150219
0.7571593960632813	141862.462649938
0.7572855892959586	138554.59086475975
0.7574118035608413	135421.78808426126
0.7575380388614347	132460.27825717878
0.7576642952012449	129498.27484512399
0.7577905725837782	126535.77776583814
0.7579168710125422	123572.78693703379
0.7580431904910444	120609.30227642354
0.7581695310227928	117645.32370170692
0.7582958926112967	114680.85113055745
0.7584222752600652	111849.9771296075
0.7585486789726085	109095.6624256165
0.7586751037524372	106340.88866917377
0.7588015496030628	103585.65578376627
0.7589280165279966	100829.9636928833
0.7590545045307512	98073.8123199852
0.7591810136148396	95317.201588525
0.7593075437837755	92560.13142193884
0.7594340950410726	89987.87828109796
0.7595606673902461	87468.95193080282
0.7596872608348112	84949.60575944679
0.7598138753782836	82429.83969706496
0.75994051102418	79909.6536736704
0.7600671677760173	77389.04761927389
0.7601938456373134	74868.02146386639
0.7603205446115863	72346.5751374344
0.7604472647023548	70033.45973067972
0.7605740059131385	67740.70864512993
0.7607007682474575	65447.575434396975
0.7608275517088319	63154.06003480065
0.7609543563007835	60860.16238263264
0.7610811820268336	58565.88241419065
0.7612080288905045	56271.22006575833
0.7613348968953197	53984.51839507477
0.7614617860448022	51868.61803821805
0.7615886963424764	49752.36503129897
0.7617156277918667	47635.75931554745
0.7618425803964988	45518.8008321749
0.7619695541598982	43401.48952238902
0.7620965490855914	41283.825327386396
0.7622235651771058	39165.80818834883
0.7623506024379685	37123.36954316221
0.7624776608717082	35413.40653018238
0.7626047404818536	33703.15852336698
0.7627318412719337	31992.625475220048
0.762858963245479	30281.807338230683
0.7629861064060198	28570.704064884994
0.7631132707570876	26859.315607658646
0.7632404563022137	25147.641919024292
0.7633676630449308	23546.5379128395
0.7634948909887717	22181.140462800257
0.7636221401372697	20815.51544652112
0.7637494104939593	19449.66282607131
0.7638767020623748	18083.58256352007
0.7640040148460518	16717.274620923512
0.7641313488485262	15350.738960336574
0.7642587040733344	13983.975543804652
0.7643860805240132	12778.007612432822
0.7645134782041005	11763.987728385242
0.7646408971171346	10749.798841023232
0.764768337266654	9735.440922180367
0.7648957986561985	8720.913943684034
0.7650232812893079	7706.2178773580845
0.7651507851695227	6691.352695021072
0.7652783103003843	5676.318368487128
