#wavelength	surface flux
0.7	45731529.938740894
0.7001166666666666	45953637.52968332
0.7002333527777778	46082888.98508747
0.700350058336574	46212161.98240079
0.7004667833462966	46341456.525213495
0.7005835278101878	46470772.617117025
0.7007002917314895	46600110.26170233
0.7008170751134447	46729469.46256171
0.7009338779592968	46858850.22328785
0.7010507002722901	46900719.23290857
0.7011675420556689	46836072.99633997
0.701284403312678	46771415.98539871
0.7014012840465635	46706748.198288865
0.7015181842605713	46642069.63321452
0.701635103957948	46577380.28837937
0.701752043141941	46512680.16198677
0.701869001815798	46447969.25223967
0.7019859799827672	46250042.53562591
0.7021029776460976	45959379.63658541
0.7022199948090387	45668668.29372803
0.7023370314748403	45377908.498980306
0.7024540876467528	45087100.24426684
0.702571163328027	44796243.52151139
0.7026882585219152	44505338.32263471
0.7028053732316688	44214384.639558636
0.7029225074605406	44179454.840733945
0.7030396612117841	44243400.50863421
0.7031568344886527	44307356.83414579
0.7032740272944008	44371323.819044925
0.7033912396322832	44435301.46510824
0.7035084715055552	44499289.7741125
0.7036257229174727	44563288.74783495
0.7037429938712924	44627298.38805308
0.7038602843702709	44953385.93144675
0.7039775944176659	45323976.34356851
0.7040949240167356	45694628.520759106
0.7042122731707383	46065342.47331237
0.7043296418829335	46436118.2115246
0.7044470301565806	46806955.74569314
0.70456443799494	47177855.08611709
0.7046818654012724	47548816.243098
0.7047993123788394	46735359.20993948
0.7049167789309024	45920407.35722683
0.7050342650607243	45105319.67920415
0.7051517707715678	44290096.15323551
0.7052692960666963	43474736.75667961
0.705386840949374	42659241.466891296
0.7055044054228656	41843610.26122002
0.7056219894904361	41160611.16284227
0.7057395931553511	41321225.02871837
0.705857216420877	41481865.66357223
0.7059748592902804	41642533.07186515
0.7060925217668288	41803227.25805961
0.70621020385379	41963948.22661841
0.7063279055544321	42124695.982005104
0.7064456268720246	42285470.52868461
0.7065633678098366	42452742.055698216
0.7066811283711383	42637860.46826991
0.7067989085592001	42823009.73391036
0.7069167083772933	43008189.85776164
0.7070345278286895	43193400.84496701
0.707152366916661	43378642.70067028
0.7072702256444803	43563915.43001595
0.7073881040154211	43749219.03815011
0.7075060020327569	43832165.32677155
0.7076239196997625	43766012.64949912
0.7077418570197124	43699848.94678054
0.7078598139958823	43633674.216778174
0.7079777906315483	43567488.45765409
0.7080957869299869	43501291.66757019
0.7082138028944751	43435083.84468798
0.7083318385282908	43368864.98716858
0.7084498938347124	43296566.34786631
0.708567968817018	43219110.45251656
0.7086860634784875	43141641.64785084
0.7088041778224007	43064159.931717604
0.7089223118520377	42986665.301965125
0.7090404655706796	42909157.75644106
0.709158638981608	42831637.292992644
0.709276832088105	42754103.909466974
0.7093950448934531	42808955.55970156
0.7095132774009353	42926958.36540165
0.7096315296138355	43044980.83823607
0.7097498015354378	43163022.981482595
0.7098680931690269	43281084.79841955
0.7099864045178884	43399166.292326145
0.7101047355853081	43517267.46648169
0.7102230863745722	43635388.32416619
0.7103414568889679	43463628.43748259
0.7104598471317828	43225967.716130406
0.7105782571063047	42988267.38465818
0.7106966868158224	42750527.43646405
0.710815136263625	42512747.86494528
0.7109336054530023	42274928.66349776
0.7110520943872445	42037069.82551675
0.7111706030696424	41799171.34439595
0.7112891315034873	41895173.815772064
0.7114076796920712	42007125.55543005
0.7115262476386865	42119095.9537113
0.7116448353466263	42231085.01372553
0.711763442819184	42343092.738583155
0.711882070059654	42455119.13139501
0.7120007170713306	42567164.195272274
0.7121193838575091	42685327.54334726
0.7122380704214853	42867127.95648765
0.7123567767665555	43048958.6696967
0.7124755028960166	43230819.68802472
0.7125942488131658	43412711.01652232
0.7127130145213015	43594632.660241835
0.7128318000237216	43776584.62423474
0.7129506053237256	43958566.913555235
0.7130694304246129	44064820.00221668
0.7131882753296837	43906208.790553465
0.7133071400422386	43747571.14368827
0.7134260245655789	43588907.05721537
0.7135449289030065	43430216.52672801
0.7136638530578235	43271499.54781899
0.7137827970333332	43112756.11607992
0.7139017608328388	42953986.227102265
0.7140207444596443	42866812.17650501
0.7141397479170543	42907390.67175623
0.7142587712083737	42947975.93008994
0.7143778143369084	42988567.95263341
0.7144968773059646	43029166.74051397
0.7146159601188489	43069772.29485917
0.7147350627788687	43110384.61679676
0.7148541852893318	43151003.70745466
0.7149733276535467	43273036.87443264
0.7150924898748222	43477179.68855899
0.715211671956468	43681356.52648774
0.7153308739017941	43885567.39388963
0.715450095714111	44089812.29643599
0.71556933739673	44294091.23979948
0.7156885989529628	44498404.2296535
0.7158078803861218	44702751.27167279
0.7159271816995193	44729981.37731166
0.7160465028964692	44653239.43987198
0.7161658439802853	44576484.71210941
0.7162852049542819	44499717.191892214
0.7164045858217744	44422936.87708828
0.716523986586078	44346143.76556523
0.7166434072505089	44269337.85519031
0.716762847818384	44192519.1438303
0.7168823082930204	44271826.08197124
0.7170017886777359	44397081.5062336
0.7171212889758488	44522357.80639993
0.7172408091906781	44647654.98594964
0.7173603493255433	44772973.048362665
0.7174799093837642	44898311.997119345
0.7175994893686615	45023671.83570088
0.7177190892835562	45149052.56758878
0.7178387091317702	45360957.29878336
0.7179583489166254	45581580.77732982
0.7180780086414448	45802241.02645621
0.7181976883095517	46022938.052290775
0.7183173879242699	46243671.860963
0.718437107488924	46464442.45860339
0.7185568470068389	46685249.851343475
0.7186766064813399	46899930.93532204
0.7187963859157535	46960556.46729918
0.7189161853134061	47021192.10353164
0.719036004677625	47081837.845703475
0.7191558440117378	47142493.695498966
0.7192757033190732	47203159.65460285
0.7193955826029597	47263835.72469984
0.7195154818667269	47324521.90747523
0.7196354011137046	47347236.00302581
0.7197553403472235	47195077.03879689
0.7198752995706147	47042892.71474065
0.7199952787872098	46890683.026630305
0.720115278000341	46738447.97023861
0.7202352972133411	46586187.5413375
0.7203553364295432	46433901.73569847
0.7204753956522815	46281590.549091615
0.7205954748848902	46148972.61322514
0.7207155741307044	46059804.796859615
0.7208356933930594	45970622.11919152
0.7209558326752915	45881424.57774379
0.7210759919807375	45792212.170039035
0.7211961713127342	45702984.89359978
0.7213163706746197	45613742.74594764
0.7214365900697322	45524485.724604316
0.7215568295014103	45620154.37466473
0.721677088972994	45936504.19838926
0.7217973684878227	46252906.747083895
0.7219176680492374	46569362.029537015
0.7220379876605789	46885870.05453701
0.722158327325189	47202430.83087464
0.7222786870464099	47519044.36734148
0.7223990668275843	47835710.6727312
0.7225194666720555	47945415.51384512
0.7226398865831676	47908422.463219635
0.7227603265642646	47871423.247085795
0.722880786618692	47834417.864415854
0.7230012667497951	47797406.31418216
0.7231217669609201	47760388.59535676
0.7232422872554135	47723364.706911586
0.7233628276366229	47686334.64781827
0.7234833881078956	47549363.73468173
0.7236039686725803	47374428.65082322
0.7237245693340255	47199464.41111768
0.7238451900955812	47024471.0107052
0.7239658309605971	46849448.444726184
0.7240864919324239	46674396.708319284
0.7242071730144127	46499315.79662296
0.724327874209915	46324205.70477506
0.7244485955222832	46490628.01016314
0.7245693369548704	46713552.37454669
0.7246900985110294	46936513.89299064
0.7248108801941148	47159512.57168826
0.7249316820074803	47382548.416831575
0.7250525039544815	47605621.43461612
0.7251733460384739	47828731.63123699
0.7252942082628137	48051423.724455155
0.7254150906308574	48010344.39326107
0.7255359931459625	47969258.21551178
0.7256569158114868	47928165.19006618
0.7257778586307888	47887065.315782994
0.7258988216072273	47845958.59152077
0.7260198047441617	47804845.01613788
0.7261408080449525	47763724.58849236
0.72626183151296	47698983.14206472
0.7263828751515454	47477301.22770062
0.7265039389640706	47255582.36635084
0.726625022953898	47033826.55185736
0.7267461271243904	46812033.77806136
0.7268672514789111	46590204.038803205
0.7269883960208241	46368337.32792204
0.7271095607534942	46146433.63925557
0.7272307456802866	45913441.968063824
0.7273519508045666	45650560.05035719
0.7274731761297006	45387634.318997726
0.7275944216590555	45124664.76668305
0.7277156873959987	44861651.38610955
0.7278369733438982	44598594.1699722
0.727958279506122	44335493.110966206
0.7280796058860397	44072348.20178338
0.7282009524870207	43892584.58446008
0.7283223193124353	43836186.09262754
0.7284437063656539	43779778.20104648
0.7285651136500483	43723360.90815006
0.7286865411689898	43666934.21237161
0.7288079889258514	43610498.112143725
0.7289294569240056	43554052.60589927
0.7290509451668262	43497597.692070365
0.7291724536576875	43565025.14177269
0.7292939823999636	43735121.49971918
0.7294155313970303	43905246.207059
0.7295371006522632	44075399.268516675
0.7296586901690385	44245580.688817784
0.7297802999507332	44415790.47268887
0.7299019300007252	44586028.62485771
0.7300235803223919	44756295.150051445
0.7301452509191123	44847844.22226044
0.7302669417942654	44903061.882919826
0.7303886529512311	44958288.746522665
0.7305103843933897	45013524.81460279
0.7306321361241218	45068770.08869422
0.7307539081468093	45124024.57033143
0.7308757004648336	45179288.261048794
0.7309975130815778	45234561.16238134
0.7311193460004248	45327643.72363545
0.7312411992247582	45429299.33746331
0.7313630727579622	45530971.89389345
0.7314849666034219	45632661.39574977
0.7316068807645224	45734367.84585633
0.7317288152446498	45836091.247037955
0.7318507700471907	45937831.60211983
0.7319727451755319	46039588.91392752
0.732094740633061	46165676.12973124
0.7322167564231665	46292878.93652987
0.7323387925492371	46420102.94379631
0.7324608490146619	46547348.15506392
0.732582925822831	46674614.57386677
0.7327050229771347	46801902.20373928
0.7328271404809642	46929211.048216894
0.7329492783377112	47032889.151231654
0.7330714365507675	46904060.74003813
0.7331936151235259	46775210.85744276
0.7333158140593796	46646339.49986711
0.7334380333617229	46517446.66373167
0.7335602730339499	46388532.345456816
0.7336825330794556	46259596.54146222
0.7338048135016354	46130639.2481672
0.7339271143038857	45924369.37673252
0.734049435489603	45459086.992549874
0.7341717770621846	44993727.06130311
0.7342941390250283	44528289.57006805
0.7344165213815324	44062774.50591795
0.734538924135096	43597181.855923146
0.7346613472891185	43131511.60715396
0.734783790847	42665763.746676475
0.7349062548121412	42167056.8766567
0.7350287391879431	41610147.698118374
0.7351512439778078	41053145.70138248
0.7352737691851374	40496050.87098113
0.735396314813335	39938863.19144089
0.7355188808658037	39381582.647288315
0.7356414673459482	38824209.2230439
0.7357640742571725	38266742.90322918
0.7358867016028818	37957450.90380691
0.7360093493864824	37893293.635595165
0.7361320176113801	37829125.67450547
0.736254706280982	37764947.01875559
0.7363774153986956	37700757.66656301
0.7365001449679286	37636557.61614519
0.7366228949920899	37572346.86571892
0.7367456654745885	37508125.41350091
0.7368684564188344	37359557.667948365
0.7369912678282374	37163300.46309981
0.7371140997062088	36967010.54871703
0.7372369520561599	36770687.91934833
0.7373598248815024	36574332.56954185
0.7374827181856494	36377944.4938434
0.7376056319720137	36181523.68679899
0.7377285662440091	35985070.14295337
0.7378515210050496	35903037.44889149
0.7379744962585505	35855426.68671088
0.738097492007927	35807807.98940325
0.7382205082565949	35760181.355646096
0.738343545007971	35712546.78411666
0.7384666022654723	35664904.27349193
0.7385896800325165	35617253.82244883
0.7387127783125219	35569595.42966382
0.7388358971089073	35449650.289622955
0.7389590364250921	35322435.41526435
0.7390821962644963	35195199.3384266
0.7392053766305403	35067942.05557621
0.7393285775266454	34940663.5631786
0.7394517989562333	34813363.8576988
0.7395750409227259	34686042.93560162
0.7396983034295463	34570572.70744138
0.739821586480118	34719182.79838402
0.7399448900778645	34867817.65767484
0.7400682142262109	35016477.28944267
0.740191558928582	35165161.69781564
0.7403149241884034	35313870.88692322
0.7404383100091014	35462604.860895686
0.7405617163941028	35611363.62386372
0.7406851433468352	35665771.81703925
0.7408085908707264	35288444.48930392
0.7409320589692048	34911054.27368081
0.7410555476456997	34533601.15968813
0.7411790569036406	34156085.13684339
0.7413025867464579	33778506.1946614
0.7414261371775823	33400864.32265561
0.7415497082004452	33023159.510338113
0.7416732998184786	32712123.392405625
0.741796912035115	32544187.95251846
0.7419205448537874	32376224.523391347
0.7420441982779297	32208233.100359388
0.742167872310976	32040213.678756766
0.7422915669563612	31872166.253917217
0.7424152822175206	31704090.821173575
0.7425390180978901	31535987.37585791
0.7426627746009065	31335148.96188693
0.7427865517300065	31094404.95898534
0.7429103494886282	30853620.832083017
0.7430341678802096	30612796.574493058
0.7431580069081896	30371932.17952685
0.7432818665760077	30131027.640494477
0.7434057468871037	29890082.950705796
0.7435296478449182	29649098.10346896
0.7436535694528923	29440859.279931463
0.7437775117144678	29255028.90115414
0.7439014746330868	29069167.550647303
0.7440254582121922	28883275.223248553
0.7441494624552276	28697351.91379516
0.7442734873656368	28511397.617123567
0.7443975329468645	28325412.328069046
0.7445215992023557	28139396.04146637
0.7446456861355559	27925153.655940477
0.7447697937499119	27700489.238541573
0.7448939220488703	27475787.377073154
0.7450180710358784	27251048.065294687
0.7451422407143843	27026271.296964232
0.7452664310878367	26801457.065838844
0.7453906421596846	26576605.365675177
0.7455148739333779	26351716.190228075
0.7456391264123667	26177893.38056683
0.7457633996001021	26012212.823036905
0.7458876935000356	25846504.652080428
0.7460120081156189	25680768.86309577
0.7461363434503048	25515005.451479543
0.7462606995075466	25349214.412627894
0.7463850762907978	25183395.741936684
0.7465094738035127	25017280.152831513
0.7466338920491467	24780694.212745383
0.746758331031155	24544068.841669004
0.7468827907529935	24307404.03303106
0.7470072712181189	24070699.78025834
0.7471317724299886	23833956.076776776
0.7472562943920602	23597172.916011468
0.7473808371077922	23360350.29138582
0.7475054005806435	23124036.25025504
0.7476299848140736	22891058.620740168
0.7477545898115426	22658042.161620323
0.7478792155765113	22424986.866423905
0.7480038621124406	22191892.72867847
0.7481285294227926	21958759.74191013
0.7482532175110298	21725587.89964375
0.7483779263806148	21492377.195403982
0.7485026560350116	21265843.182583135
0.7486274064776842	21057446.825379953
0.748752177712097	20849015.73545095
0.7488769697417158	20640549.907006517
0.749001782570006	20432049.334257595
0.7491266162004343	20223514.011413272
0.7492514706364677	20014943.932681717
0.7493763458815739	19806339.092270162
0.7495012419392209	19591794.137139827
0.7496261588128773	19368723.784113873
0.7497510965060128	19145616.25269559
0.7498760550220971	18922471.53668882
0.7500010343646007	18699289.629896015
0.7501260345369949	18476070.526118636
0.750251055542751	18252814.219157543
0.7503760973853414	18029520.702811822
0.7505011600682389	17794376.87827603
0.750626243594917	17549330.200896744
0.7507513479688495	17304242.68240493
0.7508764731935109	17059114.315993283
0.7510016192723765	16813945.09485384
0.7511267862089218	16568735.01217777
0.7512519740066232	16323484.061154496
0.7513771826689577	16078192.234972581
0.7515024121994025	15842632.53184691
0.7516276626014359	15611590.292926902
0.751752933878536	15380509.546967478
0.7518782260341824	15149390.287550317
0.7520035390718548	14918232.508256484
0.7521288729950334	14687036.202666221
0.7522542278071992	14455801.364358341
0.7523796035118337	14224527.986910632
0.7525050001124189	13997945.281369004
0.7526304176124378	13772353.311076054
0.7527558560153731	13546723.742121678
0.752881315324709	13321056.568238923
0.7530067955439299	13095351.78316044
0.7531322966765205	12869609.380618079
0.7532578187259665	12643829.354341893
0.7533833616957542	12418011.698061332
0.75350892558937	12182694.233675128
0.7536345104103016	11946892.6113486
0.7537601161620366	11711051.688751806
0.7538857428480638	11475171.45933435
0.7540113904718717	11239251.916545628
0.7541370590369503	11003293.05383316
0.7542627485467898	10767294.864643428
0.7543884590048808	10533049.299666274
0.7545141904147151	10316634.294449318
0.7546399427797842	10100183.220065175
0.7547657161035808	9883696.070501933
0.754891510389598	9667172.83974711
0.7550173256413296	9450613.521787073
0.7551431618622698	9234018.110607428
0.7552690190559135	9017386.600192634
0.7553948972257561	8803435.64211333
0.7555207963752938	8598567.822288891
0.755646716508023	8393665.857827932
0.755772657627441	8188729.743039493
0.7558986197370455	7983759.472231892
0.756024602840335	7778755.039712542
0.7561506069408084	7573716.439787773
0.7562766320419653	7368643.6667628335
0.7564026781473054	7169328.870370386
0.75652874526033	6980173.50309695
0.7566548333845401	6790986.6099288715
0.7567809425234375	6601768.185611999
0.7569070726805247	6412518.224891181
0.7570332238593047	6223236.722510269
0.7571593960632813	6033923.673212112
0.7572855892959586	5844579.071739063
0.7574118035608413	5669541.927946684
0.7575380388614347	5508503.9377427865
0.7576642952012449	5347439.107873796
0.7577905725837782	5186347.433866724
0.7579168710125422	5025228.911247032
0.7580431904910444	4864083.535540176
0.7581695310227928	4702911.302270906
0.7582958926112967	4541712.206962554
0.7584222752600652	4395006.513144725
0.7585486789726085	4256617.708193486
0.7586751037524372	4118205.838441368
0.7588015496030628	3979770.900044022
0.7589280165279966	3841312.889157217
0.7590545045307512	3702831.801935265
0.7591810136148396	3564327.6345321117
0.7593075437837755	3425800.3831008533
0.7594340950410726	3305096.5783613785
0.7595606673902461	3189550.588678635
0.7596872608348112	3073985.341330829
0.7598138753782836	2958400.833108592
0.75994051102418	2842797.0608015433
0.7600671677760173	2727174.0211992003
0.7601938456373134	2611531.711090168
0.7603205446115863	2495870.12726285
0.7604472647023548	2398866.798775741
0.7605740059131385	2303703.8475437732
0.7607007682474575	2208525.0358198415
0.7608275517088319	2113330.3609608333
0.7609543563007835	2018119.8203224707
0.7610811820268336	1922893.411260726
0.7612080288905045	1827651.1311309868
0.7613348968953197	1733121.2746713725
0.7614617860448022	1653518.7174361835
0.7615886963424764	1573902.8931080136
0.7617156277918667	1494273.799475866
0.7618425803964988	1414631.434328047
0.7619695541598982	1334975.7954527251
0.7620965490855914	1255306.8806376494
0.7622235651771058	1175624.6876700122
0.7623506024379685	1099753.8942537166
0.7624776608717082	1040634.445277763
0.7626047404818536	981505.1430603106
0.7627318412719337	922365.985959257
0.762858963245479	863216.9723319826
0.7629861064060198	804058.100535765
0.7631132707570876	744889.3689275201
0.7632404563022137	685710.7758640602
0.7633676630449308	631506.1723971596
0.7634948909887717	587901.5024822003
0.7636221401372697	544289.5651223118
0.7637494104939593	500670.3591061557
0.7638767020623748	457043.8832223931
0.7640040148460518	413410.1362592669
0.7641313488485262	369769.1170049818
0.7642587040733344	326120.82424743805
0.7643860805240132	289605.63572367665
0.7645134782041005	261604.97389787412
0.7646408971171346	233599.645295089
0.764768337266654	205589.649137547
0.7648957986561985	177574.984647303
0.7650232812893079	149555.6510463144
0.7651507851695227	121531.64755639198
0.7652783103003843	93502.97339922472
0.7654058566854343	76252.42648334915
0.7655334243282153	66347.7637217829
