#wavelength	surface flux
0.8	92951293.04431687
0.8002000000000001	94402860.3182019
0.8004000500000003	96336763.44839355
0.8006001500125003	98276018.45585841
0.8008003000500035	100215758.27707528
0.8010005001250161	102155983.03324834
0.8012007502500472	104096692.84560765
0.8014010504376099	107255545.3727854
0.8016014007002193	110823065.68730727
0.8018018010503944	114391477.88190772
0.8020022515006572	117960782.17955844
0.8022027520635323	121530978.8032805
0.8024033027515483	124973901.61263555
0.8026039035772362	128292087.11145832
0.8028045545531306	131611102.15665595
0.8030052556917691	134930946.95561647
0.803206007005692	138251621.71577382
0.8034068085074435	140988502.46673644
0.8036076602095705	142087280.11193454
0.8038085621246229	143186332.45154306
0.8040095142651542	144285659.55423716
0.8042105166437206	145385261.4887066
0.8044115692728815	146524882.829457
0.8046126721651998	149374270.29473433
0.8048138253332411	152224370.1068757
0.8050150287895745	155075182.4439727
0.805216282546772	157926707.48415327
0.8054175866174087	160778945.40559235
0.8056189410140631	164589170.59251118
0.8058203457493168	168671319.02338833
0.8060218008357541	172754487.991368
0.8062233062859632	176838677.75159165
0.8064248621125346	180923888.55925256
0.806626468328063	185034704.11861047
0.8068281249451449	189167661.59057173
0.8070298319763813	193301652.30190602
0.8072315894343755	197436676.51091507
0.8074333973317341	201572734.47597793
0.8076352556810671	205930479.31176952
0.8078371644949874	210820461.8536905
0.8080391237861113	215711666.89124817
0.8082411335670578	220604094.7300622
0.8084431938504498	225497745.675841
0.8086453046489125	230484025.91383177
0.8088474659750746	237173366.43630615
0.8090496778415686	243864379.29391998
0.809251940261029	250557064.90474346
0.8094542532460944	257251423.6869753
0.8096566168094059	263947456.0588951
0.8098590309636085	270596321.6521291
0.8100614957213493	277235417.8768092
0.8102640110952797	283876173.87554634
0.8104665770980536	290518590.06328577
0.8106691937423283	297162666.85507464
0.8108718610407639	302970375.6483376
0.8110745790060241	308138739.5640247
0.8112773476507757	313308395.5706952
0.8114801669876885	318479343.9913661
0.8116830370294355	323651585.1491391
0.8118859577886929	328953697.3094646
0.8120889292781401	334524197.00634265
0.8122919515104597	340096089.3281446
0.8124950244983374	345669374.62302727
0.8126981482544621	351244053.2392329
0.8129013227915257	356983338.90426517
0.8131045481222237	364592877.5350716
0.8133078242592543	372204318.5505366
0.8135111512153191	379817662.4262533
0.813714529003123	387432909.63793993
0.8139179576353739	395050060.6614308
0.8141214371247829	402503357.71965426
0.8143249674840641	409926374.7888509
0.814528548725935	417351247.6123104
0.8147321808631167	424777976.6539858
0.8149358639083326	432206562.3779193
0.8151395978743097	437948754.7254912
0.8153433827737784	442551729.7350763
0.8155472186194719	447155855.48841214
0.8157511054241268	451761132.27318543
0.815955043200483	456367560.3771581
0.8161590319612831	460129319.9407508
0.8163630717192736	462342157.62534624
0.8165671624872033	464555548.5193605
0.8167713042778252	466769492.76110035
0.8169754971038948	468983990.48890173
0.8171797409781707	468824921.8716999
0.8173840359134155	449712478.4842759
0.8175883819223938	430595256.986027
0.8177927790178745	411473256.18239254
0.8179972272126291	392346474.87855226
0.8182017265194322	373214911.87940526
0.8184062769510622	369182358.4589687
0.8186108785203001	367473047.0138778
0.8188155312399301	365763308.24092805
0.8190202351227402	364053142.03328305
0.819224990181521	362342548.28408724
0.8194297964290664	368399177.61740774
0.8196346538781738	379139258.8078327
0.8198395625416434	389882025.018551
0.8200445224322789	400627476.9208265
0.820249533562887	411375615.1860744
0.8204545959462778	415580025.69289404
0.8206597095952644	409249209.4229994
0.8208648745226633	402916810.4490323
0.8210700907412941	396582828.3753228
0.8212753582639793	390247262.80610126
0.8214806771035456	385170833.7659775
0.8216860472728215	387860709.4016407
0.8218914687846397	390551257.50621295
0.822096941651836	393242478.2478127
0.822302465887249	395934371.7945963
0.8225080415037209	398626938.3147681
0.8227136685140968	404310080.4990917
0.8229193469312254	410334059.8939302
0.8231250767679583	416359545.2836194
0.8233308580371503	422386537.04465276
0.8235366907516598	428415035.5536308
0.8237425749243477	436934982.06284845
0.8239485105680789	446776770.9944802
0.824154497695721	456621020.3733386
0.824360536320145	466467730.81454355
0.8245666264542252	476316902.9333583
0.8247727681108388	481830327.0123825
0.8249789613028664	481131995.74429274
0.8251852060431922	480433489.8933854
0.825391502344703	479734809.4160156
0.8255978502202894	479035954.2685259
0.8258042496828445	476354398.674503
0.8260107007452654	464043896.8532382
0.8262172034204517	451730317.4065307
0.8264237577213068	439413659.5649582
0.8266303636607373	427093922.5589199
0.8268370212516525	414771105.6186362
0.8270437305069654	412012651.1514821
0.8272504914395923	410001140.5748043
0.8274573040624523	407989127.12048185
0.8276641683884679	405976610.6627976
0.8278710844305652	403963591.07599646
0.8280780522016729	402600364.5638094
0.8282850717147234	401534046.4929689
0.8284921429826521	400467461.8426118
0.8286992660183978	399400610.54609126
0.8289064408349024	398333492.53674734
0.8291136674451112	396976340.01565975
0.8293209458619727	395253465.61615765
0.8295282760984382	393530160.49805796
0.829735658167463	391806424.5536768
0.8299430920820048	390082257.6753117
0.8301505778550254	388976327.2973694
0.8303581154994891	390339403.76677823
0.8305657050283641	391702821.0053058
0.8307733464546212	393066579.09814197
0.8309810397912352	394430678.1305035
0.8311887850511829	395795118.18762046
0.8313965822474458	399404028.3873223
0.8316044313930077	403118002.7138525
0.8318123325008561	406832905.53396785
0.8320202855839813	410548737.0797864
0.8322282906553774	414265497.58349174
0.8324363477280413	417195892.98782736
0.8326444568149735	419810059.0875313
0.8328526179291771	422424878.72875714
0.8330608310836596	425040352.07489717
0.8332690962914304	427656479.2893703
0.8334774135655034	428517589.25343585
0.833685782918895	427417772.01780134
0.8338942043646247	426317679.82785857
0.834102677915716	425217312.61486757
0.834311203585195	424116670.31007415
0.8345197813860912	423104781.3165328
0.8347284113314379	422392317.5125042
0.8349370934342709	421679675.592525
0.8351458277076294	420966855.51206666
0.8353546141645565	420253857.22658706
0.8355634528180977	419540680.6915363
0.8357723436813022	421727557.8644773
0.8359812867672226	423950792.2321124
0.8361902820889144	426174582.40833825
0.8363993296594368	428398928.53210884
0.8366084294918518	430623830.74241114
0.8368175815992247	430425552.97553694
0.8370267859946247	429392465.99643713
0.8372360426911234	428359120.7455929
0.8374453517017962	427325517.15843606
0.8376547130397217	426291655.17038256
0.8378641267179816	427382538.4459836
0.8380735927496613	430582250.53827035
0.8382831111478488	433782762.5585784
0.8384926819256358	436984074.70688975
0.8387023050961173	440186187.18324095
0.8389119806723914	441963541.9154267
0.8391217086675596	439729354.19228876
0.8393314890947265	437494607.9222217
0.8395413219670003	435259302.96558696
0.8397512072974922	433023439.18271154
0.8399611450993165	430884345.6182584
0.8401711353855914	433578049.7924652
0.8403811781694378	436272427.3927148
0.8405912734639802	438967478.58736515
0.8408014212823464	441663203.5448155
0.8410116216376671	444359602.43350476
0.8412218745430766	440457682.2906023
0.8414321800117124	434634734.31281537
0.8416425380567154	428810330.5980311
0.8418529486912297	422984470.7823168
0.8420634119284025	417157154.50165343
0.8422739277813847	416737304.41740054
0.8424844962633302	421082820.44247097
0.842695117387396	425429422.8465422
0.8429057911667428	429777111.90121454
0.8431165176145345	434125887.87815267
0.8433272967439382	431362416.9822863
0.8435381285681244	411246860.90116113
0.8437490131002665	391126275.93102014
0.8439599503535415	371000660.81464916
0.84417094034113	350870014.2944845
0.8443819830762154	331396618.2714757
0.8445930785719846	325260104.74984103
0.8448042268416277	319122057.0998293
0.8450154278983382	312982474.9379059
0.8452266817553128	306841357.8804425
0.8454379884257517	300698705.543714
0.8456493479228583	299932861.082695
0.845860760259839	300461994.9240424
0.846072225449904	300991261.0488501
0.8462837435062666	301520659.49018914
0.8464953144421433	302050190.28113884
0.8467069382707537	303444856.8515487
0.8469186150053215	305514115.67058384
0.847130344659073	307583891.8043244
0.8473421272452377	309654185.3820963
0.8475539627770492	311724996.53326476
0.8477658512677435	314050219.0010726
0.8479777927305605	316915132.43027115
0.8481897871787432	319780762.0878264
0.848401834625538	322647108.1527976
0.8486139350841944	325514170.8042832
0.8488260885679657	328276105.01491356
0.8490382950901076	329748514.2168095
0.8492505546638802	331221291.52100664
0.8494628673025462	332694437.0195294
0.8496752330193721	334167950.8044289
0.8498876518276269	335641832.9677726
0.8501001237405839	336251647.92534983
0.8503126487715191	336689058.79373175
0.850525226933712	337126579.0148305
0.8507378582404455	337564208.6159846
0.8509505427050057	338001947.6245392
0.8511632803406821	337735513.5708283
0.8513760711607672	336986708.36408955
0.8515889151785576	336237715.9560479
0.8518018124073523	335488536.2999049
0.8520147628604541	334739169.3488483
0.8522277665511693	334636567.55303663
0.8524408234928071	335730400.5482676
0.8526539336986805	336824507.00174767
0.8528670971821053	337918886.9818412
0.8530803139564007	339013540.55692846
0.8532935840348901	340014095.7345795
0.8535069074308987	340217880.773086
0.8537202841577566	340421716.7578524
0.8539337142287962	340625603.7016149
0.8541471976573534	340829541.6171133
0.8543607344567677	341033530.51709056
0.8545743246403821	335879311.7054045
0.8547879682215422	329872851.61420935
0.8550016652135977	323864889.9079922
0.8552154156299011	317855426.2113481
0.8554292194838088	311844460.1487755
0.8556430767886797	307899065.9439381
0.855856987557877	305207758.4925355
0.8560709518047664	302515778.2142718
0.8562849695427177	299823124.94093746
0.8564990407851035	297129798.5042841
0.8567131655452999	293749391.823455
0.8569273438366862	289243439.4073535
0.8571415756726455	284736360.5031471
0.8573558610665638	280228154.829213
0.8575702000318304	275718822.1038654
0.8577845925818384	273074830.0477466
0.857999038729984	282088823.7493252
0.8582135384896665	291105070.9493272
0.858428091874289	300123572.21112967
0.8586426988972576	309144328.0982452
0.8588573595719821	318167339.1743356
0.8590720739118751	316389174.57044333
0.8592868419303532	313336808.5789378
0.8595016636408359	310283679.4959345
0.8597165390567462	307229787.13066137
0.8599314681915105	304175131.29229623
0.8601464510585584	299655473.9178216
0.860361487671323	294357479.3878117
0.8605765780432408	289058160.3591709
0.8607917221877518	283757516.50076854
0.8610069201182988	278455547.48140305
0.8612221718483286	277214489.7663514
0.8614374773912907	281829385.87207174
0.8616528367606385	286445435.7018172
0.8618682499698288	291062639.54402304
0.8620837170323213	295680997.6871887
0.8622992379615795	299187375.7083674
0.8625148127710699	297186153.09931386
0.8627304414742627	295184430.1846079
0.8629461240846313	293182206.83917296
0.8631618606156526	291179482.9379015
0.8633776510808066	289176258.3556551
0.8635934954935769	288710323.55841285
0.8638093938674504	288370327.7535316
0.8640253462159173	288030246.94969904
0.8642413525524714	287690081.12566555
0.8644574128906095	287349830.2601762
0.8646735272438323	281976225.9767411
0.8648896956256433	274260669.04181015
0.8651059180495498	266543183.2176451
0.8653221945290621	258823768.0220314
0.8655385250776946	251102422.97260797
0.8657549097089641	249227615.6811048
0.8659713484363913	254839664.48999265
0.8661878412735006	260453116.3110853
0.866404388233819	266067971.4951325
0.8666209893308775	271684230.39297307
0.8668376445782103	276599043.5986162
0.8670543539893549	278646398.85457534
0.8672711175778525	280694265.94935
0.8674879353572469	282742645.01089597
0.8677048073410862	284791536.1672082
0.8679217335429217	286840939.54631066
0.8681387139763074	280508052.7909952
0.8683557486548015	273757146.543595
0.8685728375919655	267004552.5696247
0.8687899808013633	260250270.44717556
0.8690071782965637	253494299.7541871
0.869224430091138	252289537.19508877
0.8694417361986609	253343940.26648748
0.8696590966327107	254398606.93865377
0.869876511406869	255453537.27748817
0.8700939805347206	256508731.3489068
0.8703115040298544	258979895.60382482
0.870529081905862	263070239.59644702
0.8707467141763385	267161606.17506605
0.8709644008548827	271253995.59532946
0.8711821419550964	275347408.1129455
0.8713999374905854	279431701.3563888
0.871617787474958	283482009.9471973
0.8718356919218269	287533331.11515725
0.8720536508448075	291585665.11340946
0.8722716642575187	295639012.19515884
0.8724897321735832	299693372.6136805
0.8727078546066265	304958569.6254674
0.8729260315702784	310243488.31308293
0.873144263078171	315529728.23036474
0.8733625491439405	320817289.70762634
0.8735808897812266	326106173.0752593
0.8737992850036719	327820768.3543375
0.874017734824923	328269369.90359217
0.8742362392586293	328718083.603234
0.874454798318444	329166909.4813007
0.8746734120180236	329615847.56583685
0.8748920803710283	329941667.29635775
0.875110803391121	330143733.48257136
0.8753295810919689	330345850.18533164
0.875548413487242	330548017.4172676
0.8757673005906139	330750235.19101155
0.8759862424157616	332437721.36941046
0.8762052389763657	338423177.36040235
0.8764242902861098	344410129.7153879
0.8766433963586814	350398578.80846375
0.8768625572077712	356388525.01381475
0.8770817728470732	362358275.7896418
0.8773010432902849	366635790.85237473
0.8775203685511077	370914375.29387945
0.8777397486432454	375194029.3814892
0.8779591835804065	379474753.38262606
0.8781786733763015	383756547.5647576
0.8783982180446457	386788269.62612176
0.878617817599157	389448558.0892774
0.8788374720535569	392109511.62454754
0.8790571814215703	394771130.39820087
0.8792769457169257	397433414.5765477
0.879496764953355	399495412.6924018
0.8797166391445934	401017631.31802094
0.8799365683043796	402540230.4982966
0.8801565524464557	404063210.3283673
0.8803765915845676	405586570.9033969
0.8805966857324639	406530086.2889939
0.880816834903897	406016483.7117825
0.881037039112623	405502752.7339266
0.8812572983724012	404988893.3233263
0.8814776126969944	404474905.44787306
0.8816979821001687	404237065.2192
0.8819184065956938	410502752.45686054
0.8821388861973429	416770006.116337
0.8823594209188923	423038826.5892222
0.882580010774122	429309214.2672228
0.8828006557768155	435581169.54214644
0.8830213559407598	445618752.2305074
0.8832421112797452	456605543.467737
0.8834629218075651	467595081.4027694
0.8836837875380171	478587366.72228885
0.8839047084849018	489582400.11313987
0.884125684662023	492416847.04321027
0.8843467160831886	488710131.98477155
0.8845678027622095	485002490.24756825
0.8847889447129001	481293921.59993
0.8850101419490785	477584425.8101304
0.8852313944845657	466769429.89386725
0.885452702333187	440400691.8539398
0.8856740655087704	414025361.6295061
0.8858954840251476	387643437.5725235
0.8861169578961539	361254918.0345388
0.886338487135628	336220082.8202345
0.886560071757412	329280807.5978673
0.8867817117753515	322339797.5566948
0.8870034072032955	315397052.26300883
0.8872251580550963	308452571.28300756
0.8874469643446101	301506354.182757
0.8876688260856963	302110144.9351635
0.8878907432922178	304277016.92152834
0.8881127159780409	306444430.6258884
0.8883347441570356	308612386.18367714
0.8885568278430749	310780883.73035306
0.8887789670500358	312961443.21047556
0.8890011617917983	315150719.6794044
0.8892234120822464	317340543.46745145
0.8894457179352669	319530914.7114438
0.8896680793647509	321721833.5482488
0.8898904963845921	325337684.3929537
0.8901129690086883	331672201.89708114
0.8903354972509405	338008303.030583
0.8905580811252535	344345988.18937325
0.8907807206455347	350685257.7694446
0.8910034158256963	356837383.9678919
0.8912261666796527	361304391.1024286
0.8914489732213227	365772514.9887503
0.8916718354646282	370241755.90604794
0.8918947534234944	374712114.13357055
0.8921177271118502	379183589.9506473
0.8923407565436284	379431862.5964852
0.8925638417327644	378991095.6841296
0.8927869826931977	378550218.5800458
0.8930101794388711	378109231.25668603
0.8932334319837308	377668133.6864955
0.8934567403417267	377653539.61483175
0.8936801045268123	377904032.1356618
0.8939035245529441	378154587.2796219
0.8941270004340824	378405205.0623681
0.894350532184191	378655885.49955994
0.8945741198172371	380585834.65778846
0.8947977633471915	385301029.236825
0.8950214627880284	390017402.61450607
0.8952452181537254	394734955.0855288
0.8954690294582639	399453686.9446721
0.8956928967156286	404250411.28909963
0.8959168199398075	409546822.53876436
0.8961407991447926	414844557.89124286
0.8963648343445789	420143617.6775593
0.896588925553165	425444002.22881943
0.8968130727845534	430745711.87621796
0.8970372760527496	436443150.811382
0.8972615353717629	442191361.97177315
0.8974858507556059	447941010.1849551
0.8977102222182949	453692095.8101888
0.8979346497738496	459444619.206832
0.8981591334362931	466229956.8868637
0.8983836732196523	473581026.2678373
0.8986082691379572	480933933.4161512
0.8988329212052417	488288678.79125226
0.8990576294355432	495645262.85270345
0.8992823938429022	502864582.43311685
0.8995072144413631	509878877.42736775
0.8997320912449734	516894925.9953647
0.8999570242677847	523912728.57550204
0.9001820135238516	530932285.60628486
0.9004070590272328	538070766.11294
0.9006321607919896	545825268.9443165
0.9008573188321878	553581710.4014087
0.9010825331618959	561340090.9688616
0.9013078037951865	569100411.1314574
0.9015331307461353	576862671.37409
0.9017585140288219	579933779.3789693
0.9019839536573292	582601426.9132608
0.9022094496457435	585269741.3594339
0.9024350020081551	587938722.8842214
0.9026606107586572	590608371.6543894
0.902886275911347	594108523.1472422
0.9031119974803249	598009588.059507
0.9033377754796951	601911628.238
0.903563609923565	605814643.9265358
0.903789500826046	609718635.3689965
0.9040154482012526	614743993.7425928
0.904241452063303	621221977.0832453
0.9044675124263188	627701579.9197314
0.9046936293044254	634182802.6569256
0.9049198027117517	640665645.6998073
0.9051460326624297	646393625.9742801
0.9053723191705955	648901755.6042628
0.9055986622503881	651410512.2666506
0.9058250619159507	653919896.1182041
0.9060515181814298	656429907.315722
0.9062780310609752	658940546.0160376
0.9065046005687405	663354147.6775695
0.906731226718883	667874978.4017054
0.9069579095255627	672396939.3335164
0.907184649002944	676920030.7555606
0.907411445165195	681444252.950465
0.9076382980264862	690636471.1638589
0.907865207600993	701769127.8074867
0.9080921739028933	712904567.6152719
0.9083191969463691	724042791.2830074
0.9085462767456058	735183799.5066652
0.9087734133147922	743524643.8462038
0.9090006066681211	748630132.4013462
0.909227856819788	753736897.3286207
0.9094551637839932	758844938.947134
0.9096825275749393	763954257.5760504
0.9099099482068329	769567859.3802615
0.9101374256938848	776970556.0822759
0.9103649600503083	784375103.4584624
0.9105925512903209	791781501.9714913
0.9108201994281437	799189752.0841564
0.9110479044780008	806599854.2593411
0.9112756664541204	817843926.3541694
0.911503485370734	829178525.9585853
0.9117313612420768	840515959.2129022
0.9119592940823873	851856226.8255292
0.912187283905908	863199329.505063
0.9124153307268845	870415966.4355618
0.9126434345595664	876135712.4359832
0.9128715954182063	881856888.3728992
0.9130998133170609	887579494.6038023
0.9133280882703902	893303531.4862629
0.913556420292458	904010835.4870259
0.9137848093975312	919858657.4518679
0.9140132555998806	935710441.3721993
0.9142417589137806	951566188.2385116
0.9144703193535092	967425899.0415506
0.9146989369333476	981498696.2364712
