#wavelength	surface flux
0.8	9886833.054300942
0.8002000000000001	9986825.529373288
0.8004000500000003	10093202.478470288
0.8006001500125003	10199670.258772701
0.8008003000500035	10306164.656020198
0.8010005001250161	10412685.676867057
0.8012007502500472	10519233.327968972
0.8014010504376099	10613770.308168514
0.8016014007002193	10704298.792248165
0.8018018010503944	10794849.908448838
0.8020022515006572	10885423.662428599
0.8022027520635323	10976020.059846777
0.8024033027515483	11066409.568698464
0.8026039035772362	11156596.736960554
0.8028045545531306	11246806.452014714
0.8030052556917691	11337038.71949768
0.803206007005692	11427293.545047438
0.8034068085074435	11516976.41401414
0.8036076602095705	11605015.176119773
0.8038085621246229	11693075.947915861
0.8040095142651542	11781158.734904954
0.8042105166437206	11869263.542590765
0.8044115692728815	11957122.389330188
0.8046126721651998	12033476.601374157
0.8048138253332411	12109849.901971078
0.8050150287895745	12186242.295893217
0.805216282546772	12262653.787913816
0.8054175866174087	12339084.38280738
0.8056189410140631	12416326.419119159
0.8058203457493168	12493812.047786443
0.8060218008357541	12571317.047860792
0.8062233062859632	12648841.4241852
0.8064248621125346	12726385.181603635
0.806626468328063	12806752.017211325
0.8068281249451449	12889546.976995964
0.8070298319763813	12972362.635520648
0.8072315894343755	13055198.9979599
0.8074333973317341	13138056.069489796
0.8076352556810671	13210689.926449884
0.8078371644949874	13258683.094615068
0.8080391237861113	13306688.261072304
0.8082411335670578	13354705.428821124
0.8084431938504498	13402734.600861933
0.8086453046489125	13450137.592105234
0.8088474659750746	13485670.51522037
0.8090496778415686	13521212.321566332
0.809251940261029	13556763.013363857
0.8094542532460944	13592322.592834359
0.8096566168094059	13627891.06219969
0.8098590309636085	13680896.096364064
0.8100614957213493	13737993.470879948
0.8102640110952797	13795105.119739467
0.8104665770980536	13852231.046511224
0.8106691937423283	13909371.254764697
0.8108718610407639	13965196.112255473
0.8110745790060241	14020018.223240793
0.8112773476507757	14074854.039753908
0.8114801669876885	14129703.565221138
0.8116830370294355	14184566.803069701
0.8118859577886929	14232173.088699892
0.8120889292781401	14264689.780476978
0.8122919515104597	14297214.601427006
0.8124950244983374	14329747.553582272
0.8126981482544621	14362288.638975572
0.8129013227915257	14397934.711702056
0.8131045481222237	14469049.12551596
0.8133078242592543	14540181.317933327
0.8135111512153191	14611331.293398779
0.813714529003123	14682499.056358105
0.8139179576353739	14753684.611258185
0.8141214371247829	14872129.828372512
0.8143249674840641	14999765.649174292
0.814528548725935	15127433.378931193
0.8147321808631167	15255133.025620706
0.8149358639083326	15382864.597221853
0.8151395978743097	15479949.812041368
0.8153433827737784	15556331.75851059
0.8155472186194719	15632732.800466402
0.8157511054241268	15709152.942682685
0.815955043200483	15785592.189934578
0.8161590319612831	15867728.26443264
0.8163630717192736	15960288.598062623
0.8165671624872033	16052872.071775913
0.8167713042778252	16145478.691357723
0.8169754971038948	16238108.462594472
0.8171797409781707	16301247.02867305
0.8173840359134155	16128779.081877397
0.8175883819223938	15956268.018095244
0.8177927790178745	15783713.826547045
0.8179972272126291	15611116.496450916
0.8182017265194322	15438476.017022436
0.8184062769510622	15430313.833788246
0.8186108785203001	15447467.027095238
0.8188155312399301	15464624.508700533
0.8190202351227402	15481786.279676247
0.819224990181521	15498952.341094697
0.8194297964290664	15721413.790503485
0.8196346538781738	16067669.69952818
0.8198395625416434	16414012.172529992
0.8200445224322789	16760441.2311502
0.820249533562887	17106956.89703496
0.8204545959462778	17361216.062537845
0.8206597095952644	17466915.019163296
0.8208648745226633	17572640.400527984
0.8210700907412941	17678392.213237997
0.8212753582639793	17784170.463901084
0.8214806771035456	17877236.86662764
0.8216860472728215	17891843.13452036
0.8218914687846397	17906453.053980052
0.822096941651836	17921066.625919618
0.822302465887249	17935683.851252157
0.8225080415037209	17950304.730891038
0.8227136685140968	17969209.27289301
0.8229193469312254	17988604.411292966
0.8231250767679583	18008004.39847753
0.8233308580371503	18027409.235658873
0.8235366907516598	18046818.924049526
0.8237425749243477	18151679.79638976
0.8239485105680789	18301854.9417541
0.824154497695721	18452067.630904682
0.824360536320145	18602317.873227578
0.8245666264542252	18752605.67811105
0.8247727681108388	18874253.946450118
0.8249789613028664	18954861.61009281
0.8251852060431922	19035489.42565149
0.825391502344703	19116137.39816402
0.8255978502202894	19196805.532669753
0.8258042496828445	19275275.171131972
0.8260107007452654	19342989.333523165
0.8262172034204517	19410720.424454886
0.8264237577213068	19478468.448159363
0.8266303636607373	19546233.40886979
0.8268370212516525	19614015.310820363
0.8270437305069654	19641679.035648033
0.8272504914395923	19666213.377419904
0.8274573040624523	19690753.85277722
0.8276641683884679	19715300.463253357
0.8278710844305652	19739853.21038214
0.8280780522016729	19794626.421682753
0.8282850717147234	19863224.238742016
0.8284921429826521	19931839.205255475
0.8286992660183978	20000471.325510617
0.8289064408349024	20069120.60379577
0.8291136674451112	20127388.803983547
0.8293209458619727	20172559.911104683
0.8295282760984382	20217742.311002538
0.829735658167463	20262936.006500423
0.8299430920820048	20308141.00042212
0.8301505778550254	20355239.382699575
0.8303581154994891	20409861.500363752
0.8305657050283641	20464497.2735574
0.8307733464546212	20519146.705694303
0.8309810397912352	20573809.80018933
0.8311887850511829	20628486.560457878
0.8313965822474458	20738375.363497008
0.8316044313930077	20850853.68724023
0.8318123325008561	20963360.130564496
0.8320202855839813	21075894.70049954
0.8322282906553774	21188457.40407707
0.8324363477280413	21255307.31210656
0.8326444568149735	21303758.793057125
0.8328526179291771	21352222.38687787
0.8330608310836596	21400698.096597143
0.8332690962914304	21449185.925243784
0.8334774135655034	21474524.261214133
0.833685782918895	21473996.647612408
0.8338942043646247	21473468.902107287
0.834102677915716	21472941.024665784
0.834311203585195	21472413.015254926
0.8345197813860912	21485789.242271543
0.8347284113314379	21545972.21776123
0.8349370934342709	21606170.23899476
0.8351458277076294	21666383.309733517
0.8353546141645565	21726611.433740065
0.8355634528180977	21786854.614777587
0.8357723436813022	21802394.04193784
0.8359812867672226	21817385.1905378
0.8361902820889144	21832380.0869249
0.8363993296594368	21847378.732036103
0.8366084294918518	21862381.12680859
0.8368175815992247	21946238.383082
0.8370267859946247	22053829.633444544
0.8372360426911234	22161447.781619646
0.8374453517017962	22269092.83433178
0.8376547130397217	22376764.79830708
0.8378641267179816	22455757.123811193
0.8380735927496613	22506284.831092283
0.8382831111478488	22556825.170300167
0.8384926819256358	22607378.144592825
0.8387023050961173	22657943.7571291
0.8389119806723914	22704015.45706182
0.8391217086675596	22737415.759382024
0.8393314890947265	22770824.411777787
0.8395413219670003	22804241.41633665
0.8397512072974922	22837666.775146674
0.8399611450993165	22870690.01157692
0.8401711353855914	22883337.2773058
0.8403811781694378	22895987.704851106
0.8405912734639802	22908641.295003302
0.8408014212823464	22921298.04855304
0.8410116216376671	22933957.966291167
0.8412218745430766	22967978.594859444
0.8414321800117124	23008221.95026813
0.8416425380567154	23048475.366515696
0.8418529486912297	23088738.84611733
0.8420634119284025	23129012.391588826
0.8422739277813847	23242056.462165136
0.8424844962633302	23419233.579505302
0.842695117387396	23596454.991124578
0.8429057911667428	23773720.708096765
0.8431165176145345	23951030.741498277
0.8433272967439382	24059104.351734042
0.8435381285681244	23998210.017915618
0.8437490131002665	23937300.460513752
0.8439599503535415	23876375.675722573
0.84417094034113	23815435.65973515
0.8443819830762154	23761017.24557738
0.8445930785719846	23838270.363646008
0.8448042268416277	23915542.794994112
0.8450154278983382	23992834.54445004
0.8452266817553128	24070145.616843328
0.8454379884257517	24147476.017004725
0.8456493479228583	24278410.111310348
0.845860760259839	24422280.697400123
0.846072225449904	24566187.251136422
0.8462837435062666	24710129.781511188
0.8464953144421433	24854108.297518626
0.8467069382707537	24956544.183496926
0.8469186150053215	25026596.417479657
0.847130344659073	25096666.1645209
0.8473421272452377	25166753.42899884
0.8475539627770492	25236858.215292968
0.8477658512677435	25304176.461692963
0.8479777927305605	25365557.472556334
0.8481897871787432	25426953.8286724
0.848401834625538	25488365.533877537
0.8486139350841944	25549792.592008933
0.8488260885679657	25605376.533198062
0.8490382950901076	25589561.655653343
0.8492505546638802	25573742.82438923
0.8494628673025462	25557920.038417306
0.8496752330193721	25542093.296748865
0.8498876518276269	25526262.59839503
0.8501001237405839	25234628.047565047
0.8503126487715191	24887866.085265845
0.850525226933712	24541017.432476263
0.8507378582404455	24194082.067523487
0.8509505427050057	23847059.968729272
0.8511632803406821	23498947.10169326
0.8513760711607672	23150059.641581334
0.8515889151785576	22801084.959603835
0.8518018124073523	22452023.033956137
0.8520147628604541	22102873.84282723
0.8522277665511693	22020501.791151587
0.8524408234928071	22431642.645967446
0.8526539336986805	22842886.28599712
0.8528670971821053	23254232.736936823
0.8530803139564007	23665682.024488777
0.8532935840348901	24088569.97467386
0.8535069074308987	24607300.27307281
0.8537202841577566	25126160.254046798
0.8539337142287962	25645149.950016085
0.8541471976573534	26164269.39340904
0.8543607344567677	26683518.61666294
0.8545743246403821	26862187.574148417
0.8547879682215422	26986792.544353392
0.8550016652135977	27111428.6658009
0.8552154156299011	27236095.94627878
0.8554292194838088	27360794.393576868
0.8556430767886797	27449789.546937805
0.855856987557877	27517109.923587482
0.8560709518047664	27584447.13033128
0.8562849695427177	27651801.17137679
0.8564990407851035	27719172.050932582
0.8567131655452999	27779454.966294065
0.8569273438366862	27828111.4891478
0.8571415756726455	27876780.17613226
0.8573558610665638	27925461.030288484
0.8575702000318304	27974154.054658193
0.8577845925818384	28025541.218734294
0.857999038729984	28093693.780094672
0.8582135384896665	28161863.379595373
0.858428091874289	28230050.021495957
0.8586426988972576	28298253.710056994
0.8588573595719821	28366474.449540194
0.8590720739118751	28428940.88232592
0.8592868419303532	28490742.47090916
0.8595016636408359	28552559.509889543
0.8597165390567462	28614392.003129654
0.8599314681915105	28676239.95449309
0.8601464510585584	28632509.204826724
0.860361487671323	28532718.87786009
0.8605765780432408	28432903.60331175
0.8607917221877518	28333063.374944687
0.8610069201182988	28233198.18652056
0.8612221718483286	27620533.761289578
0.8614374773912907	26268482.665216006
0.8616528367606385	24916093.556368783
0.8618682499698288	23563366.35024349
0.8620837170323213	22210300.962316893
0.8622992379615795	21085487.918619905
0.8625148127710699	21091601.026095644
0.8627304414742627	21097715.661848255
0.8629461240846313	21103831.826259803
0.8631618606156526	21109949.519712456
0.8633776510808066	21116068.742588468
0.8635934954935769	21834658.002478577
0.8638093938674504	22611829.24181558
0.8640253462159173	23389194.773962386
0.8642413525524714	24166754.647492215
0.8644574128906095	24944508.910990264
0.8646735272438323	25247635.91088922
0.8648896956256433	25330033.444346555
0.8651059180495498	25412451.57718726
0.8653221945290621	25494890.314561095
0.8655385250776946	25577349.661619388
0.8657549097089641	25830335.71405432
0.8659713484363913	26301670.290457934
0.8661878412735006	26773122.700505864
0.866404388233819	27244692.973656245
0.8666209893308775	27716381.139374692
0.8668376445782103	28071775.117962137
0.8670543539893549	27952121.03201385
0.8672711175778525	27832437.032543987
0.8674879353572469	27712723.11207439
0.8677048073410862	27592979.263124634
0.8679217335429217	27473205.478212565
0.8681387139763074	27597820.895385794
0.8683557486548015	27734609.586850636
0.8685728375919655	27871432.47548851
0.8687899808013633	28008289.569848247
0.8690071782965637	28145180.878481753
0.869224430091138	28130425.54482971
0.8694417361986609	28053947.770076383
0.8696590966327107	27977450.87587938
0.869876511406869	27900934.857458826
0.8700939805347206	27824399.710033704
0.8703115040298544	27788081.63035379
0.870529081905862	27797756.08940472
0.8707467141763385	27807432.967070416
0.8709644008548827	27817112.263955526
0.8711821419550964	27826793.98066485
0.8713999374905854	27832675.1787394
0.871617787474958	27825432.584931888
0.8718356919218269	27818188.180475917
0.8720536508448075	27810941.964918833
0.8722716642575187	27803693.937807865
0.8724897321735832	27796444.098690115
0.8727078546066265	28013231.960482076
0.8729260315702784	28233482.395174835
0.873144263078171	28453787.89247603
0.8733625491439405	28674148.466151573
0.8735808897812266	28894564.12997062
0.8737992850036719	28894986.137303207
0.874017734824923	28817470.597414557
0.8742362392586293	28739935.678640965
0.874454798318444	28662381.376137685
0.8746734120180236	28584807.685058784
0.8748920803710283	28525348.085009295
0.875110803391121	28484096.044053912
0.8753295810919689	28442833.690088265
0.875548413487242	28401561.020534128
0.8757673005906139	28360278.032812603
0.8759862424157616	28452634.766608108
0.8762052389763657	28931737.294186004
0.8764242902861098	29410959.597395457
0.8766433963586814	29890301.70618085
0.8768625572077712	30369763.650493577
0.8770817728470732	30843214.836015124
0.8773010432902849	30838120.70977678
0.8775203685511077	30833025.31000687
0.8777397486432454	30827928.636387024
0.8779591835804065	30822830.688598767
0.8781786733763015	30817731.46632357
0.8783982180446457	30486648.90067084
0.878617817599157	30058509.99204815
0.8788374720535569	29630264.048698515
0.8790571814215703	29201911.043863144
0.8792769457169257	28773450.950776555
0.879496764953355	28584818.389295805
0.8797166391445934	28611855.676185224
0.8799365683043796	28638899.722396363
0.8801565524464557	28665950.529619057
0.8803765915845676	28693008.099543583
0.8805966857324639	28762115.49940334
0.880816834903897	28936839.752761617
0.881037039112623	29111607.687183306
0.8812572983724012	29286419.313588582
0.8814776126969944	29461274.642900538
0.8816979821001687	29636447.401661076
0.8819184065956938	29818107.26529173
0.8821388861973429	29999812.54388848
0.8823594209188923	30181563.2488047
0.882580010774122	30363359.39139707
0.8828006557768155	30545200.983025186
0.8830213559407598	30728380.217164006
0.8832421112797452	30911930.243029393
0.8834629218075651	31095526.15640113
0.8836837875380171	31279167.96875127
0.8839047084849018	31462855.691554528
0.884125684662023	31418949.538896725
0.8843467160831886	31192608.18503909
0.8845678027622095	30966210.245842993
0.8847889447129001	30739755.707162052
0.8850101419490785	30513244.554846484
0.8852313944845657	30569978.363665096
0.885452702333187	31246838.786957618
0.8856740655087704	31923868.425355863
0.8858954840251476	32601067.321163528
0.8861169578961539	33278435.51669483
0.886338487135628	33887970.50136854
0.886560071757412	33592720.233047426
0.8867817117753515	33297396.15215924
0.8870034072032955	33001998.2402507
0.8872251580550963	32706526.47886453
0.8874469643446101	32410980.849537827
0.8876688260856963	32283934.61002702
0.8878907432922178	32191745.008863352
0.8881127159780409	32099532.360299457
0.8883347441570356	32007296.658573307
0.8885568278430749	31915037.897921823
0.8887789670500358	31664279.279772084
0.8890011617917983	31301038.71186604
0.8892234120822464	30937707.333817855
0.8894457179352669	30574285.122925457
0.8896680793647509	30210772.056480043
0.8898904963845921	29966684.31857646
0.8901129690086883	29950575.62734087
0.8903354972509405	29934462.90893248
0.8905580811252535	29918346.16234447
0.8907807206455347	29902225.38656984
0.8910034158256963	29883788.87722744
0.8912261666796527	29844688.149234105
0.8914489732213227	29805577.64605876
0.8916718354646282	29766457.36525758
0.8918947534234944	29727327.304386243
0.8921177271118502	29688187.46099971
0.8923407565436284	29510133.416671917
0.8925638417327644	29309375.77159789
0.8927869826931977	29108567.937112525
0.8930101794388711	28907709.900668554
0.8932334319837308	28706801.649715506
0.8934567403417267	28660305.278855864
0.8936801045268123	28709777.300987765
0.8939035245529441	28759261.691125166
0.8941270004340824	28808758.45236012
0.894350532184191	28858267.58778537
0.8945741198172371	29185314.66291583
0.8947977633471915	29972686.540809367
0.8950214627880284	30760255.261672344
0.8952452181537254	31548020.874715067
0.8954690294582639	32335983.429161526
0.8956928967156286	33041972.960090015
0.8959168199398075	33214884.867814068
0.8961407991447926	33387840.0035151
0.8963648343445789	33560838.37800004
0.896588925553165	33733880.00207852
0.8968130727845534	33906964.88656303
0.8970372760527496	33851905.98055456
0.8972615353717629	33768282.513133295
0.8974858507556059	33684638.13984516
0.8977102222182949	33600972.855463736
0.8979346497738496	33517286.65476117
0.8981591334362931	33637925.31202595
0.8983836732196523	33870346.03087937
0.8986082691379572	34102824.85491235
0.8988329212052417	34335361.79865134
0.8990576294355432	34567956.87662646
0.8992823938429022	34700431.567162685
0.8995072144413631	34683986.623771615
0.8997320912449734	34667537.569144696
0.8999570242677847	34651084.402254134
0.9001820135238516	34634627.12207184
0.9004070590272328	34645652.27084997
0.9006321607919896	34800774.01318842
0.9008573188321878	34955934.53596261
0.9010825331618959	35111133.84886742
0.9013078037951865	35266371.96160048
0.9015331307461353	35421648.883861646
0.9017585140288219	35774192.983408526
0.9019839536573292	36143813.00867491
0.9022094496457435	36513525.43894734
0.9024350020081551	36883330.297327764
0.9026606107586572	37253227.60692266
0.902886275911347	37446176.32990706
0.9031119974803249	37553827.175502375
0.9033377754796951	37661504.933809094
0.903563609923565	37769209.611555345
0.903789500826046	37876941.215471104
0.9040154482012526	37884202.351483375
0.904241452063303	37761279.69493807
0.9044675124263188	37638326.30772866
0.9046936293044254	37515342.18217247
0.9049198027117517	37392327.31058483
0.9051460326624297	37303817.97428286
0.9053723191705955	37362350.06360683
0.9055986622503881	37420896.78595307
0.9058250619159507	37479458.1449799
0.9060515181814298	37538034.14434652
0.9062780310609752	37596624.78771295
0.9065046005687405	37604043.8057674
0.906731226718883	37608609.14774034
0.9069579095255627	37613175.63104877
0.907184649002944	37617743.255978025
0.907411445165195	37622312.02281352
0.9076382980264862	37812712.65567733
0.907865207600993	38080336.044134185
0.9080921739028933	38348026.33843807
0.9083191969463691	38615783.555315495
0.9085462767456058	38883607.71149726
0.9087734133147922	38960789.19051784
0.9090006066681211	38817717.974671304
0.909227856819788	38674610.99102099
0.9094551637839932	38531468.23062458
0.9096825275749393	38388289.6845381
0.9099099482068329	38265412.23879714
0.9101374256938848	38214781.751094304
0.9103649600503083	38164138.60576956
0.9105925512903209	38113482.7996585
0.9108201994281437	38062814.32959586
0.9110479044780008	38012133.19241575
0.9112756664541204	38252808.52347188
0.911503485370734	38500213.41157439
0.9117313612420768	38747680.15089894
0.9119592940823873	38995208.756908245
0.912187283905908	39242799.24506913
0.9124153307268845	39281149.137469284
0.9126434345595664	39243544.04630381
0.9128715954182063	39205929.55386558
0.9130998133170609	39168305.65780422
0.9133280882703902	39130672.355768844
0.913556420292458	39132481.70083431
0.9137848093975312	39174978.98552251
