#wavelength	surface flux
0.8	83268.334883504
0.8002000000000001	84711.28786381087
0.8004000500000003	86250.24288721575
0.8006001500125003	87790.54872072322
0.8008003000500035	89331.23963068918
0.8010005001250161	90872.31571338334
0.8012007502500472	92413.77706509596
0.8014010504376099	93949.21880432972
0.8016014007002193	95482.89893210727
0.8018018010503944	97016.96247991675
0.8020022515006572	98551.40954361387
0.8022027520635323	100086.24021907561
0.8024033027515483	101712.97561159436
0.8026039035772362	103429.80471031864
0.8028045545531306	105147.06301631768
0.8030052556917691	106864.75063689405
0.803206007005692	108582.86767937405
0.8034068085074435	110310.27202744098
0.8036076602095705	112062.93787293542
0.8038085621246229	113816.04188488986
0.8040095142651542	115569.58417284835
0.8042105166437206	117323.56484637826
0.8044115692728815	119079.85178368948
0.8046126721651998	120916.9138115774
0.8048138253332411	122754.4351049708
0.8050150287895745	124592.41577868929
0.805216282546772	126430.85594757569
0.8054175866174087	128269.75572650335
0.8056189410140631	130148.8186969877
0.8058203457493168	132039.59008937486
0.8060218008357541	133930.8341746077
0.8062233062859632	135822.5510708628
0.8064248621125346	137714.74089634066
0.806626468328063	139681.40961317028
0.8068281249451449	141712.13206428278
0.8070298319763813	143743.36219601057
0.8072315894343755	145775.10013526975
0.8074333973317341	147807.3460090145
0.8076352556810671	149819.43723801582
0.8078371644949874	151782.2929056845
0.8080391237861113	153745.63928727058
0.8082411335670578	155709.47650545082
0.8084431938504498	157673.80468293768
0.8086453046489125	159635.9149755955
0.8088474659750746	161548.07968601878
0.8090496778415686	163460.72243762223
0.809251940261029	165373.8433499122
0.8094542532460944	167287.44254243188
0.8096566168094059	169201.5201347475
0.8098590309636085	171254.82479226726
0.8100614957213493	173341.11800601598
0.8102640110952797	175427.93279306844
0.8104665770980536	177515.2692838185
0.8106691937423283	179603.127608692
0.8108718610407639	181754.87771726496
0.8110745790060241	183955.6213379943
0.8112773476507757	186156.91514463074
0.8114801669876885	188358.75927471826
0.8116830370294355	190561.15386583703
0.8118859577886929	192718.98529837443
0.8120889292781401	194783.65294227583
0.8122919515104597	196848.83675308808
0.8124950244983374	198914.53685985313
0.8126981482544621	200980.75339164457
0.8129013227915257	203081.2198876131
0.8131045481222237	205568.46420253476
0.8133078242592543	208056.33032853543
0.8135111512153191	210544.81842106694
0.813714529003123	213033.92863562188
0.8139179576353739	215523.66112773088
0.8141214371247829	218699.79311903715
0.8143249674840641	222009.7028510975
0.814528548725935	225320.4400605889
0.8147321808631167	228632.00495438717
0.8149358639083326	231944.39773940784
0.8151395978743097	235091.11572607496
0.8153433827737784	238126.1240494746
0.8155472186194719	241161.89112495398
0.8157511054241268	244198.41714220165
0.815955043200483	247235.70229095573
0.8161590319612831	250537.83612947256
0.8163630717192736	254324.7070780158
0.8165671624872033	258112.52474429202
0.8167713042778252	261901.2893649885
0.8169754971038948	265691.001176842
0.8171797409781707	269280.7647103698
0.8173840359134155	271267.6130423342
0.8175883819223938	273254.95808637934
0.8177927790178745	275242.79996668664
0.8179972272126291	277231.1388074645
0.8182017265194322	279219.97473295056
0.8184062769510622	283021.46550082485
0.8186108785203001	287102.7708798956
0.8188155312399301	291185.0965853056
0.8190202351227402	295268.4428721465
0.819224990181521	299352.8099955565
0.8194297964290664	303399.64082878426
0.8196346538781738	307424.2429761342
0.8198395625416434	311449.85127401934
0.8200445224322789	315476.46597398067
0.820249533562887	319504.08732761577
0.8204545959462778	323491.4249191297
0.8206597095952644	327413.3031304642
0.8208648745226633	331336.1618113547
0.8210700907412941	335260.0012069147
0.8212753582639793	339184.82156231964
0.8214806771035456	342938.69675799913
0.8216860472728215	345634.2345495091
0.8218914687846397	348330.44622546714
0.822096941651836	351027.3319543456
0.822302465887249	353724.8919046546
0.8225080415037209	356423.1262449527
0.8227136685140968	359349.7839982076
0.8229193469312254	362303.0276708023
0.8231250767679583	365257.0096543161
0.8233308580371503	368211.7301333242
0.8235366907516598	371167.1892924542
0.8237425749243477	376052.79022559396
0.8239485105680789	381962.2300186312
0.824154497695721	387873.1471716129
0.824360536320145	393785.54205388395
0.8245666264542252	399699.41503487533
0.8247727681108388	404927.1259966291
0.8249789613028664	409171.3132853342
0.8251852060431922	413416.5616208652
0.825391502344703	417662.8712684781
0.8255978502202894	421910.2424935068
0.8258042496828445	426260.85437092884
0.8260107007452654	431108.79248593707
0.8262172034204517	435957.94258546917
0.8264237577213068	440808.30497252743
0.8266303636607373	445659.8799501846
0.8268370212516525	450512.6678215838
0.8270437305069654	454423.4087014228
0.8272504914395923	458261.41761313553
0.8274573040624523	462100.3860270771
0.8276641683884679	465940.3141831188
0.8278710844305652	469781.20232120407
0.8280780522016729	474259.75969303976
0.8282850717147234	479030.47521439835
0.8284921429826521	483802.3834146324
0.8286992660183978	488575.4845919202
0.8289064408349024	493349.77904449904
0.8291136674451112	498055.4275321805
0.8293209458619727	502674.18827353796
0.8295282760984382	507294.1037050746
0.829735658167463	511915.17411547445
0.8299430920820048	516537.39979347104
0.8301505778550254	521224.97163658036
0.8303581154994891	526169.9188893589
0.8305657050283641	531116.1023789556
0.8307733464546212	536063.5224144208
0.8309810397912352	541012.179304903
0.8311887850511829	545962.073359598
0.8313965822474458	552476.1515015987
0.8316044313930077	559064.4027830702
0.8318123325008561	565654.3011273684
0.8320202855839813	572245.8469462494
0.8322282906553774	578839.0406515856
0.8324363477280413	584438.2466703127
0.8326444568149735	589638.0129554394
0.8328526179291771	594839.0791821313
0.8330608310836596	600041.4456753876
0.8332690962914304	605245.1127602605
0.8334774135655034	609951.9970480746
0.833685782918895	614103.6821919025
0.8338942043646247	618256.405257014
0.834102677915716	622410.1665028946
0.834311203585195	626564.9661890833
0.8345197813860912	631233.8213665254
0.8347284113314379	637630.706252696
0.8349370934342709	644029.1903600845
0.8351458277076294	650429.2740884922
0.8353546141645565	656830.9578378425
0.8355634528180977	663234.2420081275
0.8357723436813022	668608.2304599704
0.8359812867672226	673970.8334634074
0.8361902820889144	679334.7771175925
0.8363993296594368	684700.0617576927
0.8366084294918518	690066.6877189549
0.8368175815992247	696957.7529292031
0.8370267859946247	704375.1113605849
0.8372360426911234	711794.324131572
0.8374453517017962	719215.3917057513
0.8376547130397217	726638.3145468232
0.8378641267179816	733633.9862067305
0.8380735927496613	740205.6211812734
0.8382831111478488	746778.899064556
0.8384926819256358	753353.8202673061
0.8387023050961173	759930.3852003623
0.8389119806723914	766457.6086821344
0.8391217086675596	772842.9738523838
0.8393314890947265	779229.9353639208
0.8395413219670003	785618.4936158364
0.8397512072974922	792008.6490073192
0.8399611450993165	798406.0288272348
0.8401711353855914	805084.4373182988
0.8403811781694378	811764.5154114838
0.8405912734639802	818446.2635241938
0.8408014212823464	825129.682073935
0.8410116216376671	831814.771478313
0.8412218745430766	838469.8397406766
0.8414321800117124	845117.3505004892
0.8416425380567154	851766.5231379949
0.8418529486912297	858417.3580686618
0.8420634119284025	865069.8557080555
0.8422739277813847	873854.8845069656
0.8424844962633302	884519.4869876389
0.842695117387396	895186.7556189187
0.8429057911667428	905856.6910673568
0.8431165176145345	916529.2939996622
0.8433272967439382	925737.7810229398
0.8435381285681244	931370.6771067771
0.8437490131002665	937004.981414634
0.8439599503535415	942640.6942985645
0.84417094034113	948277.8161107199
0.8443819830762154	954036.9605560895
0.8445930785719846	962227.3110899037
0.8448042268416277	970419.7092113469
0.8450154278983382	978614.1554323194
0.8452266817553128	986810.6502648464
0.8454379884257517	995009.1942210826
0.8456493479228583	1004392.2988737602
0.845860760259839	1014062.512177898
0.846072225449904	1023735.1430353617
0.8462837435062666	1033410.1920505418
0.8464953144421433	1043087.6598279813
0.8467069382707537	1051831.448699908
0.8469186150053215	1059847.7636649406
0.847130344659073	1067866.0827087166
0.8473421272452377	1075886.4063322458
0.8475539627770492	1083908.7350366889
0.8477658512677435	1091402.346522222
0.8479777927305605	1097770.9114292192
0.8481897871787432	1104141.0684774418
0.848401834625538	1110512.8180649297
0.8486139350841944	1116886.1605898107
0.8488260885679657	1122672.7221617005
0.8490382950901076	1121288.6566694053
0.8492505546638802	1119904.2451607364
0.8494628673025462	1118519.4875491909
0.8496752330193721	1117134.3837482403
0.8498876518276269	1115748.9336713415
0.8501001237405839	1081319.124943348
0.8503126487715191	1040284.5435637095
0.850525226933712	999239.7035387488
0.8507378582404455	958184.6023037822
0.8509505427050057	917119.2372934831
0.8511632803406821	883753.8115550482
0.8513760711607672	855660.123437193
0.8515889151785576	827559.4118972647
0.8518018124073523	799451.675179475
0.8520147628604541	771336.9115275224
0.8522277665511693	765592.024422691
0.8524408234928071	801229.0824806241
0.8526539336986805	836875.0498030813
0.8528670971821053	872529.9286173712
0.8530803139564007	908193.7211513229
0.8532935840348901	947515.2076916879
0.8535069074308987	1017662.319834302
0.8537202841577566	1087826.9687550105
0.8539337142287962	1158009.1588379573
0.8541471976573534	1228208.8944683808
0.8543607344567677	1298426.1800327247
0.8545743246403821	1328188.1559786939
0.8547879682215422	1351530.0190432814
0.8550016652135977	1374877.717573632
0.8552154156299011	1398231.2530286165
0.8554292194838088	1421590.6268674815
0.8556430767886797	1439937.8721231204
0.855856987557877	1455242.9262938127
0.8560709518047664	1470551.806728038
0.8562849695427177	1485864.5143823775
0.8564990407851035	1501181.050213635
0.8567131655452999	1515699.5116735394
0.8569273438366862	1528907.6570935536
0.8571415756726455	1542119.1045499253
0.8573558610665638	1555333.854868166
0.8575702000318304	1568551.9088739718
0.8577845925818384	1581796.4484767884
0.857999038729984	1595189.0968020554
0.8582135384896665	1608585.0932894005
0.858428091874289	1621984.4387758682
0.8586426988972576	1635387.134098704
0.8588573595719821	1648793.180095375
0.8590720739118751	1661515.6970517193
0.8592868419303532	1674160.4093678535
0.8595016636408359	1686808.282862067
0.8597165390567462	1699459.3183246497
0.8599314681915105	1712113.5165461013
0.8601464510585584	1724207.4040932702
0.860361487671323	1736005.2269277363
0.8605765780432408	1747805.9992179077
0.8607917221877518	1759609.7217011612
0.8610069201182988	1771416.3951150326
0.8612221718483286	1782738.7693287665
0.8614374773912907	1793361.536069393
0.8616528367606385	1803986.9585017017
0.8618682499698288	1814615.0372896255
0.8620837170323213	1825245.7730972443
0.8622992379615795	1836426.5105008357
0.8625148127710699	1850318.6384117512
0.8627304414742627	1864214.2393546456
0.8629461240846313	1878113.3141977778
0.8631618606156526	1892015.8638096221
0.8633776510808066	1905921.8890588668
0.8635934954935769	1920353.8566278503
0.8638093938674504	1934832.2596563995
0.8640253462159173	1949314.2822857052
0.8642413525524714	1963799.9254206677
0.8644574128906095	1978289.1899664113
0.8646735272438323	1992991.398853983
0.8648896956256433	2007794.623835756
0.8651059180495498	2022601.5496237753
0.8653221945290621	2037412.1771432275
0.8655385250776946	2052226.5073195803
0.8657549097089641	2067378.0603432695
0.8659713484363913	2082960.3792301528
0.8661878412735006	2098546.593696765
0.866404388233819	2114136.7047169916
0.8666209893308775	2129730.7132649664
0.8668376445782103	2145160.484775092
0.8670543539893549	2159907.867236972
0.8672711175778525	2174658.9365444775
0.8674879353572469	2189413.693619293
0.8677048073410862	2204172.1393833836
0.8679217335429217	2218934.274758924
0.8681387139763074	2235382.428000457
0.8683557486548015	2251918.2670160597
0.8685728375919655	2268458.2399914367
0.8687899808013633	2285002.347960022
0.8690071782965637	2301550.59195562
0.869224430091138	2318054.6675867233
0.8694417361986609	2334543.2138201585
0.8696590966327107	2351035.8821901483
0.869876511406869	2367532.673727232
0.8700939805347206	2384033.589462192
0.8703115040298544	2400703.2268121513
0.870529081905862	2417565.2128566895
0.8707467141763385	2434431.4143977333
0.8709644008548827	2451301.832489161
0.8711821419550964	2468176.4681851016
0.8713999374905854	2485090.891888611
0.871617787474958	2502132.306361278
0.8718356919218269	2519177.981187579
0.8720536508448075	2536227.9174325876
0.8722716642575187	2553282.1161616477
0.8724897321735832	2570340.5784403975
0.8727078546066265	2587527.529297296
0.8729260315702784	2604720.6667459086
0.873144263078171	2621918.1024788646
0.8733625491439405	2639119.8375707557
0.8735808897812266	2656325.8730964265
0.8737992850036719	2673583.1241289903
0.874017734824923	2690861.3056410314
0.8742362392586293	2708143.806698444
0.874454798318444	2725430.6283811196
0.8746734120180236	2742721.7717692144
0.8748920803710283	2760511.3850513687
0.875110803391121	2778802.0164949135
0.8753295810919689	2797097.2205963293
0.875548413487242	2815396.99849877
0.8757673005906139	2833701.3513456876
0.8759862424157616	2852257.501337445
0.8762052389763657	2871533.6361611104
0.8764242902861098	2890814.5900184684
0.8766433963586814	2910100.364114296
0.8768625572077712	2929390.9596536537
0.8770817728470732	2948677.9312944086
0.8773010432902849	2967310.239562992
0.8775203685511077	2985947.2059086696
0.8777397486432454	3004588.8314959104
0.8779591835804065	3023235.1174895703
0.8781786733763015	3041886.065054704
0.8783982180446457	3060386.727357952
0.878617817599157	3078845.9206933416
0.8788374720535569	3097309.728827057
0.8790571814215703	3115778.1529128007
0.8792769457169257	3134251.1941045667
0.879496764953355	3151909.9588644416
0.8797166391445934	3168836.8982012486
0.8799365683043796	3185768.0692728907
0.8801565524464557	3202703.4731373
0.8803765915845676	3219643.110852692
0.8805966857324639	3236389.6815736583
0.880816834903897	3252644.8757035267
0.881037039112623	3268904.1336319344
0.8812572983724012	3285167.4563748227
0.8814776126969944	3301434.8449484035
0.8816979821001687	3317585.9854343184
0.8819184065956938	3330908.929888853
0.8821388861973429	3344235.2050795145
0.8823594209188923	3357564.811838961
0.882580010774122	3370897.7510000914
0.8828006557768155	3384234.02339602
0.8830213559407598	3401852.8991079186
0.8832421112797452	3420552.4591922434
0.8834629218075651	3439256.6941665774
0.8836837875380171	3457965.605199661
0.8839047084849018	3476679.193460506
0.884125684662023	3500349.9590549036
0.8843467160831886	3527995.4377314076
0.8845678027622095	3555647.8277775813
0.8847889447129001	3583307.130921271
0.8850101419490785	3610973.3488907423
0.8852313944845657	3635455.3717998858
0.885452702333187	3652958.5632819445
0.8856740655087704	3670466.1305618705
0.8858954840251476	3687978.074733612
0.8861169578961539	3705494.3968913886
0.886338487135628	3722152.3472498762
0.886560071757412	3727333.4851483954
0.8867817117753515	3732515.918331389
0.8870034072032955	3737699.64712268
0.8872251580550963	3742884.6718461635
0.8874469643446101	3748070.992825831
0.8876688260856963	3767552.091589092
0.8878907432922178	3789996.2797437417
0.8881127159780409	3812446.0789454156
0.8883347441570356	3834901.4905969175
0.8885568278430749	3857362.5161013086
0.8887789670500358	3877012.4711945076
0.8890011617917983	3894669.2561987117
0.8892234120822464	3912330.4553991747
0.8894457179352669	3929996.0698994235
0.8896680793647509	3947666.1008033114
0.8898904963845921	3957777.7665954977
0.8901129690086883	3953461.9719919576
0.8903354972509405	3949145.0984397675
0.8905580811252535	3944827.145669186
0.8907807206455347	3940508.113410418
0.8910034158256963	3932850.699870234
0.8912261666796527	3895366.028848208
0.8914489732213227	3857871.9866584167
0.8916718354646282	3820368.57095804
0.8918947534234944	3782855.7794037755
0.8921177271118502	3745333.6096516456
0.8923407565436284	3586120.7699751672
0.8925638417327644	3407018.60012068
0.8927869826931977	3227871.654723669
0.8930101794388711	3048679.922590321
0.8932334319837308	2869443.3925239677
0.8934567403417267	2753450.326512621
0.8936801045268123	2676754.4740390116
0.8939035245529441	2600039.4476023363
0.8941270004340824	2523305.2424090216
0.894350532184191	2446551.853664428
0.8945741198172371	2458432.817542988
0.8947977633471915	2617338.0744376117
0.8950214627880284	2776283.057646453
0.8952452181537254	2935267.7771010017
0.8954690294582639	3094292.2427355098
0.8956928967156286	3256243.3688458144
0.8959168199398075	3436969.963632756
0.8961407991447926	3617741.74006844
0.8963648343445789	3798558.7094482277
0.896588925553165	3979420.8830702584
0.8968130727845534	4160328.272235718
0.8970372760527496	4237496.250648935
0.8972615353717629	4301697.972862157
0.8974858507556059	4365915.745505939
0.8977102222182949	4430149.572592866
0.8979346497738496	4494399.4581365995
0.8981591334362931	4572014.543924884
0.8983836732196523	4656949.363047292
0.8986082691379572	4741905.415874426
0.8988329212052417	4826882.707714767
0.8990576294355432	4911881.243878141
0.8992823938429022	4978948.346905162
0.8995072144413631	5019338.858864933
0.8997320912449734	5059739.46845268
0.8999570242677847	5100150.178192814
0.9001820135238516	5140570.990610386
0.9004070590272328	5178432.733360999
0.9006321607919896	5202835.450370261
0.9008573188321878	5227244.2680588
0.9010825331618959	5251659.187951749
0.9013078037951865	5276080.2115746755
0.9015331307461353	5300507.340453495
0.9017585140288219	5362437.176811204
0.9019839536573292	5427612.175037085
0.9022094496457435	5492803.467012475
0.9024350020081551	5558011.056810933
0.9026606107586572	5623234.948506819
0.902886275911347	5677812.298839138
0.9031119974803249	5727263.058890028
0.9033377754796951	5776726.181630932
0.903563609923565	5826201.670152498
0.903789500826046	5875689.527546229
0.9040154482012526	5917166.86497281
0.904241452063303	5948261.615752953
0.9044675124263188	5979364.140220784
0.9046936293044254	6010474.440319726
0.9049198027117517	6041592.517993709
0.9051460326624297	6072700.892537921
0.9053723191705955	6103742.598988473
0.9055986622503881	6134792.065865611
0.9058250619159507	6165849.295109468
0.9060515181814298	6196914.288660656
0.9062780310609752	6227987.04846021
0.9065046005687405	6215227.126442339
0.906731226718883	6200018.285353108
0.9069579095255627	6184805.642053625
0.907184649002944	6169589.195593315
0.907411445165195	6154368.945021375
0.9076382980264862	6198621.8464304
0.907865207600993	6267586.481168507
0.9080921739028933	6336568.357065278
0.9083191969463691	6405567.478431012
0.9085462767456058	6474583.849577121
0.9087734133147922	6526138.158784075
0.9090006066681211	6557516.529891299
0.909227856819788	6588902.745591259
0.9094551637839932	6620296.807845186
0.9096825275749393	6651698.718614668
0.9099099482068329	6676226.021548128
0.9101374256938848	6676299.0801212955
0.9103649600503083	6676372.156959107
0.9105925512903209	6676445.252066127
0.9108201994281437	6676518.365446925
0.9110479044780008	6676591.497106067
0.9112756664541204	6748540.775956273
0.911503485370734	6822153.27404545
0.9117313612420768	6895784.17525915
0.9119592940823873	6969433.48419813
0.912187283905908	7043101.205464369
0.9124153307268845	7058998.7294169525
0.9126434345595664	7053926.338615162
0.9128715954182063	7048852.679715675
0.9130998133170609	7043777.752401462
0.9133280882703902	7038701.55635542
0.913556420292458	7061092.853643747
0.9137848093975312	7111818.688989556
0.9140132555998806	7162557.205794196
0.9142417589137806	7213308.40722804
0.9144703193535092	7264072.296462274
