#wavelength	surface flux
0.7	1099655.9543978483
0.7001166666666666	1101136.9750259577
0.7002333527777778	1102103.3891247723
0.700350058336574	1103069.9642926028
0.7004667833462966	1104036.7005562934
0.7005835278101878	1105003.5979426971
0.7007002917314895	1105970.656478664
0.7008170751134447	1106937.8761910533
0.7009338779592968	1107905.2571067275
0.7010507002722901	1108813.546883564
0.7011675420556689	1109649.8818482372
0.701284403312678	1110486.35620207
0.7014012840465635	1111322.9699682961
0.7015181842605713	1112159.7231701496
0.701635103957948	1112996.6158308699
0.701752043141941	1113833.6479736997
0.701869001815798	1114670.8196218882
0.7019859799827672	1115905.4388338225
0.7021029776460976	1117416.7678365668
0.7022199948090387	1118928.3487274803
0.7023370314748403	1120440.1815485414
0.7024540876467528	1121952.266341739
0.702571163328027	1123464.6031490667
0.7026882585219152	1124977.1920125328
0.7028053732316688	1126490.0329741405
0.7029225074605406	1128369.7267476423
0.7030396612117841	1130391.2951355346
0.7031568344886527	1132413.200451492
0.7032740272944008	1134435.4427516675
0.7033912396322832	1136458.0220922274
0.7035084715055552	1138480.938529342
0.7036257229174727	1140504.192119197
0.7037429938712924	1142527.7829179855
0.7038602843702709	1143293.2538978313
0.7039775944176659	1143845.4089255321
0.7040949240167356	1144397.6559790713
0.7042122731707383	1144949.9950737858
0.7043296418829335	1145502.4262250164
0.7044470301565806	1146054.9494481052
0.70456443799494	1146607.5647583976
0.7046818654012724	1147160.272171242
0.7047993123788394	1148790.2475630378
0.7049167789309024	1150421.7307244984
0.7050342650607243	1152053.4857998218
0.7051517707715678	1153685.5128343236
0.7052692960666963	1155317.8118733303
0.705386840949374	1156950.382962176
0.7055044054228656	1158583.226146206
0.7056219894904361	1160054.8104200978
0.7057395931553511	1160500.127326797
0.705857216420877	1160945.518452981
0.7059748592902804	1161390.983811019
0.7060925217668288	1161836.523413284
0.70621020385379	1162282.137272149
0.7063279055544321	1162727.8253999902
0.7064456268720246	1163173.5878091867
0.7065633678098366	1163702.569290867
0.7066811283711383	1164460.6211814694
0.7067989085592001	1165218.7994140536
0.7069167083772933	1165977.104009676
0.7070345278286895	1166735.5349893982
0.707152366916661	1167494.0923742836
0.7072702256444803	1168252.7761853992
0.7073881040154211	1169011.5864438175
0.7075060020327569	1169933.2780069679
0.7076239196997625	1171092.1507624122
0.7077418570197124	1172251.216663315
0.7078598139958823	1173410.4757418674
0.7079777906315483	1174569.9280302678
0.7080957869299869	1175729.5735607152
0.7082138028944751	1176889.412365417
0.7083318385282908	1178049.4444765872
0.7084498938347124	1178401.5247821799
0.708567968817018	1178068.5018015716
0.7086860634784875	1177735.4233171328
0.7088041778224007	1177402.289319613
0.7089223118520377	1177069.0997997606
0.7090404655706796	1176735.854748322
0.709158638981608	1176402.5541560408
0.709276832088105	1176069.198013661
0.7093950448934531	1176465.0541778803
0.7095132774009353	1177208.7720307575
0.7096315296138355	1177952.6138366105
0.7097498015354378	1178696.5796160977
0.7098680931690269	1179440.6693898807
0.7099864045178884	1180184.883178627
0.7101047355853081	1180929.2210030046
0.7102230863745722	1181673.6828836857
0.7103414568889679	1182297.0335056023
0.7104598471317828	1182892.9404947034
0.7105782571063047	1183488.9468016354
0.7106966868158224	1184085.0524429518
0.710815136263625	1184681.2574352084
0.7109336054530023	1185277.5617949641
0.7110520943872445	1185873.9655387797
0.7111706030696424	1186470.4686832195
0.7112891315034873	1186168.6024350266
0.7114076796920712	1185823.8173413177
0.7115262476386865	1185478.9747834266
0.7116448353466263	1185134.0747517762
0.711763442819184	1184789.117236787
0.711882070059654	1184444.102228878
0.7120007170713306	1184099.0297184682
0.7121193838575091	1183755.7029927224
0.7122380704214853	1183431.126969347
0.7123567767665555	1183106.4968499679
0.7124755028960166	1182781.8126255688
0.7125942488131658	1182457.0742871326
0.7127130145213015	1182132.281825639
0.7128318000237216	1181807.4352320696
0.7129506053237256	1181482.5344974007
0.7130694304246129	1181133.3381350923
0.7131882753296837	1180699.3268281752
0.7133071400422386	1180265.24318604
0.7134260245655789	1179831.0871966316
0.7135449289030065	1179396.8588478914
0.7136638530578235	1178962.55812776
0.7137827970333332	1178528.1850241746
0.7139017608328388	1178093.739525072
0.7140207444596443	1177587.003141571
0.7141397479170543	1176951.3517069297
0.7142587712083737	1176315.5943303832
0.7143778143369084	1175679.7309942737
0.7144968773059646	1175043.7616809413
0.7146159601188489	1174407.6863727234
0.7147350627788687	1173771.5050519542
0.7148541852893318	1173135.2177009652
0.7149733276535467	1172037.122958519
0.7150924898748222	1170473.2758850553
0.715211671956468	1168909.1681704125
0.7153308739017941	1167344.7997711494
0.715450095714111	1165780.1706438204
0.71556933739673	1164215.28074497
0.7156885989529628	1162650.1300311366
0.7158078803861218	1161084.7184588485
0.7159271816995193	1158297.9142116616
0.7160465028964692	1154793.9173308928
0.7161658439802853	1151289.3364506436
0.7162852049542819	1147784.1714735818
0.7164045858217744	1144278.4223023553
0.716523986586078	1140772.0888396015
0.7166434072505089	1137265.170987939
0.716762847818384	1133757.6686499666
0.7168823082930204	1131229.276272841
0.7170017886777359	1128988.6844628132
0.7171212889758488	1126747.7192208183
0.7172408091906781	1124506.3804846157
0.7173603493255433	1122264.6681919566
0.7174799093837642	1120022.582280583
0.7175994893686615	1117780.1226882236
0.7177190892835562	1115537.2893525995
0.7178387091317702	1115754.2402804045
0.7179583489166254	1116218.1851000683
0.7180780086414448	1116682.2072438693
0.7181976883095517	1117146.306724694
0.7183173879242699	1117610.4835554324
0.718437107488924	1118074.7377489759
0.7185568470068389	1118539.0693182186
0.7186766064813399	1118939.2818542735
0.7187963859157535	1117734.5090708944
0.7189161853134061	1116529.5354920514
0.719036004677625	1115324.3610842782
0.7191558440117378	1114118.9858141048
0.7192757033190732	1112913.4096480513
0.7193955826029597	1111707.632552638
0.7195154818667269	1110501.6544943745
0.7196354011137046	1109210.0382586266
0.7197553403472235	1107524.838699563
0.7198752995706147	1105839.3582739066
0.7199952787872098	1104153.596934845
0.720115278000341	1102467.5546355604
0.7202352972133411	1100781.2313292255
0.7203553364295432	1099094.6269690087
0.7204753956522815	1097407.741508063
0.7205954748848902	1096361.0310215247
0.7207155741307044	1096726.1124645635
0.7208356933930594	1097091.2547545088
0.7209558326752915	1097456.4579015027
0.7210759919807375	1097821.7219156881
0.7211961713127342	1098187.0468072088
0.7213163706746197	1098552.432586212
0.7214365900697322	1098917.8792628446
0.7215568295014103	1098119.4370187318
0.721677088972994	1095932.0734730398
0.7217973684878227	1093744.3453667604
0.7219176680492374	1091556.2526391272
0.7220379876605789	1089367.7952293742
0.722158327325189	1087178.9730767189
0.7222786870464099	1084989.7861203724
0.7223990668275843	1082800.2342995324
0.7225194666720555	1080339.927597997
0.7226398865831676	1077687.578714771
0.7227603265642646	1075034.7877734043
0.722880786618692	1072381.5547002084
0.7230012667497951	1069727.879421502
0.7231217669609201	1067073.761863582
0.7232422872554135	1064419.2019527382
0.7233628276366229	1061764.199615238
0.7234833881078956	1060327.1330911522
0.7236039686725803	1059352.3982823286
0.7237245693340255	1058377.501017705
0.7238451900955812	1057402.4412702024
0.7239658309605971	1056427.2190127429
0.7240864919324239	1055451.8342182392
0.7242071730144127	1054476.2868596031
0.724327874209915	1053500.5769097426
0.7244485955222832	1049318.1742593686
0.7245693369548704	1044604.9018831422
0.7246900985110294	1039890.8439615268
0.7248108801941148	1035176.0003635784
0.7249316820074803	1030460.3709583797
0.7250525039544815	1025743.955614939
0.7251733460384739	1021026.7542022737
0.7252942082628137	1016314.0021024755
0.7254150906308574	1014634.0866582474
0.7255359931459625	1012953.8912281118
0.7256569158114868	1011273.415765404
0.7257778586307888	1009592.6602234516
0.7258988216072273	1007911.6245555759
0.7260198047441617	1006230.3087150909
0.7261408080449525	1004548.7126552962
0.72626183151296	1002868.1340442568
0.7263828751515454	1001195.8993959567
0.7265039389640706	999523.3860418822
0.726625022953898	997850.593935581
0.7267461271243904	996177.5230305947
0.7268672514789111	994504.1732804585
0.7269883960208241	992830.5446386989
0.7271095607534942	991156.6370588312
0.7272307456802866	989282.9202051733
0.7273519508045666	986869.9115930254
0.7274731761297006	984456.5008127767
0.7275944216590555	982042.6877973981
0.7277156873959987	979628.4724798494
0.7278369733438982	977213.8547930771
0.727958279506122	974798.8346700303
0.7280796058860397	972383.4120436265
0.7282009524870207	969192.0316571724
0.7283223193124353	964852.9868828187
0.7284437063656539	960513.2189343451
0.7285651136500483	956172.7276912061
0.7286865411689898	951831.513032869
0.7288079889258514	947489.574838745
0.7289294569240056	943146.9129882652
0.7290509451668262	938803.5273608053
0.7291724536576875	934891.3956641462
0.7292939823999636	931336.5520778142
0.7294155313970303	927781.1160175441
0.7295371006522632	924225.0873845982
0.7296586901690385	920668.4660802162
0.7297802999507332	917111.2520056185
0.7299019300007252	913553.4450619991
0.7300235803223919	909995.0451505654
0.7301452509191123	907201.8899308091
0.7302669417942654	904761.756497545
0.7303886529512311	902321.2163753747
0.7305103843933897	899880.2694965167
0.7306321361241218	897438.9157931807
0.7307539081468093	894997.1551975566
0.7308757004648336	892554.9876418383
0.7309975130815778	890112.4130581912
0.7311193460004248	887773.7397583532
0.7312411992247582	885458.2907651671
0.7313630727579622	883142.455863816
0.7314849666034219	880826.234989979
0.7316068807645224	878509.628079331
0.7317288152446498	876192.6350675302
0.7318507700471907	873875.2558902262
0.7319727451755319	871557.4904830602
0.732094740633061	867936.6504855928
0.7322167564231665	864256.5595751372
0.7323387925492371	860575.8553161963
0.7324608490146619	856894.5376065467
0.732582925822831	853212.6063439446
0.7327050229771347	849530.0614261362
0.7328271404809642	845846.9027508377
0.7329492783377112	842182.7099786034
0.7330714365507675	838710.3962977359
0.7331936151235259	835237.5038979223
0.7333158140593796	831764.0326827128
0.7334380333617229	828289.9825556288
0.7335602730339499	824815.3534201887
0.7336825330794556	821340.1451798918
0.7338048135016354	817864.3577382284
0.7339271143038857	814602.1071091823
0.734049435489603	812056.7485622925
0.7341717770621846	809510.965788978
0.7342941390250283	806964.7587185359
0.7344165213815324	804418.1272802496
0.734538924135096	801871.0714033865
0.7346613472891185	799323.591017214
0.734783790847	796775.6860509763
0.7349062548121412	793524.4853086431
0.7350287391879431	789030.3892798454
0.7351512439778078	784535.5442350337
0.7352737691851374	780039.9500493866
0.735396314813335	775543.606598038
0.7355188808658037	771046.5137561215
0.7356414673459482	766548.6713987222
0.7357640742571725	762050.0794009331
0.7358867016028818	757867.6380849343
0.7360093493864824	753997.4674650923
0.7361320176113801	750126.651816819
0.736254706280982	746255.1910326042
0.7363774153986956	742383.0850049204
0.7365001449679286	738510.3336262398
0.7366228949920899	734636.936788993
0.7367456654745885	730762.8943856066
0.7368684564188344	726925.7023590093
0.7369912678282374	723109.0627779602
0.7371140997062088	719291.7870903128
0.7372369520561599	715473.8751900471
0.7373598248815024	711655.32697114
0.7374827181856494	707836.1423275232
0.7376056319720137	704016.3211531324
0.7377285662440091	700195.8633418784
0.7378515210050496	695695.1236156222
0.7379744962585505	690989.149209617
0.738097492007927	686282.3904745455
0.7382205082565949	681574.8472796876
0.738343545007971	676866.5194942983
0.7384666022654723	672157.4069876065
0.7385896800325165	667447.5096288375
0.7387127783125219	662736.8272871694
0.7388358971089073	659905.5264152108
0.7389590364250921	657262.3390347885
0.7390821962644963	654618.7111231341
0.7392053766305403	651974.6426068317
0.7393285775266454	649330.1334124412
0.7394517989562333	646685.183466516
0.7395750409227259	644039.7926956039
0.7396983034295463	641344.0645109275
0.739821586480118	637537.9019219166
0.7399448900778645	633731.104972482
0.7400682142262109	629923.6735568774
0.740191558928582	626115.6075693743
0.7403149241884034	622306.9069042095
0.7404383100091014	618497.5714555997
0.7405617163941028	614687.6011177509
0.7406851433468352	610759.162769485
0.7408085908707264	606291.0119740053
0.7409320589692048	601822.1164867284
0.7410555476456997	597352.4761835334
0.7411790569036406	592882.0909402911
0.7413025867464579	588410.9606328403
0.7414261371775823	583939.0851370037
0.7415497082004452	579466.4643285879
0.7416732998184786	574997.8867082366
0.741796912035115	570538.8368681052
0.7419205448537874	566079.0438530014
0.7420441982779297	561618.5075390618
0.742167872310976	557157.2278023992
0.7422915669563612	552695.2045191139
0.7424152822175206	548232.4375652826
0.7425390180978901	543768.9268169617
0.7426627746009065	539652.5499330346
0.7427865517300065	535959.5749145182
0.7429103494886282	532265.9844001614
0.7430341678802096	528571.7782873885
0.7431580069081896	524876.9564735971
0.7432818665760077	521181.5188561647
0.7434057468871037	517485.46533246594
0.7435296478449182	513788.7957998486
0.7436535694528923	509822.48748533305
0.7437775117144678	505671.3638498457
0.7439014746330868	501519.54836042546
0.7440254582121922	497367.04090175335
0.7441494624552276	493213.84135850315
0.7442734873656368	489059.9496153299
0.7443975329468645	484905.36555686285
0.7445215992023557	480750.0890677199
0.7446456861355559	476635.24527505704
0.7447697937499119	472534.8651224876
0.7448939220488703	468433.801573227
0.7450180710358784	464332.0545133784
0.7451422407143843	460229.6238290194
0.7452664310878367	456126.50940620917
0.7453906421596846	452022.7111309995
0.7455148739333779	447918.22888940934
0.7456391264123667	443891.8065033028
0.7457633996001021	439877.3037667162
0.7458876935000356	435862.131946333
0.7460120081156189	431846.2909306541
0.7461363434503048	427829.7806081373
0.7462606995075466	423812.6008672298
0.7463850762907978	419794.7515963715
0.7465094738035127	415776.53391762316
0.7466338920491467	411836.4475837826
0.746758331031155	407895.7045688825
0.7468827907529935	403954.3047634846
0.7470072712181189	400012.248058119
0.7471317724299886	396069.53434330167
0.7472562943920602	392126.16350953473
0.7473808371077922	388182.135447292
0.7475054005806435	384229.6390667967
0.7476299848140736	380228.371361876
0.7477545898115426	376226.4367790037
0.7478792155765113	372223.8352070332
0.7480038621124406	368220.56653480395
0.7481285294227926	364216.63065113017
0.7482532175110298	360212.0274448049
0.7483779263806148	356206.75680461753
0.7485026560350116	352236.6265871166
0.7486274064776842	348362.7476050631
0.748752177712097	344488.2229765196
0.7488769697417158	340613.05259386316
0.749001782570006	336737.2363494809
0.7491266162004343	332860.77413572575
0.7492514706364677	328983.6658449332
0.7493763458815739	325105.9113694216
0.7495012419392209	321232.0578125386
0.7496261588128773	317364.09577115916
0.7497510965060128	313495.4890694368
0.7498760550220971	309626.23759993224
0.7500010343646007	305756.34125518217
0.7501260345369949	301885.7999277061
0.750251055542751	298014.6135100131
0.7503760973853414	294142.7818945815
0.7505011600682389	290343.0008135881
0.750626243594917	286603.28579962853
0.7507513479688495	282862.94749983895
0.7508764731935109	279121.9858103315
0.7510016192723765	275380.4006272082
0.7511267862089218	271638.1918465578
0.7512519740066232	267895.35936444264
0.7513771826689577	264151.9030769117
0.7515024121994025	260576.68421511955
0.7516276626014359	257079.60212743236
0.751752933878536	253581.93719273666
0.7518782260341824	250083.689313884
0.7520035390718548	246584.85839371665
0.7521288729950334	243085.44433506444
0.7522542278071992	239585.44704073548
0.7523796035118337	236084.86641352245
0.7525050001124189	232618.95268968443
0.7526304176124378	229160.1274727317
0.7527558560153731	225700.7257849139
0.752881315324709	222240.74753014478
0.7530067955439299	218780.19261233197
0.7531322966765205	215319.0609353708
0.7532578187259665	211857.3524031291
0.7533833616957542	208395.06691946546
0.75350892558937	205032.27158073525
0.7536345104103016	201673.62122149786
0.7537601161620366	198314.41108720232
0.7538857428480638	194954.6410845478
0.7540113904718717	191594.31112023053
0.7541370590369503	188233.42110091992
0.7542627485467898	184871.97093327067
0.7543884590048808	181536.0911281064
0.7545141904147151	178460.23268875253
0.7546399427797842	175383.8616063304
0.7547657161035808	172306.97779539405
0.754891510389598	169229.58117048937
0.7550173256413296	166151.67164614596
0.7551431618622698	163073.24913688257
0.7552690190559135	159994.31355720165
0.7553948972257561	156945.5463232404
0.7555207963752938	153999.2572114153
0.755646716508023	151052.47705140655
0.755772657627441	148105.20576137013
0.7558986197370455	145157.4432594516
0.756024602840335	142209.1894637835
0.7561506069408084	139260.44429248283
0.7562766320419653	136311.20766365094
0.7564026781473054	133401.84849818773
0.75652874526033	130563.04311433077
0.7566548333845401	127723.76459624169
0.7567809425234375	124884.01286506726
0.7569070726805247	122043.78784193927
0.7570332238593047	119203.08944797446
0.7571593960632813	116361.91760427463
0.7572855892959586	113520.27223193401
0.7574118035608413	110848.26877419958
0.7575380388614347	108342.24954968129
0.7576642952012449	105835.81265529129
0.7577905725837782	103328.95802142251
0.7579168710125422	100821.68557844363
0.7580431904910444	98313.99525672331
0.7581695310227928	95805.8869866192
0.7582958926112967	93297.36069846692
0.7584222752600652	90924.70887254055
0.7585486789726085	88629.95647309074
0.7586751037524372	86334.82161490683
0.7588015496030628	84039.30423424207
0.7589280165279966	81743.40426735174
0.7590545045307512	79447.12165046693
0.7591810136148396	77150.45631981269
0.7593075437837755	74853.40821159995
0.7594340950410726	72738.72727379682
0.7595606673902461	70676.71635107511
0.7596872608348112	68614.36175986423
0.7598138753782836	66551.66344289042
0.75994051102418	64488.62134286184
0.7600671677760173	62425.235402484876
0.7601938456373134	60361.505564449595
0.7603205446115863	58297.431771442476
0.7604472647023548	56428.484963727664
0.7605740059131385	54578.65645868798
0.7607007682474575	52728.51964889566
0.7608275517088319	50878.07448297247
0.7609543563007835	49027.32090951753
0.7610811820268336	47176.258877134795
0.7612080288905045	45324.888334416886
0.7613348968953197	43481.01873812405
0.7614617860448022	41797.075694483996
0.7615886963424764	40112.851993667704
0.7617156277918667	38428.34758890291
0.7618425803964988	36743.5624334026
0.7619695541598982	35058.496480376816
0.7620965490855914	33373.14968302678
0.7622235651771058	31687.521994541894
0.7623506024379685	30064.03205474015
0.7624776608717082	28713.859450325774
0.7626047404818536	27363.461817143936
0.7627318412719337	26012.83911769222
0.762858963245479	24661.991314456413
0.7629861064060198	23310.918369919942
0.7631132707570876	21959.620246557985
0.7632404563022137	20608.09690684334
0.7633676630449308	19342.01049969929
0.7634948909887717	18258.059431617217
0.7636221401372697	17173.92770502521
0.7637494104939593	16089.615289811083
0.7638767020623748	15005.122155862653
0.7640040148460518	13920.448273057327
0.7641313488485262	12835.593611271575
0.7642587040733344	11750.558140374294
0.7643860805240132	10783.49368124821
0.7645134782041005	9957.258621435078
0.7646408971171346	9130.8858557783
0.764768337266654	8304.37536132755
0.7648957986561985	7477.727115127457
0.7650232812893079	6650.941094219774
0.7651507851695227	5824.0172756419315
0.7652783103003843	4996.955636427761
