#wavelength	surface flux
0.7	5739678.957037958
0.7001166666666666	5771036.502947718
0.7002333527777778	5775138.790962391
0.700350058336574	5779241.76269173
0.7004667833462966	5783345.418249686
0.7005835278101878	5787449.757750246
0.7007002917314895	5791554.781307383
0.7008170751134447	5795660.489035113
0.7009338779592968	5799766.881047461
0.7010507002722901	5793673.618153391
0.7011675420556689	5775166.204929377
0.701284403312678	5756655.70713652
0.7014012840465635	5738142.124260672
0.7015181842605713	5719625.455787682
0.701635103957948	5701105.701203293
0.701752043141941	5682582.859993142
0.701869001815798	5664056.931642764
0.7019859799827672	5634840.758057019
0.7021029776460976	5598182.055202498
0.7022199948090387	5561517.242564122
0.7023370314748403	5524846.319123656
0.7024540876467528	5488169.2838626215
0.702571163328027	5451486.135762438
0.7026882585219152	5414796.87380414
0.7028053732316688	5378101.496968902
0.7029225074605406	5376464.386230114
0.7030396612117841	5388366.968620509
0.7031568344886527	5400271.534774639
0.7032740272944008	5412178.085023118
0.7033912396322832	5424086.619696647
0.7035084715055552	5435997.139125941
0.7036257229174727	5447909.643641813
0.7037429938712924	5459824.133575114
0.7038602843702709	5492453.09892212
0.7039775944176659	5528600.492247847
0.7040949240167356	5564753.910139142
0.7042122731707383	5600913.353600066
0.7043296418829335	5637078.823634921
0.7044470301565806	5673250.3212481085
0.70456443799494	5709427.847444204
0.7046818654012724	5745611.40322802
0.7047993123788394	5741299.585245123
0.7049167789309024	5736940.571467058
0.7050342650607243	5732580.831186689
0.7051517707715678	5728220.364282942
0.7052692960666963	5723859.170634713
0.705386840949374	5719497.250120878
0.7055044054228656	5715134.602620284
0.7056219894904361	5713455.561616863
0.7057395931553511	5728834.895073431
0.705857216420877	5744216.791752254
0.7059748592902804	5759601.252080514
0.7060925217668288	5774988.276485511
0.70621020385379	5790377.865394574
0.7063279055544321	5805770.019235101
0.7064456268720246	5821164.738434626
0.7065633678098366	5837632.775012899
0.7066811283711383	5857052.425783803
0.7067989085592001	5876475.313163168
0.7069167083772933	5895901.437690417
0.7070345278286895	5915330.799905101
0.707152366916661	5934763.400346823
0.7072702256444803	5954199.239555264
0.7073881040154211	5973638.318070265
0.7075060020327569	5975455.4799213065
0.7076239196997625	5951604.594394881
0.7077418570197124	5927749.733720892
0.7078598139958823	5903890.897236791
0.7079777906315483	5880028.084279921
0.7080957869299869	5856161.294187576
0.7082138028944751	5832290.526296894
0.7083318385282908	5808415.77994488
0.7084498938347124	5795985.987597776
0.708567968817018	5793260.763063359
0.7086860634784875	5790535.08432485
0.7088041778224007	5787808.951306548
0.7089223118520377	5785082.363932747
0.7090404655706796	5782355.322127719
0.709158638981608	5779627.8258157205
0.709276832088105	5776899.874921002
0.7093950448934531	5791084.5457524955
0.7095132774009353	5813337.609282251
0.7096315296138355	5835594.381655939
0.7097498015354378	5857854.863491681
0.7098680931690269	5880119.0554077085
0.7099864045178884	5902386.9580224175
0.7101047355853081	5924658.571954223
0.7102230863745722	5946933.89782167
0.7103414568889679	5912129.61713518
0.7104598471317828	5864348.860750248
0.7105782571063047	5816560.140905954
0.7106966868158224	5768763.456275021
0.710815136263625	5720958.805529993
0.7109336054530023	5673146.187343144
0.7110520943872445	5625325.600386614
0.7111706030696424	5577497.04333223
0.7112891315034873	5578721.777014774
0.7114076796920712	5582287.568932059
0.7115262476386865	5585853.955147996
0.7116448353466263	5589420.935761633
0.711763442819184	5592988.510872042
0.711882070059654	5596556.680578304
0.7120007170713306	5600125.444979517
0.7121193838575091	5606013.131924151
0.7122380704214853	5636081.365144654
0.7123567767665555	5666154.609737329
0.7124755028960166	5696232.866537452
0.7125942488131658	5726316.136380351
0.7127130145213015	5756404.42010164
0.7128318000237216	5786497.7185367895
0.7129506053237256	5816596.032521722
0.7130694304246129	5834013.288454146
0.7131882753296837	5807078.46196181
0.7133071400422386	5780139.146331717
0.7134260245655789	5753195.340815704
0.7135449289030065	5726247.044665432
0.7136638530578235	5699294.257132481
0.7137827970333332	5672336.977468235
0.7139017608328388	5645375.204924053
0.7140207444596443	5625059.483945987
0.7141397479170543	5616604.289586507
0.7142587712083737	5608147.686027978
0.7143778143369084	5599689.673035516
0.7144968773059646	5591230.25037422
0.7146159601188489	5582769.41780915
0.7147350627788687	5574307.175105319
0.7148541852893318	5565843.522027707
0.7149733276535467	5568346.29037043
0.7150924898748222	5581909.192514211
0.715211671956468	5595474.355141685
0.7153308739017941	5609041.7786296075
0.715450095714111	5622611.463354772
0.71556933739673	5636183.409694059
0.7156885989529628	5649757.6180244
0.7158078803861218	5663334.088722818
0.7159271816995193	5649495.467729106
0.7160465028964692	5619562.263770436
0.7161658439802853	5589624.070944441
0.7162852049542819	5559680.888419647
0.7164045858217744	5529732.715364414
0.716523986586078	5499779.550947018
0.7166434072505089	5469821.394335567
0.716762847818384	5439858.244698003
0.7168823082930204	5434159.588678444
0.7170017886777359	5435599.962817248
0.7171212889758488	5437040.577018408
0.7172408091906781	5438481.431321935
0.7173603493255433	5439922.525767847
0.7174799093837642	5441363.860396165
0.7175994893686615	5442805.435246922
0.7177190892835562	5444247.250360154
0.7178387091317702	5459318.464731286
0.7179583489166254	5475760.325094959
0.7180780086414448	5492204.925768705
0.7181976883095517	5508652.26720923
0.7183173879242699	5525102.34987333
0.718437107488924	5541555.174217878
0.7185568470068389	5558010.740699822
0.7186766064813399	5573444.4475446725
0.7187963859157535	5563263.412854017
0.7189161853134061	5553080.681324246
0.719036004677625	5542896.252672553
0.7191558440117378	5532710.1266160915
0.7192757033190732	5522522.302871939
0.7193955826029597	5512332.781157174
0.7195154818667269	5502141.561188783
0.7196354011137046	5488746.323623114
0.7197553403472235	5460604.804145694
0.7198752995706147	5432458.594415039
0.7199952787872098	5404307.693649409
0.720115278000341	5376152.101066987
0.7202352972133411	5347991.815885797
0.7203553364295432	5319826.837323786
0.7204753956522815	5291657.164598641
0.7205954748848902	5267801.712231747
0.7207155741307044	5253463.878025221
0.7208356933930594	5239123.654179686
0.7209558326752915	5224781.04029684
0.7210759919807375	5210436.0359783275
0.7211961713127342	5196088.640825781
0.7213163706746197	5181738.854440685
0.7214365900697322	5167386.6764245415
0.7215568295014103	5165769.853086365
0.721677088972994	5179351.037938424
0.7217973684878227	5192934.48632127
0.7219176680492374	5206520.1986121945
0.7220379876605789	5220108.175188494
0.722158327325189	5233698.41642756
0.7222786870464099	5247290.922706826
0.7223990668275843	5260885.69440381
0.7225194666720555	5255360.281491246
0.7226398865831676	5236281.388346146
0.7227603265642646	5217199.315385566
0.722880786618692	5198114.062079452
0.7230012667497951	5179025.6278978
0.7231217669609201	5159934.012310449
0.7232422872554135	5140839.214787183
0.7233628276366229	5121741.23479763
0.7234833881078956	5095219.773985681
0.7236039686725803	5065876.692208387
0.7237245693340255	5036528.719917511
0.7238451900955812	5007175.856297864
0.7239658309605971	4977818.100534314
0.7240864919324239	4948455.451811433
0.7242071730144127	4919087.909313763
0.724327874209915	4889715.472225738
0.7244485955222832	4878844.785424846
0.7245693369548704	4871032.20435493
0.7246900985110294	4863218.32118818
0.7248108801941148	4855403.135707548
0.7249316820074803	4847586.647696028
0.7250525039544815	4839768.856936495
0.7251733460384739	4831949.763211832
0.7252942082628137	4824111.537998674
0.7254150906308574	4805941.721121138
0.7255359931459625	4787768.875940787
0.7256569158114868	4769593.001952901
0.7257778586307888	4751414.098652673
0.7258988216072273	4733232.165535235
0.7260198047441617	4715047.202095631
0.7261408080449525	4696859.207828755
0.72626183151296	4677942.771064298
0.7263828751515454	4654202.408158706
0.7265039389640706	4630458.088525968
0.726625022953898	4606709.8115066085
0.7267461271243904	4582957.576441069
0.7268672514789111	4559201.3826697
0.7269883960208241	4535441.229532724
0.7271095607534942	4511677.1163702095
0.7272307456802866	4487130.17575175
0.7273519508045666	4460475.236832244
0.7274731761297006	4433815.855422931
0.7275944216590555	4407152.030783384
0.7277156873959987	4380483.762173054
0.7278369733438982	4353811.048851245
0.727958279506122	4327133.890077288
0.7280796058860397	4300452.285110169
0.7282009524870207	4274816.743996056
0.7283223193124353	4250730.752730664
0.7284437063656539	4226640.747133444
0.7285651136500483	4202546.726535252
0.7286865411689898	4178448.6902670097
0.7288079889258514	4154346.637659331
0.7289294569240056	4130240.56804294
0.7290509451668262	4106130.4807482515
0.7291724536576875	4089702.223231628
0.7292939823999636	4079639.7802085644
0.7294155313970303	4069575.6601116434
0.7295371006522632	4059509.8626613757
0.7296586901690385	4049442.3875782075
0.7297802999507332	4039373.2345825294
0.7299019300007252	4029302.40339466
0.7300235803223919	4019229.893734953
0.7301452509191123	4008264.577498175
0.7302669417942654	3996886.116329058
0.7303886529512311	3985505.758749742
0.7305103843933897	3974123.50444416
0.7306321361241218	3962739.353096203
0.7307539081468093	3951353.304389667
0.7308757004648336	3939965.3580083717
0.7309975130815778	3928575.5136359986
0.7311193460004248	3917821.659718578
0.7312411992247582	3907210.423364676
0.7313630727579622	3896597.4184713843
0.7314849666034219	3885982.6447439333
0.7316068807645224	3875366.101887534
0.7317288152446498	3864747.78960732
0.7318507700471907	3854127.707608388
0.7319727451755319	3843505.8555957926
0.732094740633061	3829071.2952489858
0.7322167564231665	3814462.7595052677
0.7323387925492371	3799851.7890055915
0.7324608490146619	3785238.3833441697
0.732582925822831	3770622.542115134
0.7327050229771347	3756004.2649125773
0.7328271404809642	3741383.5513304714
0.7329492783377112	3726158.191834441
0.7330714365507675	3705009.9417263092
0.7331936151235259	3683858.1669098316
0.7333158140593796	3662702.866797575
0.7334380333617229	3641544.040801934
0.7335602730339499	3620381.688335284
0.7336825330794556	3599215.8088098858
0.7338048135016354	3578046.40163794
0.7339271143038857	3556247.7634749357
0.734049435489603	3532348.9589242614
0.7341717770621846	3508446.171239491
0.7342941390250283	3484539.399756785
0.7344165213815324	3460628.643812175
0.734538924135096	3436713.902741539
0.7346613472891185	3412795.1758807553
0.734783790847	3388872.462565487
0.7349062548121412	3362680.0026391433
0.7350287391879431	3332478.3548651766
0.7351512439778078	3302271.673483186
0.7352737691851374	3272059.9576543346
0.735396314813335	3241843.206539485
0.7355188808658037	3211621.4192994996
0.7356414673459482	3181394.5950949127
0.7357640742571725	3151162.733086312
0.7358867016028818	3127108.9465259314
0.7360093493864824	3109157.53376215
0.7361320176113801	3091203.1290962663
0.736254706280982	3073245.7320296043
0.7363774153986956	3055285.342063408
0.7365001449679286	3037321.958698921
0.7366228949920899	3019355.5814371915
0.7367456654745885	3001386.2097792523
0.7368684564188344	2982580.9678539494
0.7369912678282374	2963301.86811378
0.7371140997062088	2944019.555190312
0.7372369520561599	2924734.0285480055
0.7373598248815024	2905445.2876513023
0.7374827181856494	2886153.331964417
0.7376056319720137	2866858.1609515822
0.7377285662440091	2847559.7740769093
0.7378515210050496	2827251.6870668535
0.7379744962585505	2806637.395037676
0.738097492007927	2786019.6672931653
0.7382205082565949	2765398.5032607103
0.738343545007971	2744773.902367587
0.7384666022654723	2724145.864040961
0.7385896800325165	2703514.387707978
0.7387127783125219	2682879.4727955805
0.7388358971089073	2668487.593191262
0.7389590364250921	2654719.851832894
0.7390821962644963	2640949.8158509564
0.7392053766305403	2627177.484863042
0.7393285775266454	2613402.85848662
0.7394517989562333	2599625.9363391213
0.7395750409227259	2585846.7180379536
0.7396983034295463	2571958.3955120337
0.739821586480118	2555691.741750954
0.7399448900778645	2539422.3768809466
0.7400682142262109	2523150.3004500777
0.740191558928582	2506875.512006488
0.7403149241884034	2490598.0110981707
0.7404383100091014	2474317.797273031
0.7405617163941028	2458034.8700789306
0.7406851433468352	2440658.9976361105
0.7408085908707264	2418292.682624449
0.7409320589692048	2395922.63989363
0.7410555476456997	2373548.8688223376
0.7411790569036406	2351171.3687892165
0.7413025867464579	2328790.13917275
0.7414261371775823	2306405.179351341
0.7415497082004452	2284016.488703313
0.7416732998184786	2262188.597413013
0.741796912035115	2241568.0978678595
0.7419205448537874	2220944.1615727865
0.7420441982779297	2200316.7879549977
0.742167872310976	2179685.9764415873
0.7422915669563612	2159051.726459592
0.7424152822175206	2138414.0374359386
0.7425390180978901	2117772.9087974606
0.7426627746009065	2098354.1673554876
0.7427865517300065	2080426.5608178435
0.7429103494886282	2062495.966345758
0.7430341678802096	2044562.3834412743
0.7431580069081896	2026625.8116063075
0.7432818665760077	2008686.2503426764
0.7434057468871037	1990743.699152183
0.7435296478449182	1972798.1575365013
0.7436535694528923	1954273.324521897
0.7437775117144678	1935350.9086828434
0.7439014746330868	1916425.3391078454
0.7440254582121922	1897496.6152712354
0.7441494624552276	1878564.7366473114
0.7442734873656368	1859629.7027102876
0.7443975329468645	1840691.5129342591
0.7445215992023557	1821750.16679327
0.7446456861355559	1803113.7499385618
0.7447697937499119	1784587.717781751
0.7448939220488703	1766058.5979529181
0.7450180710358784	1747526.3899374637
0.7451422407143843	1728991.093220671
0.7452664310878367	1710452.7072877416
0.7453906421596846	1691911.2316238433
0.7455148739333779	1673366.6657139948
0.7456391264123667	1655181.9090868004
0.7457633996001021	1637052.1473771047
0.7458876935000356	1618919.3640404248
0.7460120081156189	1600783.5585732234
0.7461363434503048	1582644.7304717689
0.7462606995075466	1564502.8792322811
0.7463850762907978	1546358.0043509474
0.7465094738035127	1528212.2475904878
0.7466338920491467	1510623.8715827565
0.746758331031155	1493032.5641790065
0.7468827907529935	1475438.3248907102
0.7470072712181189	1457841.1532291987
0.7471317724299886	1440241.0487057401
0.7472562943920602	1422638.0108315402
0.7473808371077922	1405032.0391176788
0.7475054005806435	1387449.3026394278
0.7476299848140736	1370024.829957663
0.7477545898115426	1352597.4531971142
0.7478792155765113	1335167.1718737676
0.7480038621124406	1317733.9855035476
0.7481285294227926	1300297.8936022697
0.7482532175110298	1282858.8956856567
0.7483779263806148	1265416.9912694152
0.7485026560350116	1248219.0054441378
0.7486274064776842	1231686.1774630202
0.748752177712097	1215150.5940106024
0.7488769697417158	1198612.254627574
0.749001782570006	1182071.1588546685
0.7491266162004343	1165527.3062324724
0.7492514706364677	1148980.6963014982
0.7493763458815739	1132431.3286021857
0.7495012419392209	1116044.784575669
0.7496261588128773	1099893.5531731434
0.7497510965060128	1083739.6298987062
0.7498760550220971	1067583.0143037294
0.7500010343646007	1051423.705939484
0.7501260345369949	1035261.7043571702
0.750251055542751	1019097.0091079441
0.7503760973853414	1002929.6197428332
0.7505011600682389	987211.6422490295
0.750626243594917	971868.5436286153
0.7507513479688495	956522.887825121
0.7508764731935109	941174.674412321
0.7510016192723765	925823.9029639481
0.7511267862089218	910470.5730536815
0.7512519740066232	895114.684255091
0.7513771826689577	879756.2361416921
0.7515024121994025	865246.1407780086
0.7516276626014359	851130.370287076
0.751752933878536	837012.2471677528
0.7518782260341824	822891.7710279052
0.7520035390718548	808768.9414753612
0.7521288729950334	794643.7581178992
0.7522542278071992	780516.2205632097
0.7523796035118337	766386.328418921
0.7525050001124189	752659.4015070215
0.7526304176124378	739018.3348558324
0.7527558560153731	725374.9946935521
0.752881315324709	711729.3806412318
0.7530067955439299	698081.4923198976
0.7531322966765205	684431.3293505282
0.7532578187259665	670778.8913539931
0.7533833616957542	657124.1779511257
0.75350892558937	644164.829398288
0.7536345104103016	631236.1260105715
0.7537601161620366	618305.2678389637
0.7538857428480638	605372.2545243148
0.7540113904718717	592437.0857074634
0.7541370590369503	579499.7610291454
0.7542627485467898	566560.2801300397
0.7543884590048808	553742.9709546937
0.7545141904147151	542163.3414955925
0.7546399427797842	530581.7820982666
0.7547657161035808	518998.2924410394
0.754891510389598	507412.8722022033
0.7550173256413296	495825.5210599894
0.7551431618622698	484236.2386925879
0.7552690190559135	472645.02477812767
0.7553948972257561	461239.686524605
0.7555207963752938	450462.84655318334
0.755646716508023	439684.2104417726
0.755772657627441	428903.77789100626
0.7558986197370455	418121.54860147985
0.756024602840335	407337.5222737413
0.7561506069408084	396551.69860828156
0.7562766320419653	385764.0773055345
0.7564026781473054	375237.29610552883
0.75652874526033	365170.9333219593
0.7566548333845401	355102.89281125396
0.7567809425234375	345033.1742938004
0.7569070726805247	334961.777489933
0.7570332238593047	324888.70211993303
0.7571593960632813	314813.9479040284
0.7572855892959586	304737.51456242055
0.7574118035608413	295417.6590616236
0.7575380388614347	286838.0780617275
0.7576642952012449	278257.0671316615
0.7577905725837782	269674.62603311957
0.7579168710125422	261090.7545277126
0.7580431904910444	252505.4523770515
0.7581695310227928	243918.71934270946
0.7582958926112967	235330.55518618424
0.7584222752600652	227424.01885596872
0.7585486789726085	219908.5562042375
0.7586751037524372	212391.84097539482
0.7588015496030628	204873.872960666
0.7589280165279966	197354.65195128293
0.7590545045307512	189834.17773839828
0.7591810136148396	182312.450113145
0.7593075437837755	174789.46886660974
0.7594340950410726	168129.34006480788
0.7595606673902461	161718.81007380708
0.7596872608348112	155307.21166113467
0.7598138753782836	148894.54464873386
0.75994051102418	142480.80885849168
0.7600671677760173	136066.00411228946
0.7601938456373134	129650.13023195797
0.7603205446115863	123233.18703931669
0.7604472647023548	117787.62532414432
0.7605740059131385	112437.81752540561
0.7607007682474575	107087.11809202854
0.7608275517088319	101735.52687542446
0.7609543563007835	96383.04372693908
0.7610811820268336	91029.66849793217
0.7612080288905045	85675.40103973071
0.7613348968953197	80366.35010495274
0.7614617860448022	76002.46717345295
0.7615886963424764	71637.85692812529
0.7617156277918667	67272.51924776095
0.7618425803964988	62906.454011112975
0.7619695541598982	58539.66109692671
0.7620965490855914	54172.14038392464
0.7622235651771058	49803.891750798684
0.7623506024379685	45698.3376708562
0.7624776608717082	42746.709319007336
0.7626047404818536	39794.58902909969
0.7627318412719337	36841.9767191488
0.762858963245479	33888.8723071444
0.7629861064060198	30935.27571107106
0.7631132707570876	27981.18684889531
0.7632404563022137	25026.605638578516
0.7633676630449308	22442.750385750358
0.7634948909887717	20648.665186050206
0.7636221401372697	18854.28097215244
0.7637494104939593	17059.59769421733
0.7638767020623748	15264.615302405153
0.7640040148460518	13469.333746858963
0.7641313488485262	11673.75297772025
0.7642587040733344	9877.872945117977
0.7643860805240132	8514.351196066038
0.7645134782041005	7666.892404542359
0.7646408971171346	6819.292369886407
0.764768337266654	5971.551068558323
0.7648957986561985	5123.668477013077
0.7650232812893079	4275.644571702685
0.7651507851695227	3427.479329074735
0.7652783103003843	2579.1727255731166
0.7654058566854343	2081.2826085425927
0.7655334243282153	1822.2238649639019
0.7656610132322699	1563.1219449282858
