#wavelength	surface flux
0.8	3327092.8605154287
0.8002000000000001	3373136.91180027
0.8004000500000003	3420341.6160230753
0.8006001500125003	3467569.7288868045
0.8008003000500035	3514809.648778754
0.8010005001250161	3562061.378650698
0.8012007502500472	3609324.9214550415
0.8014010504376099	3655544.624431802
0.8016014007002193	3701422.2699217713
0.8018018010503944	3747311.3848231127
0.8020022515006572	3793211.9720032
0.8022027520635323	3839124.034330043
0.8024033027515483	3887105.8714774777
0.8026039035772362	3937116.754735223
0.8028045545531306	3987140.1407137853
0.8030052556917691	4037176.032538866
0.803206007005692	4087224.4333368596
0.8034068085074435	4137282.837029665
0.8036076602095705	4187346.7216525986
0.8038085621246229	4237423.122246648
0.8040095142651542	4287512.041940877
0.8042105166437206	4337613.483865013
0.8044115692728815	4387725.56125701
0.8046126721651998	4437768.879057776
0.8048138253332411	4487824.707687952
0.8050150287895745	4537893.050275331
0.805216282546772	4587973.909948344
0.8054175866174087	4638067.289836249
0.8056189410140631	4688438.005522796
0.8058203457493168	4738896.272988046
0.8060218008357541	4789367.155020097
0.8062233062859632	4839850.654772682
0.8064248621125346	4890346.77540017
0.806626468328063	4942962.166523927
0.8068281249451449	4997400.065959859
0.8070298319763813	5051851.574870716
0.8072315894343755	5106316.69665876
0.8074333973317341	5160795.434727272
0.8076352556810671	5213068.371549806
0.8078371644949874	5260011.8598246025
0.8080391237861113	5306967.083971479
0.8082411335670578	5353934.046924363
0.8084431938504498	5400912.751618034
0.8086453046489125	5447714.019208953
0.8088474659750746	5491004.761329254
0.8090496778415686	5534306.326135143
0.809251940261029	5577618.716332202
0.8094542532460944	5620941.9346268475
0.8096566168094059	5664275.983726016
0.8098590309636085	5713528.241804352
0.8100614957213493	5764175.482410566
0.8102640110952797	5814835.384826939
0.8104665770980536	5865507.952218936
0.8106691937423283	5916193.1877528
0.8108718610407639	5967930.523382207
0.8110745790060241	6020475.589982858
0.8112773476507757	6073033.792850205
0.8114801669876885	6125605.135268254
0.8116830370294355	6178189.620521878
0.8118859577886929	6228870.173075796
0.8120889292781401	6275581.5392268235
0.8122919515104597	6322304.583219387
0.8124950244983374	6369039.30797295
0.8126981482544621	6415785.716407695
0.8129013227915257	6463615.787714285
0.8131045481222237	6523732.108715984
0.8133078242592543	6583863.45879794
0.8135111512153191	6644009.841717401
0.813714529003123	6704171.261232598
0.8139179576353739	6764347.721102684
0.8141214371247829	6842692.042244985
0.8143249674840641	6924576.086041422
0.814528548725935	7006480.600848758
0.8147321808631167	7088405.5917849075
0.8149358639083326	7170351.063968766
0.8151395978743097	7242525.656861999
0.8153433827737784	7308102.83595428
0.8155472186194719	7373696.409341309
0.8157511054241268	7439306.381121673
0.815955043200483	7504932.755395027
0.8161590319612831	7566640.389802549
0.8163630717192736	7621152.774906482
0.8165671624872033	7675678.788106631
0.8167713042778252	7730218.432810132
0.8169754971038948	7784771.712424838
0.8171797409781707	7822288.051521589
0.8173840359134155	7723693.718117937
0.8175883819223938	7625074.736131049
0.8177927790178745	7526431.099398606
0.8179972272126291	7427762.801756956
0.8182017265194322	7329069.837040994
0.8184062769510622	7323427.139562501
0.8186108785203001	7332105.887171048
0.8188155312399301	7340786.804466486
0.8190202351227402	7349469.891991258
0.819224990181521	7358155.150287904
0.8194297964290664	7537219.125535897
0.8196346538781738	7819022.027445189
0.8198395625416434	8100895.380079846
0.8200445224322789	8382839.20105278
0.820249533562887	8664853.507980876
0.8204545959462778	8883698.706633884
0.8206597095952644	9000816.168556193
0.8208648745226633	9117962.909844073
0.8210700907412941	9235138.937817257
0.8212753582639793	9352344.259797314
0.8214806771035456	9461121.112932846
0.8216860472728215	9517814.991518065
0.8218914687846397	9574523.043572934
0.822096941651836	9631245.272640845
0.822302465887249	9687981.682265991
0.8225080415037209	9744732.275993574
0.8227136685140968	9799804.374229081
0.8229193469312254	9854698.085575841
0.8231250767679583	9909605.520350456
0.8233308580371503	9964526.681983735
0.8235366907516598	10019461.573907463
0.8237425749243477	10116520.756784564
0.8239485105680789	10235923.540068507
0.824154497695721	10355356.174048195
0.824360536320145	10474818.6661864
0.8245666264542252	10594311.023947634
0.8247727681108388	10700016.348568032
0.8249789613028664	10785959.68927978
0.8251852060431922	10871924.515826782
0.825391502344703	10957910.833580382
0.8255978502202894	11043918.647913499
0.8258042496828445	11129569.600446396
0.8260107007452654	11213404.415501703
0.8262172034204517	11297260.18926069
0.8264237577213068	11381136.926963137
0.8266303636607373	11465034.63385005
0.8268370212516525	11548953.31516364
0.8270437305069654	11612530.90892476
0.8272504914395923	11674533.233866934
0.8274573040624523	11736551.059390359
0.8276641683884679	11798584.38937011
0.8278710844305652	11860633.22768243
0.8280780522016729	11938258.083566528
0.8282850717147234	12023015.023850242
0.8284921429826521	12107793.15336894
0.8286992660183978	12192592.477420084
0.8289064408349024	12277413.001302183
0.8291136674451112	12358549.284487804
0.8293209458619727	12435033.470233325
0.8295282760984382	12511536.77702518
0.829735658167463	12588059.20964382
0.8299430920820048	12664600.77287052
0.8301505778550254	12742127.38611039
0.8303581154994891	12823528.629117358
0.8305657050283641	12904950.222435161
0.8307733464546212	12986392.17115123
0.8309810397912352	13067854.480354609
0.8311887850511829	13149337.155135129
0.8313965822474458	13260642.876829412
0.8316044313930077	13373359.724807233
0.8318123325008561	13486104.75199715
0.8320202855839813	13598877.965443812
0.8322282906553774	13711679.372193845
0.8324363477280413	13800900.36672284
0.8326444568149735	13880638.922366694
0.8328526179291771	13960397.412649363
0.8330608310836596	14040175.842554724
0.8332690962914304	14119974.217067456
0.8334774135655034	14187304.928280625
0.833685782918895	14240703.398485757
0.8338942043646247	14294115.21830841
0.834102677915716	14347540.391086055
0.834311203585195	14400978.920156851
0.8345197813860912	14462504.784198068
0.8347284113314379	14551223.785739876
0.8349370934342709	14639964.967032019
0.8351458277076294	14728728.333619379
0.8353546141645565	14817513.891048532
0.8355634528180977	14906321.644867005
0.8357723436813022	14969661.159311097
0.8359812867672226	15032701.766633626
0.8361902820889144	15095758.134107957
0.8363993296594368	15158830.265674172
0.8366084294918518	15221918.165273301
0.8368175815992247	15327450.42680895
0.8370267859946247	15447621.913583396
0.8372360426911234	15567823.443229496
0.8374453517017962	15688055.023257997
0.8376547130397217	15808316.661181489
0.8378641267179816	15911476.326274196
0.8380735927496613	15997662.345860919
0.8382831111478488	16083869.91195249
0.8384926819256358	16170099.029935539
0.8387023050961173	16256349.705198158
0.8389119806723914	16340730.854975866
0.8391217086675596	16419810.960044188
0.8393314890947265	16498910.835138716
0.8395413219670003	16578030.485202026
0.8397512072974922	16657169.915177906
0.8399611450993165	16736100.176925043
0.8401711353855914	16803680.442802783
0.8403811781694378	16871277.603746973
0.8405912734639802	16938891.663981415
0.8408014212823464	17006522.62773095
0.8410116216376671	17074170.499221414
0.8412218745430766	17148601.218348484
0.8414321800117124	17225019.17134644
0.8416425380567154	17301456.22883268
0.8418529486912297	17377912.39558331
0.8420634119284025	17454387.676375564
0.8422739277813847	17587545.91194765
0.8424844962633302	17770660.475327395
0.842695117387396	17953820.81734775
0.8429057911667428	18137026.94945362
0.8431165176145345	18320278.8830926
0.8433272967439382	18453449.843383614
0.8435381285681244	18464380.964387063
0.8437490131002665	18475314.818170756
0.8439599503535415	18486251.405417893
0.84417094034113	18497190.72681185
0.8443819830762154	18512616.241785005
0.8445930785719846	18618365.2729115
0.8448042268416277	18724140.741295718
0.8450154278983382	18829942.653547022
0.8452266817553128	18935771.01627638
0.8454379884257517	19041625.836096432
0.8456493479228583	19182874.62756136
0.845860760259839	19332675.652198523
0.846072225449904	19482514.127091844
0.8462837435062666	19632390.06160392
0.8464953144421433	19782303.465099707
0.8467069382707537	19901465.080409557
0.8469186150053215	19996657.198451348
0.847130344659073	20091873.114522677
0.8473421272452377	20187112.83457293
0.8475539627770492	20282376.36455329
0.8477658512677435	20368467.68865689
0.8479777927305605	20435053.994337235
0.8481897871787432	20501656.946593978
0.848401834625538	20568276.549588826
0.8486139350841944	20634912.80748438
0.8488260885679657	20690326.524924364
0.8490382950901076	20608752.243577577
0.8492505546638802	20527157.568660412
0.8494628673025462	20445542.495074544
0.8496752330193721	20363907.01772016
0.8498876518276269	20282251.13149655
0.8501001237405839	19535351.962630432
0.8503126487715191	18655475.901183296
0.850525226933712	17775379.870721284
0.8507378582404455	16895063.816251665
0.8509505427050057	16014527.68276792
0.8511632803406821	15278906.302741203
0.8513760711607672	14642491.838668307
0.8515889151785576	14005918.270978406
0.8518018124073523	13369185.559897114
0.8520147628604541	12732293.665638428
0.8522277665511693	12543771.602059253
0.8524408234928071	13184702.675848642
0.8526539336986805	13825793.982406652
0.8528670971821053	14467045.56179134
0.8530803139564007	15108457.454070121
0.8532935840348901	15815582.730328724
0.8535069074308987	17076513.632408526
0.8537202841577566	18337759.767214905
0.8539337142287962	19599321.213555127
0.8541471976573534	20861198.050256148
0.8543607344567677	22123390.356166575
0.8545743246403821	22551158.140952915
0.8547879682215422	22846466.604093954
0.8550016652135977	23141848.894350737
0.8552154156299011	23437305.0301801
0.8554292194838088	23732835.030043636
0.8556430767886797	23940995.558720626
0.855856987557877	24096114.832687385
0.8560709518047664	24251272.886472538
0.8562849695427177	24406469.729771197
0.8564990407851035	24561705.372280724
0.8567131655452999	24701136.411280222
0.8569273438366862	24814642.34804836
0.8571415756726455	24928176.661300708
0.8573558610665638	25041739.35813141
0.8575702000318304	25155330.445636198
0.8577845925818384	25271105.657673337
0.857999038729984	25400375.277035594
0.8582135384896665	25529677.213802665
0.858428091874289	25659011.476053935
0.8586426988972576	25788378.071870733
0.8588573595719821	25917777.00933653
0.8590720739118751	25996393.62172017
0.8592868419303532	26069038.686262336
0.8595016636408359	26141701.91207064
0.8597165390567462	26214383.30368537
0.8599314681915105	26287082.865648024
0.8601464510585584	26202309.69257923
0.860361487671323	26033920.250621047
0.8605765780432408	25865488.711302422
0.8607917221877518	25697015.06409883
0.8610069201182988	25528499.298483487
0.8612221718483286	25076114.906665165
0.8614374773912907	24214443.11267651
0.8616528367606385	23352555.90073959
0.8618682499698288	22490453.216999143
0.8620837170323213	21628135.007587902
0.8622992379615795	20919219.029843412
0.8625148127710699	20970321.516990315
0.8627304414742627	21021436.779759005
0.8629461240846313	21072564.821343396
0.8631618606156526	21123705.644938186
0.8633776510808066	21174859.253738865
0.8635934954935769	21569403.288793035
0.8638093938674504	21992193.245875712
0.8640253462159173	22415088.900447648
0.8642413525524714	22838090.278933216
0.8644574128906095	23261197.407763317
0.8646735272438323	23567754.80987899
0.8648896956256433	23820140.80984859
0.8651059180495498	24072589.9063182
0.8653221945290621	24325102.11506168
0.8655385250776946	24577677.451857705
0.8657549097089641	24845016.526175503
0.8659713484363913	25131242.42674556
0.8661878412735006	25417539.88379089
0.866404388233819	25703908.915200446
0.8666209893308775	25990349.53886772
0.8668376445782103	26231372.1813262
0.8670543539893549	26286788.96472818
0.8672711175778525	26342219.602326047
0.8674879353572469	26397664.09758325
0.8677048073410862	26453122.45396429
0.8679217335429217	26508594.67493446
0.8681387139763074	26680688.274113968
0.8683557486548015	26858617.660713937
0.8685728375919655	27036591.52966077
0.8687899808013633	27214609.892074455
0.8690071782965637	27392672.759078972
0.869224430091138	27432275.166508652
0.8694417361986609	27415529.975184277
0.8696590966327107	27398780.597562075
0.869876511406869	27382027.032595467
0.8700939805347206	27365269.279237624
0.8703115040298544	27384794.301730674
0.870529081905862	27445810.704233084
0.8707467141763385	27506842.3608361
0.8709644008548827	27567889.27535326
0.8711821419550964	27628951.451599017
0.8713999374905854	27690054.585933015
0.871617787474958	27751261.66993445
0.8718356919218269	27812484.055706944
0.8720536508448075	27873721.747075886
0.8722716642575187	27934974.747867633
0.8724897321735832	27996243.061909605
0.8727078546066265	28177720.225269698
0.8729260315702784	28361071.295827765
0.873144263078171	28544468.204153273
0.8733625491439405	28727910.961705886
0.8735808897812266	28911399.579947956
0.8737992850036719	28965652.235338293
0.874017734824923	28974128.95368498
0.8742362392586293	28982607.791211247
0.874454798318444	28991088.748446897
0.8746734120180236	28999571.825921852
0.8748920803710283	29029769.345219154
0.875110803391121	29081793.22765846
0.8753295810919689	29133830.116068408
0.875548413487242	29185880.013700455
0.8757673005906139	29237942.923806913
0.8759862424157616	29384397.51562976
0.8762052389763657	29803977.845124785
0.8764242902861098	30223663.06970189
0.8766433963586814	30643453.215585254
0.8768625572077712	31063348.30900522
0.8770817728470732	31478936.787186444
0.8773010432902849	31550183.42390368
0.8775203685511077	31621447.8722802
0.8777397486432454	31692730.136768725
0.8779591835804065	31764030.221823458
0.8781786733763015	31835348.13189936
0.8783982180446457	31700697.02365069
0.878617817599157	31504735.015592977
0.8788374720535569	31308724.01703334
0.8790571814215703	31112664.01572411
0.8792769457169257	30916554.999414552
0.879496764953355	30897824.92377779
0.8797166391445934	31038609.56246678
0.8799365683043796	31179429.39731546
0.8801565524464557	31320284.437122848
0.8803765915845676	31461174.69069032
0.8805966857324639	31599119.730298303
0.880816834903897	31729613.293119118
0.881037039112623	31860139.47933069
0.8812572983724012	31990698.2970888
0.8814776126969944	32121289.75455141
0.8816979821001687	32249353.84196075
0.8819184065956938	32317186.692712594
0.8821388861973429	32385036.501677196
0.8823594209188923	32452903.273093972
0.882580010774122	32520787.011203576
0.8828006557768155	32588687.72024774
0.8830213559407598	32824437.313992728
0.8832421112797452	33102457.273995582
0.8834629218075651	33380546.73898827
0.8836837875380171	33658705.72634728
0.8839047084849018	33936934.25345319
0.884125684662023	33982718.73717112
0.8843467160831886	33842184.711597584
0.8845678027622095	33701615.55251766
0.8847889447129001	33561011.25114793
0.8850101419490785	33420371.798702896
0.8852313944845657	33547006.643870723
0.885452702333187	34258780.76448141
0.8856740655087704	34970732.828622155
0.8858954840251476	35682862.88077874
0.8861169578961539	36395170.96544802
0.886338487135628	37031425.57492119
0.886560071757412	36653394.96970531
0.8867817117753515	36275269.856838144
0.8870034072032955	35897050.21269258
0.8872251580550963	35518736.013636425
0.8874469643446101	35140327.23603028
0.8876688260856963	35138587.080118544
0.8878907432922178	35214822.46685427
0.8881127159780409	35291076.91243663
0.8883347441570356	35367350.42163047
0.8885568278430749	35443642.999201536
0.8887789670500358	35358252.34196956
0.8890011617917983	35158132.981541194
0.8892234120822464	34957963.59127264
0.8894457179352669	34757744.15865667
0.8896680793647509	34557474.671182394
0.8898904963845921	34396261.67659716
0.8901129690086883	34309624.72513862
0.8903354972509405	34222966.11444224
0.8905580811252535	34136285.83909311
0.8907807206455347	34049583.89367526
0.8910034158256963	33952365.99349017
0.8912261666796527	33761336.79408437
0.8914489732213227	33570259.837378666
0.8916718354646282	33379135.111433595
0.8918947534234944	33187962.604307223
0.8921177271118502	32996742.304054193
0.8923407565436284	31994211.447543707
0.8925638417327644	30859090.944329284
0.8927869826931977	29723686.66098868
0.8930101794388711	28587998.526577316
0.8932334319837308	27452026.47013253
0.8934567403417267	26679648.226071462
0.8936801045268123	26133184.109612454
0.8939035245529441	25586583.3771247
0.8941270004340824	25039845.994453613
0.894350532184191	24492971.927436996
0.8945741198172371	24754866.2234296
0.8947977633471915	26358298.581499346
0.8950214627880284	27962131.797658548
0.8952452181537254	29566365.97212083
0.8954690294582639	31171001.205127697
0.8956928967156286	32715238.510591753
0.8959168199398075	33865297.4633217
0.8961407991447926	35015643.93079012
0.8963648343445789	36166277.98487537
0.896588925553165	37317199.697473496
0.8968130727845534	38468409.14049992
0.8970372760527496	38655471.37088669
0.8972615353717629	38721910.12451493
0.8974858507556059	38788365.48783158
0.8977102222182949	38854837.464989044
0.8979346497738496	38921326.06014083
0.8981591334362931	39189573.56693084
0.8983836732196523	39568216.25004298
0.8986082691379572	39946953.59382565
0.8988329212052417	40325785.62194426
0.8990576294355432	40704712.35807024
0.8992823938429022	40948121.12479769
0.8995072144413631	40989951.890941694
0.8997320912449734	41031793.11477722
0.8999570242677847	41073644.7989187
0.9001820135238516	41115506.94598121
0.9004070590272328	41201653.75503858
0.9006321607919896	41519922.543357365
0.9008573188321878	41838270.89887355
0.9010825331618959	42156698.84147847
0.9013078037951865	42475206.391069084
0.9015331307461353	42793793.56754693
0.9017585140288219	43357047.50804615
0.9019839536573292	43941509.184406355
0.9022094496457435	44526116.97618523
0.9024350020081551	45110870.91991272
0.9026606107586572	45695771.052125946
0.902886275911347	45956602.83233047
0.9031119974803249	46061205.8269238
0.9033377754796951	46165834.97226578
0.903563609923565	46270490.27489405
0.903789500826046	46375171.74134804
0.9040154482012526	46364572.78304402
0.904241452063303	46204601.54897742
0.9044675124263188	46044590.32210234
0.9046936293044254	45884539.09242056
0.9049198027117517	45724447.84993129
0.9051460326624297	45617565.777481936
0.9053723191705955	45737404.435349256
0.9055986622503881	45857273.05288093
0.9058250619159507	45977171.63756698
0.9060515181814298	46097100.196899295
0.9062780310609752	46217058.73837135
0.9065046005687405	46350511.60334237
0.906731226718883	46484748.96690844
0.9069579095255627	46619019.889815226
0.907184649002944	46753324.380452745
0.907411445165195	46887662.44721307
0.9076382980264862	47249188.801499
0.907865207600993	47705142.46482324
0.9080921739028933	48161210.11656317
0.9083191969463691	48617391.78521597
0.9085462767456058	49073687.499286145
0.9087734133147922	49221171.237363234
0.9090006066681211	49011878.42950464
0.909227856819788	48802533.29844436
0.9094551637839932	48593135.83110102
0.9096825275749393	48383686.014390916
0.9099099482068329	48211270.31198807
0.9101374256938848	48170617.487134315
0.9103649600503083	48129954.49907438
0.9105925512903209	48089281.34526742
0.9108201994281437	48048598.023171976
0.9110479044780008	48007904.53024606
0.9112756664541204	48496536.23835297
0.911503485370734	48997406.49778754
0.9117313612420768	49498401.97478698
0.9119592940823873	49999522.70065552
0.912187283905908	50500768.70670568
0.9124153307268845	50541465.05701847
0.9126434345595664	50414973.495485894
0.9128715954182063	50288450.311063066
0.9130998133170609	50161895.495844066
0.9133280882703902	50035309.041921265
0.913556420292458	50011111.086744115
0.9137848093975312	50092534.49026121
0.9140132555998806	50173978.249629185
0.9142417589137806	50255442.369936995
