#wavelength	surface flux
0.7	43628.38471805767
0.7001166666666666	43705.551613311334
0.7002333527777778	43747.578242278476
0.700350058336574	43789.61187568376
0.7004667833462966	43831.65251469456
0.7005835278101878	43873.700160478635
0.7007002917314895	43915.75481420361
0.7008170751134447	43957.81647703754
0.7009338779592968	43999.88515014858
0.7010507002722901	44042.30477910466
0.7011675420556689	44085.15003546664
0.701284403312678	44128.00243270462
0.7014012840465635	44170.86197200886
0.7015181842605713	44213.72865456964
0.701635103957948	44256.60248157749
0.701752043141941	44299.48345422316
0.701869001815798	44342.37157369767
0.7019859799827672	44417.29152559702
0.7021029776460976	44514.51134126345
0.7022199948090387	44611.74736023262
0.7023370314748403	44708.99958520491
0.7024540876467528	44806.26801888135
0.702571163328027	44903.55266396323
0.7026882585219152	45000.853523152895
0.7028053732316688	45098.170599152276
0.7029225074605406	45214.187224897316
0.7030396612117841	45337.43767738917
0.7031568344886527	45460.708671623135
0.7032740272944008	45584.00021102272
0.7033912396322832	45707.31229901228
0.7035084715055552	45830.64493901637
0.7036257229174727	45953.99813446051
0.7037429938712924	46077.37188877068
0.7038602843702709	46125.91025643041
0.7039775944176659	46161.76059709384
0.7040949240167356	46197.61691281406
0.7042122731707383	46233.47920458688
0.7043296418829335	46269.34747340836
0.7044470301565806	46305.221720274625
0.70456443799494	46341.10194618201
0.7046818654012724	46376.988152127065
0.7047993123788394	46472.272041348784
0.7049167789309024	46567.63996583247
0.7050342650607243	46663.0237849704
0.7051517707715678	46758.42350141147
0.7052692960666963	46853.839117805226
0.705386840949374	46949.27063680167
0.7055044054228656	47044.71806105145
0.7056219894904361	47131.056986219024
0.7057395931553511	47159.425666147254
0.705857216420877	47187.79907418882
0.7059748592902804	47216.17721113172
0.7060925217668288	47244.56007776413
0.70621020385379	47272.94767487431
0.7063279055544321	47301.34000325064
0.7064456268720246	47329.73706368174
0.7065633678098366	47367.13630430873
0.7066811283711383	47429.32091314183
0.7067989085592001	47491.515886076406
0.7069167083772933	47553.72122483976
0.7070345278286895	47615.93693115962
0.707152366916661	47678.16300676387
0.7072702256444803	47740.399453380654
0.7073881040154211	47802.646272738624
0.7075060020327569	47872.63026774871
0.7076239196997625	47953.878833298055
0.7077418570197124	48035.140940274905
0.7078598139958823	48116.41659093625
0.7079777906315483	48197.705787539446
0.7080957869299869	48279.00853234202
0.7082138028944751	48360.32482760202
0.7083318385282908	48441.65467557794
0.7084498938347124	48473.62873015727
0.708567968817018	48463.75177142549
0.7086860634784875	48453.87316653391
0.7088041778224007	48443.992915208175
0.7089223118520377	48434.1110171739
0.7090404655706796	48424.22747215662
0.709158638981608	48414.34227988183
0.709276832088105	48404.45544007499
0.7093950448934531	48440.010391530755
0.7095132774009353	48497.2437351486
0.7096315296138355	48554.486617657065
0.7097498015354378	48611.73904064593
0.7098680931690269	48669.00100570524
0.7099864045178884	48726.27251442547
0.7101047355853081	48783.55356839714
0.7102230863745722	48840.8441692111
0.7103414568889679	48896.40948812016
0.7104598471317828	48951.58987359029
0.7105782571063047	49006.779455791286
0.7106966868158224	49061.97823625598
0.710815136263625	49117.18621651741
0.7109336054530023	49172.403398108916
0.7110520943872445	49227.629782564
0.7111706030696424	49282.86537141653
0.7112891315034873	49287.10745724625
0.7114076796920712	49288.91676396012
0.7115262476386865	49290.726372225115
0.7116448353466263	49292.53628209148
0.711763442819184	49294.3464936095
0.711882070059654	49296.15700682943
0.7120007170713306	49297.96782180157
0.7121193838575091	49299.95351165696
0.7122380704214853	49303.76028500689
0.7123567767665555	49307.56769281904
0.7124755028960166	49311.37573519915
0.7125942488131658	49315.184412253
0.7127130145213015	49318.993724086366
0.7128318000237216	49322.80367080502
0.7129506053237256	49326.61425251481
0.7130694304246129	49329.59688431439
0.7131882753296837	49329.6829881394
0.7133071400422386	49329.76910631505
0.7134260245655789	49329.855238843724
0.7135449289030065	49329.94138572783
0.7136638530578235	49330.02754696974
0.7137827970333332	49330.113722571856
0.7139017608328388	49330.19991253657
0.7140207444596443	49325.571968766715
0.7141397479170543	49312.53368133458
0.7142587712083737	49299.49322085456
0.7143778143369084	49286.45058696445
0.7144968773059646	49273.405779302026
0.7146159601188489	49260.35879750499
0.7147350627788687	49247.30964121099
0.7148541852893318	49234.25831005761
0.7149733276535467	49196.84378401068
0.7150924898748222	49134.85791447282
0.715211671956468	49072.8617139567
0.7153308739017941	49010.85518074045
0.715450095714111	48948.838313102024
0.71556933739673	48886.81110931898
0.7156885989529628	48824.77356766864
0.7158078803861218	48762.72568642794
0.7159271816995193	48623.691631061
0.7160465028964692	48439.4543918939
0.7161658439802853	48255.18644652028
0.7162852049542819	48070.88778982247
0.7164045858217744	47886.55841668176
0.716523986586078	47702.19832197893
0.7166434072505089	47517.80750059375
0.716762847818384	47333.38594740494
0.7168823082930204	47192.306691146136
0.7170017886777359	47063.964083660096
0.7171212889758488	46935.60008573955
0.7172408091906781	46807.21469381932
0.7173603493255433	46678.80790433372
0.7174799093837642	46550.37971371662
0.7175994893686615	46421.930118401026
0.7177190892835562	46293.459114819605
0.7178387091317702	46330.86238035726
0.7179583489166254	46384.92496473506
0.7180780086414448	46438.99655954363
0.7181976883095517	46493.07716628466
0.7183173879242699	46547.166786460155
0.718437107488924	46601.26542157236
0.7185568470068389	46655.373073123774
0.7186766064813399	46705.894826008676
0.7187963859157535	46666.54416144882
0.7189161853134061	46627.18693844488
0.719036004677625	46587.82315590377
0.7191558440117378	46548.45281273225
0.7192757033190732	46509.07590783682
0.7193955826029597	46469.69244012395
0.7195154818667269	46430.30240849977
0.7196354011137046	46392.539678225665
0.7197553403472235	46362.293266917965
0.7198752995706147	46332.04181454173
0.7199952787872098	46301.78532025674
0.720115278000341	46271.52378322271
0.7202352972133411	46241.25720259917
0.7203553364295432	46210.985577545565
0.7204753956522815	46180.70890722108
0.7205954748848902	46182.332068471944
0.7207155741307044	46254.29383124242
0.7208356933930594	46326.267587639915
0.7209558326752915	46398.25333966348
0.7210759919807375	46470.251089312485
0.7211961713127342	46542.260838586335
0.7213163706746197	46614.28258948518
0.7214365900697322	46686.3163440091
0.7215568295014103	46692.6082148155
0.721677088972994	46620.445667185326
0.7217973684878227	46548.27109246401
0.7219176680492374	46476.08448864682
0.7220379876605789	46403.885853729036
0.722158327325189	46331.675185705404
0.7222786870464099	46259.45248257047
0.7223990668275843	46187.217742318324
0.7225194666720555	46061.818720210205
0.7226398865831676	45898.728473179646
0.7227603265642646	45735.61104444163
0.722880786618692	45572.466429465145
0.7230012667497951	45409.294623719616
0.7231217669609201	45246.0956226731
0.7232422872554135	45082.86942179322
0.7233628276366229	44919.61601654625
0.7234833881078956	44859.96520993279
0.7236039686725803	44839.64870017916
0.7237245693340255	44819.328804340614
0.7238451900955812	44799.00552185271
0.7239658309605971	44778.6788521511
0.7240864919324239	44758.34879467116
0.7242071730144127	44738.01534884832
0.724327874209915	44717.67851411788
0.7244485955222832	44508.13490850114
0.7245693369548704	44267.27319831675
0.7246900985110294	44026.37134451435
0.7248108801941148	43785.42934040234
0.7249316820074803	43544.44717929046
0.7250525039544815	43303.42485448466
0.7251733460384739	43062.36235929136
0.7252942082628137	42821.592861585115
0.7254150906308574	42773.83513378738
0.7255359931459625	42726.06944636834
0.7256569158114868	42678.29579800139
0.7257778586307888	42630.51418735968
0.7258988216072273	42582.72461311621
0.7260198047441617	42534.927073943756
0.7261408080449525	42487.12156851469
0.72626183151296	42438.47231878158
0.7263828751515454	42384.26074500512
0.7265039389640706	42330.040135966374
0.726625022953898	42275.81049015942
0.7267461271243904	42221.57180607814
0.7268672514789111	42167.32408221621
0.7269883960208241	42113.06731706702
0.7271095607534942	42058.80150912361
0.7272307456802866	41997.661222808
0.7273519508045666	41917.96555188843
0.7274731761297006	41838.25659835708
0.7275944216590555	41758.53436000015
0.7277156873959987	41678.79883460346
0.7278369733438982	41599.05001995241
0.727958279506122	41519.287913832464
0.7280796058860397	41439.51251402807
0.7282009524870207	41307.67341098065
0.7283223193124353	41098.82398596219
0.7284437063656539	40889.939752706654
0.7285651136500483	40681.0207054119
0.7286865411689898	40472.06683827636
0.7288079889258514	40263.07814549579
0.7289294569240056	40054.05462126691
0.7290509451668262	39844.996259783744
0.7291724536576875	39659.98534161433
0.7292939823999636	39494.89835495667
0.7294155313970303	39329.7838538009
0.7295371006522632	39164.64183356166
0.7296586901690385	38999.472289652505
0.7297802999507332	38834.2752174861
0.7299019300007252	38669.05061247391
0.7300235803223919	38503.798470028
0.7301452509191123	38398.961033375046
0.7302669417942654	38322.00441885481
0.7303886529512311	38245.03497823214
0.7305103843933897	38168.052709369345
0.7306321361241218	38091.05761012846
0.7307539081468093	38014.0496783709
0.7308757004648336	37937.028911958216
0.7309975130815778	37859.99530875103
0.7311193460004248	37803.28147761075
0.7312411992247582	37751.161237729175
0.7313630727579622	37699.03231114096
0.7314849666034219	37646.89469639827
0.7316068807645224	37594.74839205315
0.7317288152446498	37542.593396657285
0.7318507700471907	37490.42970876216
0.7319727451755319	37438.25732691907
0.732094740633061	37294.86073894599
0.7322167564231665	37147.333700360214
0.7323387925492371	36999.78207393467
0.7324608490146619	36852.20585557144
0.732582925822831	36704.60504117177
0.7327050229771347	36556.97962663654
0.7328271404809642	36409.3296078654
0.7329492783377112	36261.6089191285
0.7330714365507675	36113.4107757156
0.7331936151235259	35965.18793261218
0.7333158140593796	35816.94038570173
0.7334380333617229	35668.66813086657
0.7335602730339499	35520.37116398888
0.7336825330794556	35372.04948095
0.7338048135016354	35223.70307763091
0.7339271143038857	35090.361599563716
0.734049435489603	35007.35753014758
0.7341717770621846	34924.339626719855
0.7342941390250283	34841.307886974944
0.7344165213815324	34758.26230860677
0.734538924135096	34675.20288930874
0.7346613472891185	34592.12962677427
0.734783790847	34509.04251869603
0.7349062548121412	34387.08681020582
0.7350287391879431	34196.43341375702
0.7351512439778078	34005.74824174175
0.7352737691851374	33815.0312888647
0.735396314813335	33624.28254982868
0.7355188808658037	33433.502019336454
0.7356414673459482	33242.68969208877
0.7357640742571725	33051.84556278667
0.7358867016028818	32876.29492556641
0.7360093493864824	32715.850145140488
0.7361320176113801	32555.378623918044
0.736254706280982	32394.880357442064
0.7363774153986956	32234.35534125479
0.7365001449679286	32073.803570898486
0.7366228949920899	31913.225041913658
0.7367456654745885	31752.619749840665
0.7368684564188344	31594.02044152747
0.7369912678282374	31436.5435681969
0.7371140997062088	31279.04044872071
0.7372369520561599	31121.511078724456
0.7373598248815024	30963.955453833558
0.7374827181856494	30806.373569671578
0.7376056319720137	30648.76542186223
0.7377285662440091	30491.13100602822
0.7378515210050496	30291.833121848016
0.7379744962585505	30079.974655759157
0.738097492007927	29868.080879926005
0.7382205082565949	29656.151788463678
0.738343545007971	29444.187375486148
0.7384666022654723	29232.187635106242
0.7385896800325165	29020.152561436596
0.7387127783125219	28808.082148587735
0.7388358971089073	28719.650711274586
0.7389590364250921	28643.609376712957
0.7390821962644963	28567.555368595513
0.7392053766305403	28491.48868481016
0.7393285775266454	28415.409323244123
0.7394517989562333	28339.317281784417
0.7395750409227259	28263.212558317922
0.7396983034295463	28183.744048182758
0.739821586480118	28029.714523192826
0.7399448900778645	27875.6593266157
0.7400682142262109	27721.578454172013
0.740191558928582	27567.471901583078
0.7403149241884034	27413.339664568837
0.7404383100091014	27259.181738848387
0.7405617163941028	27104.99812014041
0.7406851433468352	26944.94188104692
0.7408085908707264	26758.110698791617
0.7409320589692048	26571.248378006025
0.7410555476456997	26384.35491350015
0.7411790569036406	26197.43030008366
0.7413025867464579	26010.47453256488
0.7414261371775823	25823.487605751463
0.7415497082004452	25636.469514450386
0.7416732998184786	25449.04271032721
0.741796912035115	25260.77476403534
0.7419205448537874	25072.475439752467
0.7420441982779297	24884.144732248886
0.742167872310976	24695.78263629388
0.7422915669563612	24507.38914665622
0.7424152822175206	24318.96425810367
0.7425390180978901	24130.507965403147
0.7426627746009065	23965.988405262142
0.7427865517300065	23830.660306538444
0.7429103494886282	23695.30965313148
0.7430341678802096	23559.93644128239
0.7431580069081896	23424.54066723133
0.7432818665760077	23289.122327217738
0.7434057468871037	23153.681417480922
0.7435296478449182	23018.21793425923
0.7436535694528923	22866.330183620117
0.7437775117144678	22703.18965834372
0.7439014746330868	22540.02194298002
0.7440254582121922	22376.827032996956
0.7441494624552276	22213.60492386216
0.7442734873656368	22050.355611042545
0.7443975329468645	21887.079090003994
0.7445215992023557	21723.775356211958
0.7446456861355559	21558.581865267268
0.7447697937499119	21392.67473184193
0.7448939220488703	21226.73994722772
0.7450180710358784	21060.777506816226
0.7451422407143843	20894.787405997977
0.7452664310878367	20728.76964016277
0.7453906421596846	20562.724204700102
0.7455148739333779	20396.65109499813
0.7456391264123667	20239.841816641067
0.7457633996001021	20084.49206450595
0.7458876935000356	19929.1164207452
0.7460120081156189	19773.71488104412
0.7461363434503048	19618.287441086348
0.7462606995075466	19462.83409655511
0.7463850762907978	19307.354843133355
0.7465094738035127	19151.855138483697
0.7466338920491467	18997.758341042067
0.746758331031155	18843.635860800707
0.7468827907529935	18689.48769347949
0.7470072712181189	18535.31383479705
0.7471317724299886	18381.114280471462
0.7472562943920602	18226.889026220266
0.7473808371077922	18072.63806775989
0.7475054005806435	17917.948866915063
0.7476299848140736	17760.692837551065
0.7477545898115426	17603.410598848808
0.7478792155765113	17446.102146440062
0.7480038621124406	17288.76747595604
0.7481285294227926	17131.40658302697
0.7482532175110298	16974.019463282246
0.7483779263806148	16816.60611235112
0.7485026560350116	16660.656639680168
0.7486274064776842	16508.71411267557
0.748752177712097	16356.746261916749
0.7488769697417158	16204.753083182477
0.749001782570006	16052.734572251933
0.7491266162004343	15900.690724902945
0.7492514706364677	15748.621536912664
0.7493763458815739	15596.527004057563
0.7495012419392209	15444.168934425106
0.7496261588128773	15291.4430485941
0.7497510965060128	15138.691708448681
0.7498760550220971	14985.914909746629
0.7500010343646007	14833.112648244769
0.7501260345369949	14680.28491969925
0.750251055542751	14527.431719865812
0.7503760973853414	14374.553044498974
0.7505011600682389	14224.473815847863
0.750626243594917	14076.728323020023
0.7507513479688495	13928.958205943602
0.7508764731935109	13781.163460514284
0.7510016192723765	13633.344082627358
0.7511267862089218	13485.500068177587
0.7512519740066232	13337.631413058689
0.7513771826689577	13189.738113163854
0.7515024121994025	13048.553595505155
0.7516276626014359	12910.485051079308
0.751752933878536	12772.39349522963
0.7518782260341824	12634.278924120597
0.7520035390718548	12496.14133391632
0.7521288729950334	12357.980720780412
0.7522542278071992	12219.797080875636
0.7523796035118337	12081.590410364144
0.7525050001124189	11943.09586902277
0.7526304176124378	11804.520649266806
0.7527558560153731	11665.92233364106
0.752881315324709	11527.300918295909
0.7530067955439299	11388.656399381483
0.7531322966765205	11249.988773047424
0.7532578187259665	11111.298035442265
0.7533833616957542	10972.58418271418
0.75350892558937	10836.032089403108
0.7536345104103016	10699.559976636097
0.7537601161620366	10563.06511851703
0.7538857428480638	10426.54751125481
0.7540113904718717	10290.007151058224
0.7541370590369503	10153.444034134967
0.7542627485467898	10016.858156692137
0.7543884590048808	9881.2191536783
0.7545141904147151	9755.226891569351
0.7546399427797842	9629.213630750255
0.7547657161035808	9503.179367721003
0.754891510389598	9377.124098981252
0.7550173256413296	9251.047821029995
0.7551431618622698	9124.950530365777
0.7552690190559135	8998.832223486474
0.7553948972257561	8873.251807672308
0.7555207963752938	8749.526514867524
0.755646716508023	8625.780601180679
0.755772657627441	8502.014063174844
0.7558986197370455	8378.226897412655
0.756024602840335	8254.419100456204
0.7561506069408084	8130.590668866928
0.7562766320419653	8006.74159920561
0.7564026781473054	7883.1529190483625
0.75652874526033	7760.038180387968
0.7566548333845401	7636.9029226043995
0.7567809425234375	7513.747142277911
0.7569070726805247	7390.5708359881055
0.7570332238593047	7267.374000313935
0.7571593960632813	7144.1566318337
0.7572855892959586	7020.918727125379
0.7574118035608413	6903.2636923947
0.7575380388614347	6791.071047000601
0.7576642952012449	6678.859702832227
0.7577905725837782	6566.629656773321
0.7579168710125422	6454.380905706537
0.7580431904910444	6342.113446514534
0.7581695310227928	6229.827276079474
0.7582958926112967	6117.522391282534
0.7584222752600652	6008.190856273758
0.7585486789726085	5900.559927798712
0.7586751037524372	5792.911060835547
0.7588015496030628	5685.244252394344
0.7589280165279966	5577.55949948528
0.7590545045307512	5469.856799117398
0.7591810136148396	5362.136148299457
0.7593075437837755	5254.397544039554
0.7594340950410726	5151.0026580758895
0.7595606673902461	5048.85602098458
0.7596872608348112	4946.692359453653
0.7598138753782836	4844.511670645917
0.75994051102418	4742.313951723284
0.7600671677760173	4640.0991998475765
0.7601938456373134	4537.867412179812
0.7603205446115863	4435.618585880828
0.7604472647023548	4336.303149147326
0.7605740059131385	4237.264432333579
0.7607007682474575	4138.209209066932
0.7608275517088319	4039.1374765966284
0.7609543563007835	3940.049232170693
0.7610811820268336	3840.9444730374125
0.7612080288905045	3741.823196444467
0.7613348968953197	3642.633805761956
0.7614617860448022	3542.369291089567
0.7615886963424764	3442.0880656645963
0.7617156277918667	3341.7901267021516
0.7618425803964988	3241.4754714164637
0.7619695541598982	3141.144097021588
0.7620965490855914	3040.7960007310544
0.7622235651771058	2940.4311797576897
0.7623506024379685	2841.43791736686
0.7624776608717082	2748.513165410833
0.7626047404818536	2655.5729259961427
0.7627318412719337	2562.6171965417093
0.762858963245479	2469.645974465642
0.7629861064060198	2376.6592571858873
0.7631132707570876	2283.657042119822
0.7632404563022137	2190.6393266846635
0.7633676630449308	2098.5092567695197
0.7634948909887717	2008.2863350780342
0.7636221401372697	1918.048376233051
0.7637494104939593	1827.7953777281753
0.7638767020623748	1737.5273370570121
0.7640040148460518	1647.2442517123013
0.7641313488485262	1556.9461191867026
0.7642587040733344	1466.6329369722475
0.7643860805240132	1377.09761635507
0.7645134782041005	1288.493557033228
0.7646408971171346	1199.874730368129
0.764768337266654	1111.241133898618
0.7648957986561985	1022.5927651630004
0.7650232812893079	933.9296216992718
0.7651507851695227	845.2517010449652
0.7652783103003843	756.559000737227
0.7654058566854343	676.1934782151237
0.7655334243282153	601.499825231719
