#wavelength	surface flux
0.8	4966513.887192131
0.8002000000000001	5052495.984270262
0.8004000500000003	5140180.093672304
0.8006001500125003	5227903.098975974
0.8008003000500035	5315648.035030976
0.8010005001250161	5403414.907320032
0.8012007502500472	5491203.721327034
0.8014010504376099	5579090.1215642905
0.8016014007002193	5667023.830164617
0.8018018010503944	5754979.522192094
0.8020022515006572	5842957.203142616
0.8022027520635323	5930956.8785133
0.8024033027515483	6022131.6837315485
0.8026039035772362	6116419.2270944845
0.8028045545531306	6210730.342343265
0.8030052556917691	6305065.035370904
0.803206007005692	6399423.312071716
0.8034068085074435	6494004.822755348
0.8036076602095705	6589169.611392783
0.8038085621246229	6684358.191227302
0.8040095142651542	6779570.568206839
0.8042105166437206	6874806.748280589
0.8044115692728815	6970093.764713185
0.8046126721651998	7066567.095287827
0.8048138253332411	7163064.544195035
0.8050150287895745	7259586.117464559
0.805216282546772	7356131.821127375
0.8054175866174087	7452701.661216055
0.8056189410140631	7551673.210626407
0.8058203457493168	7651342.508551465
0.8060218008357541	7751036.723800879
0.8062233062859632	7850755.862604154
0.8064248621125346	7950499.931192062
0.806626468328063	8052922.490406243
0.8068281249451449	8157649.737657575
0.8070298319763813	8262403.166720848
0.8072315894343755	8367182.784141308
0.8074333973317341	8471988.596466163
0.8076352556810671	8575396.966525162
0.8078371644949874	8675404.24052311
0.8080391237861113	8775436.51633958
0.8082411335670578	8875493.800224943
0.8084431938504498	8975576.098431384
0.8086453046489125	9075665.886857314
0.8088474659750746	9175454.313927727
0.8090496778415686	9275267.688105037
0.809251940261029	9375106.015625821
0.8094542532460944	9474969.302728571
0.8096566168094059	9574857.555652983
0.8098590309636085	9681427.374775345
0.8100614957213493	9789581.866562566
0.8102640110952797	9897763.396972748
0.8104665770980536	10005971.972765574
0.8106691937423283	10114207.600702392
0.8108718610407639	10224788.469734712
0.8110745790060241	10337169.576230926
0.8112773476507757	10449578.778003864
0.8114801669876885	10562016.082077214
0.8116830370294355	10674481.49547652
0.8118859577886929	10785738.916362751
0.8120889292781401	10894456.699436171
0.8122919515104597	11003201.661955353
0.8124950244983374	11111973.81071517
0.8126981482544621	11220773.152512161
0.8129013227915257	11330583.890570063
0.8131045481222237	11451691.280852688
0.8133078242592543	11572828.947982898
0.8135111512153191	11693996.89952986
0.813714529003123	11815195.143064719
0.8139179576353739	11936423.686160484
0.8141214371247829	12078341.998845967
0.8143249674840641	12224302.008367771
0.814528548725935	12370298.507891867
0.8147321808631167	12516331.506541044
0.8149358639083326	12662401.013439836
0.8151395978743097	12796438.148902804
0.8153433827737784	12922354.546001142
0.8155472186194719	13048302.422198713
0.8157511054241268	13174281.785365308
0.815955043200483	13300292.64337278
0.8161590319612831	13410600.13751318
0.8163630717192736	13492102.983517732
0.8165671624872033	13573626.205233695
0.8167713042778252	13655169.807755167
0.8169754971038948	13736733.796177309
0.8171797409781707	13793219.628945118
0.8173840359134155	13649350.111999778
0.8175883819223938	13505444.62767537
0.8177927790178745	13361503.166979795
0.8179972272126291	13217525.720919011
0.8182017265194322	13073512.280496856
0.8184062769510622	13043994.726352964
0.8186108785203001	13032094.555478828
0.8188155312399301	13020191.409561992
0.8190202351227402	13008285.287858661
0.819224990181521	12996376.189624915
0.8194297964290664	13298225.245081484
0.8196346538781738	13789268.727939377
0.8198395625416434	14280434.971667789
0.8200445224322789	14771724.00695734
0.820249533562887	15263135.864505567
0.8204545959462778	15679211.529382
0.8206597095952644	15973941.91634961
0.8208648745226633	16268745.98591419
0.8210700907412941	16563623.756496115
0.8212753582639793	16858575.246520385
0.8214806771035456	17135557.997749925
0.8216860472728215	17301446.356428046
0.8218914687846397	17467376.187195845
0.822096941651836	17633347.500421423
0.822302465887249	17799360.30647521
0.8225080415037209	17965414.6157306
0.8227136685140968	18119296.39380678
0.8229193469312254	18271830.09297546
0.8231250767679583	18424401.925568983
0.8233308580371503	18577011.901120566
0.8235366907516598	18729660.029166155
0.8237425749243477	18924906.499521814
0.8239485105680789	19142759.425225742
0.824154497695721	19360666.814160954
0.824360536320145	19578628.679943446
0.8245666264542252	19796645.03619237
0.8247727681108388	20001070.94294291
0.8249789613028664	20186005.81447854
0.8251852060431922	20370986.919732213
0.825391502344703	20556014.27026212
0.8255978502202894	20741087.87762982
0.8258042496828445	20925327.01637033
0.8260107007452654	21105334.85349008
0.8262172034204517	21285387.692568924
0.8264237577213068	21465485.544857588
0.8266303636607373	21645628.4216094
0.8268370212516525	21825816.334080316
0.8270437305069654	21988513.80949388
0.8272504914395923	22149881.675164647
0.8274573040624523	22311289.882801868
0.8276641683884679	22472738.442490857
0.8278710844305652	22634227.364319958
0.8280780522016729	22809423.228890855
0.8282850717147234	22990909.856500596
0.8284921429826521	23172441.855767056
0.8286992660183978	23354019.238033473
0.8289064408349024	23535642.01464533
0.8291136674451112	23719053.42983755
0.8293209458619727	23904708.82720089
0.8295282760984382	24090410.638413318
0.829735658167463	24276158.875078768
0.8299430920820048	24461953.548803143
0.8301505778550254	24649660.75454686
0.8303581154994891	24844862.97220429
0.8305657050283641	25040113.990416326
0.8307733464546212	25235413.82138277
0.8309810397912352	25430762.477307267
0.8311887850511829	25626159.970395364
0.8313965822474458	25847709.35458311
0.8316044313930077	26070525.70636175
0.8318123325008561	26293397.76222854
0.8320202855839813	26516325.53610919
0.8322282906553774	26739309.04193333
0.8324363477280413	26941721.941356286
0.8326444568149735	27135881.34734415
0.8328526179291771	27330089.293183282
0.8330608310836596	27524345.79100917
0.8332690962914304	27718650.852959253
0.8334774135655034	27901529.404421937
0.833685782918895	28071635.62678585
0.8338942043646247	28241784.375705246
0.834102677915716	28411975.661811993
0.834311203585195	28582209.495740134
0.8345197813860912	28761315.008395232
0.8347284113314379	28970184.941917043
0.8349370934342709	29179107.092922118
0.8351458277076294	29388081.47446469
0.8353546141645565	29597108.099602994
0.8355634528180977	29806186.981397495
0.8357723436813022	29990077.57093241
0.8359812867672226	30173702.476487737
0.8361902820889144	30357373.288269363
0.8363993296594368	30541090.01775399
0.8366084294918518	30724852.676421046
0.8368175815992247	30954273.86831697
0.8370267859946247	31199461.86088413
0.8372360426911234	31444711.150449354
0.8374453517017962	31690021.752336945
0.8376547130397217	31935393.681874976
0.8378641267179816	32164134.901255567
0.8380735927496613	32376370.4501131
0.8382831111478488	32588659.05785772
0.8384926819256358	32801000.737754162
0.8387023050961173	33013395.503070764
0.8389119806723914	33226256.24902603
0.8391217086675596	33440332.194881555
0.8393314890947265	33654461.65972338
0.8395413219670003	33868644.65693144
0.8397512072974922	34082881.19988895
0.8399611450993165	34296880.48640918
0.8401711353855914	34496491.47533858
0.8403811781694378	34696152.36701516
0.8405912734639802	34895863.17391471
0.8408014212823464	35095623.90851608
0.8410116216376671	35295434.583301075
0.8412218745430766	35494124.88024634
0.8414321800117124	35692524.32874926
0.8416425380567154	35890973.37711441
0.8418529486912297	36089472.03774169
0.8420634119284025	36288020.32303396
0.8422739277813847	36554752.92279216
0.8424844962633302	36881581.50036479
0.842695117387396	37208491.78508139
0.8429057911667428	37535483.79736918
0.8431165176145345	37862557.55766021
0.8433272967439382	38125001.674085855
0.8435381285681244	38229662.322443284
0.8437490131002665	38334349.13596278
0.8439599503535415	38439062.121185586
0.84417094034113	38543801.28465478
0.8443819830762154	38652916.38365215
0.8445930785719846	38849684.861876994
0.8448042268416277	39046502.53222127
0.8450154278983382	39243369.40698312
0.8452266817553128	39440285.498463646
0.8454379884257517	39637250.81896706
0.8456493479228583	39891463.60616914
0.845860760259839	40159513.96667045
0.846072225449904	40427631.33976189
0.8462837435062666	40695815.74219665
0.8464953144421433	40964067.19073218
0.8467069382707537	41198609.925424114
0.8469186150053215	41406884.11517249
0.847130344659073	41615210.37346837
0.8473421272452377	41823588.71332862
0.8475539627770492	42032019.14777404
0.8477658512677435	42209368.237830006
0.8479777927305605	42320653.87955895
0.8481897871787432	42431967.342698306
0.848401834625538	42543308.63420351
0.8486139350841944	42654677.761031516
0.8488260885679657	42734625.90446814
0.8490382950901076	42431244.01436898
0.8492505546638802	42127786.27879714
0.8494628673025462	41824252.67879152
0.8496752330193721	41520643.19538545
0.8498876518276269	41216957.80960894
0.8501001237405839	39171632.17073306
0.8503126487715191	36778148.37301571
0.850525226933712	34384066.20435026
0.8507378582404455	31989385.51514268
0.8509505427050057	29594106.1557614
0.8511632803406821	27713943.62282994
0.8513760711607672	26186481.83078828
0.8515889151785576	24658638.173296236
0.8518018124073523	23130412.554891095
0.8520147628604541	21601804.880082257
0.8522277665511693	21134656.725144573
0.8524408234928071	22631139.60290661
0.8526539336986805	24127996.60138849
0.8528670971821053	25625227.814120088
0.8530803139564007	27122833.3346531
0.8532935840348901	28805181.71074369
0.8535069074308987	32045036.481885992
0.8537202841577566	35285701.2167238
0.8539337142287962	38527176.11774568
0.8541471976573534	41769461.387490794
0.8543607344567677	45012557.22855393
0.8545743246403821	46139453.53339144
0.8547879682215422	46930426.12882835
0.8550016652135977	47721596.46741401
0.8552154156299011	48512964.598584354
0.8554292194838088	49304530.57178807
0.8556430767886797	49823033.840683565
0.855856987557877	50175750.118866086
0.8560709518047664	50528554.576117925
0.8562849695427177	50881447.23448421
0.8564990407851035	51234428.11601519
0.8567131655452999	51515136.45272043
0.8569273438366862	51677349.3971331
0.8571415756726455	51839602.8947819
0.8573558610665638	52001896.95580517
0.8575702000318304	52164231.59034352
0.8577845925818384	52342051.52479586
0.857999038729984	52616389.30184408
0.8582135384896665	52890795.66333651
0.858428091874289	53165270.62641933
0.8586426988972576	53439814.20824283
0.8588573595719821	53714426.4259619
0.8590720739118751	53544578.948061
0.8592868419303532	53322277.7877358
0.8595016636408359	53099921.05212052
0.8597165390567462	52877508.727321416
0.8599314681915105	52655040.799441054
0.8601464510585584	51687535.18693143
0.860361487671323	50324356.41697766
0.8605765780432408	48960836.852331795
0.8607917221877518	47596976.40779365
0.8610069201182988	46232774.99814474
0.8612221718483286	44293034.53018974
0.8614374773912907	41523583.35704705
0.8616528367606385	38753439.82111183
0.8618682499698288	35982603.749290876
0.8620837170323213	33211074.968452424
0.8622992379615795	30899553.14123409
0.8625148127710699	30867280.418342516
0.8627304414742627	30834999.62727022
0.8629461240846313	30802710.76600015
0.8631618606156526	30770413.83251476
0.8633776510808066	30738108.824796006
0.8635934954935769	31482419.668783814
0.8638093938674504	32290577.85848723
0.8640253462159173	33098938.087738045
0.8642413525524714	33907500.407046154
0.8644574128906095	34716264.86693392
0.8646735272438323	35617303.80307649
0.8648896956256433	36561384.1627447
0.8651059180495498	37505700.54250289
0.8653221945290621	38450253.001355104
0.8655385250776946	39395041.59832335
0.8657549097089641	40191062.82675426
0.8659713484363913	40796525.74164993
0.8661878412735006	41402140.02227462
0.866404388233819	42007905.70646937
0.8666209893308775	42613822.8320849
0.8668376445782103	43147258.10143802
0.8670543539893549	43384373.21563294
0.8672711175778525	43621547.60860656
0.8674879353572469	43858781.29517817
0.8677048073410862	44096074.29017151
0.8679217335429217	44333426.60841375
0.8681387139763074	44629413.576499194
0.8683557486548015	44928384.4135814
0.8685728375919655	45227429.993373245
0.8687899808013633	45526550.33455939
0.8690071782965637	45825745.455831215
0.869224430091138	45782760.1622864
0.8694417361986609	45600500.90866554
0.8696590966327107	45418196.090231314
0.869876511406869	45235845.69559247
0.8700939805347206	45053449.71335506
0.8703115040298544	44975701.667617075
0.870529081905862	45017629.182650335
0.8707467141763385	45059567.179562345
0.8709644008548827	45101515.660973586
0.8711821419550964	45143474.62950515
0.8713999374905854	45214480.56540214
0.871617787474958	45385719.21158818
0.8718356919218269	45557000.66743593
0.8720536508448075	45728324.94364765
0.8722716642575187	45899692.050928324
0.8724897321735832	46071101.999985896
0.8727078546066265	46501496.66184833
0.8729260315702784	46935938.277502246
0.873144263078171	47370488.50355961
0.8733625491439405	47805147.36717353
0.8735808897812266	48239914.89550352
0.8737992850036719	48418442.21588369
0.874017734824923	48506219.60286006
0.8742362392586293	48594018.93418314
0.874454798318444	48681840.21533905
0.8746734120180236	48769683.45181524
0.8748920803710283	48897605.988665506
0.875110803391121	49065814.3154798
0.8753295810919689	49234064.694375895
0.875548413487242	49402357.13586671
0.8757673005906139	49570691.65046791
0.8759862424157616	49950000.570909515
0.8762052389763657	50939746.94736994
0.8764242902861098	51929740.76042379
0.8766433963586814	52919982.07193117
0.8768625572077712	53910470.94376673
0.8770817728470732	54892649.26517252
0.8773010432902849	55206872.60511502
0.8775203685511077	55521174.50089296
0.8777397486432454	55835554.97214445
0.8779591835804065	56150014.03851414
0.8781786733763015	56464551.71965
0.8783982180446457	56204204.41154174
0.878617817599157	55772751.085459724
0.8788374720535569	55341189.896046385
0.8790571814215703	54909520.81633581
0.8792769457169257	54477743.819355294
0.879496764953355	54548771.772782765
0.8797166391445934	55071969.207408056
0.8799365683043796	55595297.441392034
0.8801565524464557	56118756.5074345
0.8803765915845676	56642346.43824397
0.8805966857324639	57098000.94424431
0.880816834903897	57382807.16772226
0.881037039112623	57667684.5927562
0.8812572983724012	57952633.23714637
0.8814776126969944	58237653.11869776
0.8816979821001687	58509927.53988347
0.8819184065956938	58480562.393369325
0.8821388861973429	58451189.905568525
0.8823594209188923	58421810.0746458
0.882580010774122	58392422.89876536
0.8828006557768155	58363028.37609094
0.8830213559407598	59211738.537239745
0.8832421112797452	60281514.965557754
0.8834629218075651	61351558.83798219
0.8836837875380171	62421870.221375056
0.8839047084849018	63492449.18261394
0.884125684662023	63638804.98786124
0.8843467160831886	63044336.076336265
0.8845678027622095	62449718.547583416
0.8847889447129001	61854952.36444827
0.8850101419490785	61260037.48976745
0.8852313944845657	61497587.43434197
0.885452702333187	63557685.70231009
0.8856740655087704	65618298.994844906
0.8858954840251476	67679427.4407023
0.8861169578961539	69741071.1686702
0.886338487135628	71572014.2680902
0.886560071757412	70326529.20120504
0.8867817117753515	69080732.76305321
0.8870034072032955	67834624.87579127
0.8872251580550963	66588205.46155897
0.8874469643446101	65341474.442472346
0.8876688260856963	65618670.19584473
0.8878907432922178	66211395.93071844
0.8881127159780409	66804269.84702547
0.8883347441570356	67397291.9818123
0.8885568278430749	67990462.37213221
0.8887789670500358	67986496.8272088
0.8890011617917983	67558832.60132158
0.8892234120822464	67131061.4593777
0.8894457179352669	66703183.37464868
0.8896680793647509	66275198.320398144
0.8898904963845921	66002314.88812626
0.8901129690086883	66025505.364141956
0.8903354972509405	66048701.63777664
0.8905580811252535	66071903.710479766
0.8907807206455347	66095111.58370102
0.8910034158256963	66092302.51569289
0.8912261666796527	65856928.42973126
0.8914489732213227	65621495.50024807
0.8916718354646282	65386003.712532274
0.8918947534234944	65150453.05186979
0.8921177271118502	64914843.503542274
0.8923407565436284	62578909.59380053
0.8925638417327644	59899781.295309246
0.8927869826931977	57219983.21474245
0.8930101794388711	54539515.18465569
0.8932334319837308	51858377.037561834
0.8934567403417267	50078911.63160484
0.8936801045268123	48859701.33040422
0.8939035245529441	47640186.226629116
0.8941270004340824	46420366.2440776
0.894350532184191	45200241.30653076
0.8945741198172371	45895343.754181676
0.8947977633471915	49767301.998263836
0.8950214627880284	53640228.23190686
0.8952452181537254	57514122.69710599
0.8954690294582639	61388985.63592375
0.8956928967156286	65229675.12418089
0.8959168199398075	68843264.64418724
0.8961407991447926	72457757.5615745
0.8963648343445789	76073154.10219102
0.896588925553165	79689454.49194065
0.8968130727845534	83306658.95678818
0.8970372760527496	83990526.99694599
0.8972615353717629	84307433.39912777
0.8974858507556059	84624419.02791013
0.8977102222182949	84941483.90309958
0.8979346497738496	85258628.04450803
0.8981591334362931	85707742.47851779
0.8983836732196523	86229097.28140227
0.8986082691379572	86750582.42298715
0.8988329212052417	87272197.93585742
0.8990576294355432	87793943.85260636
0.8992823938429022	88172355.72008397
0.8995072144413631	88337548.7317612
0.8997320912449734	88502783.04169129
0.8999570242677847	88668058.66019884
0.9001820135238516	88833375.59761101
0.9004070590272328	89227395.17229922
0.9006321607919896	90820233.83945592
0.9008573188321878	92413470.71628103
0.9010825331618959	94007105.90232457
0.9013078037951865	95601139.49716489
0.9015331307461353	97195571.60040307
0.9017585140288219	98748522.94137114
0.9019839536573292	100298255.34145965
0.9022094496457435	101848375.17464705
0.9024350020081551	103398882.5377945
0.9026606107586572	104949777.52778225
0.902886275911347	105492352.34857474
0.9031119974803249	105548795.39610976
0.9033377754796951	105605252.55440666
0.903563609923565	105661723.82699311
0.903789500826046	105718209.21739773
0.9040154482012526	105495404.04526506
0.904241452063303	104910728.34127145
0.9044675124263188	104325906.46835196
0.9046936293044254	103740938.38996434
0.9049198027117517	103155824.06955683
0.9051460326624297	102682041.0924386
0.9053723191705955	102682837.31719925
0.9055986622503881	102683633.74101608
0.9058250619159507	102684430.36393887
0.9060515181814298	102685227.18601738
0.9062780310609752	102686024.20730142
0.9065046005687405	103963046.78703758
0.906731226718883	105311585.46202645
0.9069579095255627	106660461.2716823
0.907184649002944	108009674.30029067
0.907411445165195	109359224.63215756
0.9076382980264862	110610041.24781321
0.907865207600993	111820026.52170753
0.9080921739028933	113030314.29191998
0.9083191969463691	114240904.63407476
0.9085462767456058	115451797.62381569
0.9087734133147922	116002466.41634218
0.9090006066681211	115790356.09554785
0.909227856819788	115578192.7471736
0.9094551637839932	115365976.35796197
0.9096825275749393	115153706.91465311
0.9099099482068329	115076332.30836245
0.9101374256938848	115478545.55052821
0.9103649600503083	115880859.34600434
0.9105925512903209	116283273.71992925
0.9108201994281437	116685788.69744806
0.9110479044780008	117088404.30371079
0.9112756664541204	118825401.20834711
0.911503485370734	120593373.8109336
0.9117313612420768	122361788.40667075
0.9119592940823873	124130645.10605629
0.912187283905908	125899944.01961723
0.9124153307268845	126104511.9511544
0.9126434345595664	125741064.60115951
0.9128715954182063	125377526.38932747
0.9130998133170609	125013897.2929423
0.9133280882703902	124650177.28928304
0.913556420292458	124607264.08078091
0.9137848093975312	124895286.7061146
0.9140132555998806	125183381.3371046
0.9142417589137806	125471547.99175236
0.9144703193535092	125759786.68806396
0.9146989369333476	126156438.25070243
