#wavelength	surface flux
0.7	3187858.730786126
0.7001166666666666	3191693.7580417907
0.7002333527777778	3194374.5055412287
0.700350058336574	3197055.6998319156
0.7004667833462966	3199737.3409883142
0.7005835278101878	3202419.429084913
0.7007002917314895	3205101.96419619
0.7008170751134447	3207784.9463966517
0.7009338779592968	3210468.3757608123
0.7010507002722901	3212925.893918786
0.7011675420556689	3215108.3584852302
0.701284403312678	3217291.1867957655
0.7014012840465635	3219474.378911022
0.7015181842605713	3221657.9348916304
0.701635103957948	3223841.8547982345
0.701752043141941	3226026.138691489
0.701869001815798	3228210.7866320624
0.7019859799827672	3230805.1953062126
0.7021029776460976	3233684.953381023
0.7022199948090387	3236565.1914155157
0.7023370314748403	3239445.90948968
0.7024540876467528	3242327.1076835226
0.702571163328027	3245208.7860770593
0.7026882585219152	3248090.9447503365
0.7028053732316688	3250973.5837833877
0.7029225074605406	3254867.9563350864
0.7030396612117841	3259153.4691398605
0.7031568344886527	3263439.69619677
0.7032740272944008	3267726.637624853
0.7033912396322832	3272014.293543176
0.7035084715055552	3276302.664070814
0.7036257229174727	3280591.749326875
0.7037429938712924	3284881.549430483
0.7038602843702709	3286994.423343262
0.7039775944176659	3288738.305525759
0.7040949240167356	3290482.478355286
0.7042122731707383	3292226.9418802843
0.7043296418829335	3293971.696149204
0.7044470301565806	3295716.741210502
0.70456443799494	3297462.077112642
0.7046818654012724	3299207.7039041
0.7047993123788394	3302413.0760905365
0.7049167789309024	3305620.6572944205
0.7050342650607243	3308828.773095177
0.7051517707715678	3312037.4235818987
0.7052692960666963	3315246.6088437
0.705386840949374	3318456.32896971
0.7055044054228656	3321666.5840490796
0.7056219894904361	3324599.810985105
0.7057395931553511	3325769.64229411
0.705857216420877	3326939.6685750005
0.7059748592902804	3328109.8898602705
0.7060925217668288	3329280.3061824227
0.70621020385379	3330450.917573962
0.7063279055544321	3331621.724067398
0.7064456268720246	3332792.7256952515
0.7065633678098366	3334040.160360513
0.7066811283711383	3335497.7634248375
0.7067989085592001	3336955.609423006
0.7069167083772933	3338413.6983955065
0.7070345278286895	3339872.030382837
0.707152366916661	3341330.605425499
0.7072702256444803	3342789.4235639996
0.7073881040154211	3344248.4848388587
0.7075060020327569	3345849.1688877856
0.7076239196997625	3347656.017521191
0.7077418570197124	3349463.167296034
0.7078598139958823	3351270.618262505
0.7079777906315483	3353078.370470806
0.7080957869299869	3354886.4239711403
0.7082138028944751	3356694.778813724
0.7083318385282908	3358503.4350487827
0.7084498938347124	3358932.7092298777
0.708567968817018	3358192.331096923
0.7086860634784875	3357451.8295676117
0.7088041778224007	3356711.204621378
0.7089223118520377	3355970.456237654
0.7090404655706796	3355229.5843958673
0.709158638981608	3354488.589075439
0.709276832088105	3353747.4702557907
0.7093950448934531	3354323.7750463253
0.7095132774009353	3355528.5283276737
0.7096315296138355	3356733.4824012364
0.7097498015354378	3357938.6373004774
0.7098680931690269	3359143.993058867
0.7099864045178884	3360349.5497098844
0.7101047355853081	3361555.3072870104
0.7102230863745722	3362761.2658237317
0.7103414568889679	3363218.87986592
0.7104598471317828	3363506.483006589
0.7105782571063047	3363794.1340811145
0.7106966868158224	3364081.8330974863
0.710815136263625	3364369.5800636937
0.7109336054530023	3364657.374987729
0.7110520943872445	3364945.2178775845
0.7111706030696424	3365233.1087412555
0.7112891315034873	3364087.821418789
0.7114076796920712	3362873.9598669894
0.7115262476386865	3361659.8960049306
0.7116448353466263	3360445.6297988957
0.711763442819184	3359231.161215159
0.711882070059654	3358016.490219991
0.7120007170713306	3356801.616779658
0.7121193838575091	3355590.741470571
0.7122380704214853	3354423.47563757
0.7123567767665555	3353256.015260265
0.7124755028960166	3352088.36030623
0.7125942488131658	3350920.5107430364
0.7127130145213015	3349752.466538246
0.7128318000237216	3348584.2276594248
0.7129506053237256	3347415.7940741223
0.7130694304246129	3346090.7135061575
0.7131882753296837	3344218.3999321726
0.7133071400422386	3342345.7743059252
0.7134260245655789	3340472.836575408
0.7135449289030065	3338599.586688602
0.7136638530578235	3336726.0245934823
0.7137827970333332	3334852.150238011
0.7139017608328388	3332977.9635701473
0.7140207444596443	3330989.1729829456
0.7141397479170543	3328796.166139958
0.7142587712083737	3326602.7937958324
0.7143778143369084	3324409.055889648
0.7144968773059646	3322214.952360478
0.7146159601188489	3320020.4831473883
0.7147350627788687	3317825.6481894287
0.7148541852893318	3315630.4474256444
0.7149733276535467	3312567.4015337806
0.7150924898748222	3308629.0984364776
0.715211671956468	3304690.1389553244
0.7153308739017941	3300750.5229809214
0.715450095714111	3296810.250403858
0.71556933739673	3292869.3211146975
0.7156885989529628	3288927.735003989
0.7158078803861218	3284985.491962257
0.7159271816995193	3278644.281051336
0.7160465028964692	3270894.3544424013
0.7161658439802853	3263143.1361790323
0.7162852049542819	3255390.626045954
0.7164045858217744	3247636.823827849
0.716523986586078	3239881.729309377
0.7166434072505089	3232125.342275156
0.716762847818384	3224367.6625097604
0.7168823082930204	3218653.10451272
0.7170017886777359	3213539.052198289
0.7171212889758488	3208424.147541809
0.7172408091906781	3203308.3904012176
0.7173603493255433	3198191.7806344354
0.7174799093837642	3193074.318099361
0.7175994893686615	3187956.002653862
0.7177190892835562	3182836.834155791
0.7178387091317702	3181966.378930209
0.7179583489166254	3181522.3623169316
0.7180780086414448	3181078.2717008847
0.7181976883095517	3180634.1070697354
0.7183173879242699	3180189.868411147
0.718437107488924	3179745.555712783
0.7185568470068389	3179301.1689623017
0.7186766064813399	3178725.031031088
0.7187963859157535	3174856.5789781446
0.7189161853134061	3170987.482183192
0.719036004677625	3167117.740538773
0.7191558440117378	3163247.3539374163
0.7192757033190732	3159376.3222716204
0.7193955826029597	3155504.6454338846
0.7195154818667269	3151632.323316673
0.7196354011137046	3147514.1744252164
0.7197553403472235	3142266.480242447
0.7198752995706147	3137017.911443983
0.7199952787872098	3131768.467884049
0.720115278000341	3126518.149416855
0.7202352972133411	3121266.9558965825
0.7203553364295432	3116014.887177398
0.7204753956522815	3110761.943113419
0.7205954748848902	3106722.9061953845
0.7207155741307044	3105361.337798623
0.7208356933930594	3103999.5424737977
0.7209558326752915	3102637.5201830845
0.7210759919807375	3101275.270888655
0.7211961713127342	3099912.794552678
0.7213163706746197	3098550.091137309
0.7214365900697322	3097187.1606047056
0.7215568295014103	3093647.5750391674
0.721677088972994	3087510.554436925
0.7217973684878227	3081372.510997926
0.7219176680492374	3075233.4445516793
0.7220379876605789	3069093.354927696
0.722158327325189	3062952.241955439
0.7222786870464099	3056810.1054643574
0.7223990668275843	3050666.9452838576
0.7225194666720555	3044240.6588594983
0.7226398865831676	3037613.368365568
0.7227603265642646	3030984.973323238
0.722880786618692	3024355.473548387
0.7230012667497951	3017724.868856911
0.7231217669609201	3011093.1590646524
0.7232422872554135	3004460.3439874346
0.7233628276366229	2997826.4234410254
0.7234833881078956	2993004.69853859
0.7236039686725803	2988870.6105394126
0.7237245693340255	2984735.8335255743
0.7238451900955812	2980600.3673822265
0.7239658309605971	2976464.211994526
0.7240864919324239	2972327.367247589
0.7242071730144127	2968189.833026527
0.724327874209915	2964051.6092164367
0.7244485955222832	2954104.296869246
0.7245693369548704	2943194.956961819
0.7246900985110294	2932283.7988310903
0.7248108801941148	2921370.8221739773
0.7249316820074803	2910456.026687458
0.7250525039544815	2899539.4120683395
0.7251733460384739	2888620.97801345
0.7252942082628137	2877709.9015628267
0.7254150906308574	2872114.6499635717
0.7255359931459625	2866518.465822383
0.7256569158114868	2860921.3489838354
0.7257778586307888	2855323.2992924787
0.7258988216072273	2849724.3165928414
0.7260198047441617	2844124.4007294276
0.7261408080449525	2838523.5515466933
0.72626183151296	2832914.8241074225
0.7263828751515454	2827259.0098213824
0.7265039389640706	2821602.252899629
0.726625022953898	2815944.5531850522
0.7267461271243904	2810285.91052052
0.7268672514789111	2804626.324748881
0.7269883960208241	2798965.7957129516
0.7271095607534942	2793304.3232555124
0.7272307456802866	2787211.506312661
0.7273519508045666	2779955.0571642313
0.7274731761297006	2772697.398607614
0.7275944216590555	2765438.5304412376
0.7277156873959987	2758178.4524634974
0.7278369733438982	2750917.164472749
0.727958279506122	2743654.666267355
0.7280796058860397	2736390.9576455844
0.7282009524870207	2727725.759461689
0.7283223193124353	2716987.948584989
0.7284437063656539	2706248.348073166
0.7285651136500483	2695506.957627906
0.7286865411689898	2684763.7769509275
0.7288079889258514	2674018.80574381
0.7289294569240056	2663272.043708183
0.7290509451668262	2652523.4905455373
0.7291724536576875	2642514.985381113
0.7292939823999636	2633119.5059524267
0.7294155313970303	2623722.460610484
0.7295371006522632	2614323.84909432
0.7296586901690385	2604923.6711429106
0.7297802999507332	2595521.92649518
0.7299019300007252	2586118.614889984
0.7300235803223919	2576713.7360662124
0.7301452509191123	2568593.523683431
0.7302669417942654	2561065.6442144103
0.7303886529512311	2553536.510098809
0.7305103843933897	2546006.1211275198
0.7306321361241218	2538474.477091408
0.7307539081468093	2530941.5777812763
0.7308757004648336	2523407.4229879426
0.7309975130815778	2515872.0125021343
0.7311193460004248	2508368.4324423023
0.7312411992247582	2500871.0921080215
0.7313630727579622	2493372.50221702
0.7314849666034219	2485872.662561029
0.7316068807645224	2478371.572931767
0.7317288152446498	2470869.233120897
0.7318507700471907	2463365.6429200536
0.7319727451755319	2455860.8021208467
0.732094740633061	2446006.0123407757
0.7322167564231665	2436043.8409600994
0.7323387925492371	2426080.009217526
0.7324608490146619	2416114.516836331
0.732582925822831	2406147.363539737
0.7327050229771347	2396178.549050939
0.7328271404809642	2386208.0730930483
0.7329492783377112	2376273.6789538777
0.7330714365507675	2366708.6882678163
0.7331936151235259	2357142.103416643
0.7333158140593796	2347573.924134672
0.7334380333617229	2338004.1501561394
0.7335602730339499	2328432.781215273
0.7336825330794556	2318859.8170462474
0.7338048135016354	2309285.257383212
0.7339271143038857	2300057.3847348695
0.734049435489603	2291994.960221798
0.7341717770621846	2283931.191971306
0.7342941390250283	2275866.0797594436
0.7344165213815324	2267799.6233622157
0.734538924135096	2259731.822555576
0.7346613472891185	2251662.6771154795
0.734783790847	2243592.186817806
0.7349062548121412	2234176.561500638
0.7350287391879431	2222384.1633162196
0.7351512439778078	2210589.7997320797
0.7352737691851374	2198793.4704206903
0.735396314813335	2186995.1750544054
0.7355188808658037	2175194.9133055788
0.7356414673459482	2163392.6848464366
0.7357640742571725	2151588.489349226
0.7358867016028818	2140412.3404556504
0.7360093493864824	2129856.524480356
0.7361320176113801	2119298.9492024137
0.736254706280982	2108739.614328591
0.7363774153986956	2098178.5195656097
0.7365001449679286	2087615.6646201892
0.7366228949920899	2077051.049198936
0.7367456654745885	2066484.6730084459
0.7368684564188344	2056056.9151255751
0.7369912678282374	2045706.7587447588
0.7371140997062088	2035354.8773378748
0.7372369520561599	2025001.270617413
0.7373598248815024	2014645.9382958547
0.7374827181856494	2004288.8800855586
0.7376056319720137	1993930.0956988933
0.7377285662440091	1983569.584848162
0.7378515210050496	1971824.8303069177
0.7379744962585505	1959662.1610179152
0.738097492007927	1947497.4646173678
0.7382205082565949	1935330.740767428
0.738343545007971	1923161.9891301822
0.7384666022654723	1910991.2093676513
0.7385896800325165	1898818.401141845
0.7387127783125219	1886643.564114652
0.7388358971089073	1877826.2962760993
0.7389590364250921	1869344.5349439615
0.7390821962644963	1860861.3599849287
0.7392053766305403	1852376.7711634152
0.7393285775266454	1843890.7682437587
0.7394517989562333	1835403.350990274
0.7395750409227259	1826914.5191672607
0.7396983034295463	1818340.059483717
0.739821586480118	1807890.7886380884
0.7399448900778645	1797439.7762473393
0.7400682142262109	1786987.0220211602
0.740191558928582	1776532.525669288
0.7403149241884034	1766076.2869013653
0.7404383100091014	1755618.3054269785
0.7405617163941028	1745158.580955686
0.7406851433468352	1734444.3464100342
0.7408085908707264	1722571.9788965005
0.7409320589692048	1710697.6326550536
0.7410555476456997	1698821.3073558903
0.7411790569036406	1686943.0026691859
0.7413025867464579	1675062.71826503
0.7414261371775823	1663180.4538134704
0.7415497082004452	1651296.2089845112
0.7416732998184786	1639422.942449901
0.741796912035115	1627575.496647901
0.7419205448537874	1615726.076271603
0.7420441982779297	1603874.6809919095
0.742167872310976	1592021.3104796584
0.7422915669563612	1580165.9644056556
0.7424152822175206	1568308.6424406436
0.7425390180978901	1556449.3442553116
0.7426627746009065	1545250.8312423069
0.7427865517300065	1534858.405808845
0.7429103494886282	1524464.248304467
0.7430341678802096	1514068.358440513
0.7431580069081896	1503670.7359282488
0.7432818665760077	1493271.3804788846
0.7434057468871037	1482870.2918036208
0.7435296478449182	1472467.4696135838
0.7436535694528923	1461494.9305080166
0.7437775117144678	1450131.7607840805
0.7439014746330868	1438766.697198541
0.7440254582121922	1427399.739435727
0.7441494624552276	1416030.8871799482
0.7442734873656368	1404660.1401154625
0.7443975329468645	1393287.4979264569
0.7445215992023557	1381912.960297088
0.7446456861355559	1370743.894028997
0.7447697937499119	1359649.354789931
0.7448939220488703	1348552.9664609944
0.7450180710358784	1337454.7287340127
0.7451422407143843	1326354.641300742
0.7452664310878367	1315252.7038528887
0.7453906421596846	1304148.9160821391
0.7455148739333779	1293043.2776800909
0.7456391264123667	1281981.4864996392
0.7457633996001021	1270925.1585706263
0.7458876935000356	1259866.987920272
0.7460120081156189	1248806.974241497
0.7461363434503048	1237745.1172271038
0.7462606995075466	1226681.4165698648
0.7463850762907978	1215615.8719625329
0.7465094738035127	1204549.3969089198
0.7466338920491467	1193720.1253554623
0.746758331031155	1182889.0489234019
0.7468827907529935	1172056.167311949
0.7470072712181189	1161221.4802202273
0.7471317724299886	1150384.9873473214
0.7472562943920602	1139546.6883922778
0.7473808371077922	1128706.5830540652
0.7475054005806435	1117844.3395986934
0.7476299848140736	1106855.0521159815
0.7477545898115426	1095863.933085353
0.7478792155765113	1084870.9822015506
0.7480038621124406	1073876.199159276
0.7481285294227926	1062879.5836531634
0.7482532175110298	1051881.1353777885
0.7483779263806148	1040880.8540277162
0.7485026560350116	1029966.5622219476
0.7486274064776842	1019288.1408238005
0.748752177712097	1008607.9396887731
0.7488769697417158	997925.9585202005
0.749001782570006	987242.1970214461
0.7491266162004343	976556.6548957783
0.7492514706364677	965869.331846418
0.7493763458815739	955180.2275765387
0.7495012419392209	944492.0478607204
0.7496261588128773	933805.9770817972
0.7497510965060128	923118.12529107
0.7498760550220971	912428.492191715
0.7500010343646007	901737.0774868418
0.7501260345369949	891043.8808795124
0.750251055542751	880348.9020727606
0.7503760973853414	869652.1407695345
0.7505011600682389	859122.2405503918
0.750626243594917	848731.3991294614
0.7507513479688495	838338.8259016431
0.7508764731935109	827944.5205782834
0.7510016192723765	817548.4828707004
0.7511267862089218	807150.7124901759
0.7512519740066232	796751.2091479176
0.7513771826689577	786349.9725550963
0.7515024121994025	776348.5668388119
0.7516276626014359	766532.7261189694
0.751752933878536	756715.2494256909
0.7518782260341824	746896.1364862934
0.7520035390718548	737075.3870280684
0.7521288729950334	727253.0007782722
0.7522542278071992	717428.9774641001
0.7523796035118337	707603.3168127043
0.7525050001124189	697811.4758139447
0.7526304176124378	688025.7140033337
0.7527558560153731	678238.3212324337
0.752881315324709	668449.2972293955
0.7530067955439299	658658.6417223534
0.7531322966765205	648866.3544394065
0.7532578187259665	639072.4351085761
0.7533833616957542	629276.8834578576
0.75350892558937	619689.926658977
0.7536345104103016	610111.2575291935
0.7537601161620366	600530.9919545599
0.7538857428480638	590949.1296689879
0.7540113904718717	581365.6704063808
0.7541370590369503	571780.6139005652
0.7542627485467898	562193.9598853261
0.7543884590048808	552669.6404625088
0.7545141904147151	543781.2744719919
0.7546399427797842	534891.4270871576
0.7547657161035808	526000.098061091
0.754891510389598	517107.28714685404
0.7550173256413296	508212.99409746105
0.7551431618622698	499317.21866589534
0.7552690190559135	490419.9606050929
0.7553948972257561	481585.08690068766
0.7555207963752938	472963.1189727902
0.755646716508023	464339.7140502429
0.755772657627441	455714.871893539
0.7558986197370455	447088.59226314095
0.756024602840335	438460.8749194734
0.7561506069408084	429831.7196229153
0.7562766320419653	421201.1261338001
0.7564026781473054	412639.47894913313
0.75652874526033	404200.26318173227
0.7566548333845401	395759.6408783657
0.7567809425234375	387317.6118046183
0.7569070726805247	378874.17572603014
0.7570332238593047	370429.33240809664
0.7571593960632813	361983.0816162687
0.7572855892959586	353535.4231159751
0.7574118035608413	345527.66459261643
0.7575380388614347	337950.3173832534
0.7576642952012449	330371.707282686
0.7577905725837782	322791.8340804461
0.7579168710125422	315210.6975659923
0.7580431904910444	307628.29752878327
0.7581695310227928	300044.6337582442
0.7582958926112967	292459.7060437339
0.7584222752600652	285204.4742559172
0.7585486789726085	278138.1571986967
0.7586751037524372	271070.662421964
0.7588015496030628	264001.98972942133
0.7589280165279966	256932.13892477727
0.7590545045307512	249861.1098116658
0.7591810136148396	242788.9021937023
0.7593075437837755	235715.51587445865
0.7594340950410726	229094.5283824274
0.7595606673902461	222604.0368786242
0.7596872608348112	216112.4636262305
0.7598138753782836	209619.8084449686
0.75994051102418	203126.07115450373
0.7600671677760173	196631.25157449552
0.7601938456373134	190135.34952455235
0.7603205446115863	183638.36482427118
0.7604472647023548	177655.21888844395
0.7605740059131385	171722.2589066814
0.7607007682474575	165788.31009824947
0.7608275517088319	159853.37229836264
0.7609543563007835	153917.44534216262
0.7610811820268336	147980.52906480685
0.7612080288905045	142042.62330141623
0.7613348968953197	136124.3581135805
0.7614617860448022	130628.39324416165
0.7615886963424764	125131.51238059041
0.7617156277918667	119633.71537021389
0.7618425803964988	114135.00206033111
0.7619695541598982	108635.3722982315
0.7620965490855914	103134.82593117557
0.7622235651771058	97633.36280638544
0.7623506024379685	92326.96021760453
0.7624776608717082	87878.66376916441
0.7626047404818536	83429.62593798267
0.7627318412719337	78979.84660050338
0.762858963245479	74529.32563313171
0.7629861064060198	70078.06291226509
0.7631132707570876	65626.05831427369
0.7632404563022137	61173.31171551996
0.7633676630449308	57015.29601670276
0.7634948909887717	53485.55128136351
0.7636221401372697	49955.21825523962
0.7637494104939593	46424.296840274714
0.7638767020623748	42892.78693841241
0.7640040148460518	39360.68845156244
0.7641313488485262	35828.00128163147
0.7642587040733344	32294.72533050149
0.7643860805240132	29236.829087356127
0.7645134782041005	26746.396400924416
0.7646408971171346	24255.548642377264
0.764768337266654	21764.28574253793
0.7648957986561985	19272.607632214487
0.7650232812893079	16780.514242206318
0.7651507851695227	14288.005503299793
