#wavelength	surface flux
0.7	45723561.127558306
0.7001166666666666	45879533.13172872
0.7002333527777778	46261635.052385986
0.700350058336574	46643800.65669651
0.7004667833462966	47026029.955273926
0.7005835278101878	47408322.95873549
0.7007002917314895	47790679.67769702
0.7008170751134447	48173100.12277831
0.7009338779592968	48555584.304600276
0.7010507002722901	48810777.61074194
0.7011675420556689	48911031.33976133
0.701284403312678	49011301.7777354
0.7014012840465635	49111588.92744927
0.7015181842605713	49211892.79168808
0.701635103957948	49312213.37323752
0.701752043141941	49412550.67488387
0.701869001815798	49512904.69941397
0.7019859799827672	49469050.22723274
0.7021029776460976	49324815.81219066
0.7022199948090387	49180557.358079225
0.7023370314748403	49036274.86089217
0.7024540876467528	48891968.31662227
0.702571163328027	48747637.721261896
0.7026882585219152	48603283.070801914
0.7028053732316688	48458904.361233726
0.7029225074605406	48418496.0725938
0.7030396612117841	48418238.08883828
0.7031568344886527	48417980.062085465
0.7032740272944008	48417721.99232819
0.7033912396322832	48417463.879559286
0.7035084715055552	48417205.723771594
0.7036257229174727	48416947.52495793
0.7037429938712924	48416689.28311113
0.7038602843702709	48760117.53993459
0.7039775944176659	49161894.7873164
0.7040949240167356	49563738.997572936
0.7042122731707383	49965650.18186431
0.7043296418829335	50367628.35135327
0.7044470301565806	50769673.51720377
0.70456443799494	51171785.69058159
0.7046818654012724	51573964.88265522
0.7047993123788394	48954167.31934311
0.7049167789309024	46330465.193755254
0.7050342650607243	43706325.78447575
0.7051517707715678	41081749.01862925
0.7052692960666963	38456734.823323086
0.705386840949374	35831283.12565215
0.7055044054228656	33205393.852693986
0.7056219894904361	30958185.854247548
0.7057395931553511	31119863.716005784
0.705857216420877	31281568.524074443
0.7059748592902804	31443300.282944355
0.7060925217668288	31605058.997107573
0.70621020385379	31766844.671056457
0.7063279055544321	31928657.309284132
0.7064456268720246	32090496.91628509
0.7065633678098366	32257779.906169303
0.7066811283711383	32440007.66795614
0.7067989085592001	32622265.801036607
0.7069167083772933	32804554.31047247
0.7070345278286895	32986873.201326694
0.707152366916661	33169222.478662763
0.7072702256444803	33351602.147544842
0.7073881040154211	33534012.21303865
0.7075060020327569	33676362.73254922
0.7076239196997625	33760352.08751656
0.7077418570197124	33844355.440709636
0.7078598139958823	33928372.79446158
0.7079777906315483	34012404.151105896
0.7080957869299869	34096449.51297625
0.7082138028944751	34180508.882406875
0.7083318385282908	34264582.26173247
0.7084498938347124	34179358.58469579
0.708567968817018	33950575.320203565
0.7086860634784875	33721753.925166994
0.7088041778224007	33492894.393231068
0.7089223118520377	33263996.71804012
0.7090404655706796	33035060.89323677
0.709158638981608	32806086.912462354
0.709276832088105	32577074.769357763
0.7093950448934531	32517540.091002055
0.7095132774009353	32538839.324525293
0.7096315296138355	32560142.1079208
0.7097498015354378	32581448.4417802
0.7098680931690269	32602758.32669522
0.7099864045178884	32624071.76325775
0.7101047355853081	32645388.752059706
0.7102230863745722	32666709.293693114
0.7103414568889679	32689285.79399575
0.7104598471317828	32712150.63302695
0.7105782571063047	32735019.28286464
0.7106966868158224	32757891.74414397
0.710815136263625	32780768.017500173
0.7109336054530023	32803648.103568617
0.7110520943872445	32826532.002984732
0.7111706030696424	32849419.716384094
0.7112891315034873	33011093.832000725
0.7114076796920712	33179416.610246565
0.7115262476386865	33347767.442288782
0.7116448353466263	33516146.33280289
0.711763442819184	33684553.28646551
0.711882070059654	33852988.30795389
0.7120007170713306	34021451.40194574
0.7121193838575091	34171967.203872055
0.7122380704214853	34135029.59173546
0.7123567767665555	34098085.82333022
0.7124755028960166	34061135.89763022
0.7125942488131658	34024179.81360931
0.7127130145213015	33987217.57024095
0.7128318000237216	33950249.16649882
0.7129506053237256	33913274.60135601
0.7130694304246129	33859062.16236087
0.7131882753296837	33744592.554411165
0.7133071400422386	33630103.86819343
0.7134260245655789	33515596.10052808
0.7135449289030065	33401069.248234745
0.7136638530578235	33286523.308132757
0.7137827970333332	33171958.277040586
0.7139017608328388	33057374.151776593
0.7140207444596443	33029891.22988542
0.7141397479170543	33157817.697459687
0.7142587712083737	33285765.486111704
0.7143778143369084	33413734.599395268
0.7144968773059646	33541725.040864404
0.7146159601188489	33669736.81407374
0.7147350627788687	33797769.922578625
0.7148541852893318	33925824.36993488
0.7149733276535467	34083808.15194899
0.7150924898748222	34271976.81549566
0.715211671956468	34460176.840486296
0.7153308739017941	34648408.23214791
0.715450095714111	34836670.99570805
0.71556933739673	35024965.13639547
0.7156885989529628	35213290.659439646
0.7158078803861218	35401647.57007128
0.7159271816995193	35496998.45836275
0.7160465028964692	35537758.08023231
0.7161658439802853	35578524.49537217
0.7162852049542819	35619297.70491455
0.7164045858217744	35660077.70999187
0.716523986586078	35700864.5117367
0.7166434072505089	35741658.11128179
0.716762847818384	35782458.509760156
0.7168823082930204	35910718.67791337
0.7170017886777359	36064728.514255516
0.7171212889758488	36218764.01890363
0.7172408091906781	36372825.196135886
0.7173603493255433	36526912.05023107
0.7174799093837642	36681024.585468516
0.7175994893686615	36835162.80612857
0.7177190892835562	36989326.71649199
0.7178387091317702	37228940.55989845
0.7179583489166254	37477169.469429135
0.7180780086414448	37725439.75044494
0.7181976883095517	37973751.409840904
0.7183173879242699	38222104.45451345
0.718437107488924	38470498.89136018
0.7185568470068389	38718934.727279805
0.7186766064813399	38965831.35112877
0.7187963859157535	39173250.189952336
0.7189161853134061	39380703.59858235
0.719036004677625	39588191.5827805
0.7191558440117378	39795714.148309216
0.7192757033190732	40003271.30093248
0.7193955826029597	40210863.04641427
0.7195154818667269	40418489.39052048
0.7196354011137046	40581728.712419786
0.7197553403472235	40540470.13161762
0.7198752995706147	40499204.67438535
0.7199952787872098	40457932.33957683
0.720115278000341	40416653.12604585
0.7202352972133411	40375367.03264594
0.7203553364295432	40334074.058230534
0.7204753956522815	40292774.20165266
0.7205954748848902	40268294.38993644
0.7207155741307044	40280907.585878655
0.7208356933930594	40293522.88402017
0.7209558326752915	40306140.28471138
0.7210759919807375	40318759.78830273
0.7211961713127342	40331381.39514465
0.7213163706746197	40344005.105587736
0.7214365900697322	40356630.919982545
0.7215568295014103	40532894.522013
0.721677088972994	40904432.43808002
0.7217973684878227	41276032.27713244
0.7219176680492374	41647694.0494918
0.7220379876605789	42019417.76547967
0.722158327325189	42391203.435420334
0.7222786870464099	42763051.06963913
0.7223990668275843	43134960.67846378
0.7225194666720555	43348860.51484508
0.7226398865831676	43450766.58943626
0.7227603265642646	43552689.64837297
0.722880786618692	43654629.69448638
0.7230012667497951	43756586.73060741
0.7231217669609201	43858560.759567805
0.7232422872554135	43960551.7841996
0.7233628276366229	44062559.80733569
0.7234833881078956	44174455.61180084
0.7236039686725803	44290117.61979869
0.7237245693340255	44405798.90479768
0.7238451900955812	44521499.470011055
0.7239658309605971	44637219.31865183
0.7240864919324239	44752958.45393421
0.7242071730144127	44868716.879072465
0.724327874209915	44984494.59728133
0.7244485955222832	45350882.44515561
0.7245693369548704	45758764.43485565
0.7246900985110294	46166714.40488669
0.7248108801941148	46574732.366580494
0.7249316820074803	46982818.331266545
0.7250525039544815	47390972.31028071
0.7251733460384739	47799194.3149581
0.7252942082628137	48207133.99654928
0.7254150906308574	48412131.936868235
0.7255359931459625	48617164.0435106
0.7256569158114868	48822230.3221708
0.7257778586307888	49027330.77854421
0.7258988216072273	49232465.41832696
0.7260198047441617	49437634.24721611
0.7261408080449525	49642837.27091043
0.72626183151296	49820914.342980064
0.7263828751515454	49818526.30037667
0.7265039389640706	49816137.85976618
0.726625022953898	49813749.02108225
0.7267461271243904	49811359.784258544
0.7268672514789111	49808970.1492287
0.7269883960208241	49806580.11592635
0.7271095607534942	49804189.68428511
0.7272307456802866	49807950.743383236
0.7273519508045666	49828330.1668047
0.7274731761297006	49848712.98679672
0.7275944216590555	49869099.203925416
0.7277156873959987	49889488.81875697
0.7278369733438982	49909881.83185769
0.727958279506122	49930278.243793875
0.7280796058860397	49950678.055132076
0.7282009524870207	50031586.67007154
0.7283223193124353	50202002.99962693
0.7284437063656539	50372447.73190355
0.7285651136500483	50542920.87163584
0.7286865411689898	50713422.42355773
0.7288079889258514	50883952.392405346
0.7289294569240056	51054510.78291405
0.7290509451668262	51225097.59982137
0.7291724536576875	51579451.00044287
0.7292939823999636	52086110.2983689
0.7294155313970303	52592854.03951228
0.7295371006522632	53099682.2379457
0.7296586901690385	53606594.90774513
0.7297802999507332	54113592.06298931
0.7299019300007252	54620673.71776067
0.7300235803223919	55127839.886139795
0.7301452509191123	55518141.51073607
0.7302669417942654	55854528.06708556
0.7303886529512311	56190970.68786121
0.7305103843933897	56527469.38240708
0.7306321361241218	56864024.16006844
0.7307539081468093	57200635.030193344
0.7308757004648336	57537302.00212923
0.7309975130815778	57874025.08522749
0.7311193460004248	58249267.1885676
0.7312411992247582	58633279.34173744
0.7313630727579622	59017355.49693273
0.7314849666034219	59401495.66482093
0.7316068807645224	59785699.85607021
0.7317288152446498	60169968.08135154
0.7318507700471907	60554300.35133729
0.7319727451755319	60938696.67670122
0.732094740633061	61420943.41680486
0.7322167564231665	61907672.90375257
0.7323387925492371	62394483.512281455
0.7324608490146619	62881375.25591163
0.732582925822831	63368348.14816587
0.7327050229771347	63855402.20256825
0.7328271404809642	64342537.43264686
0.7329492783377112	64801889.086384535
0.7330714365507675	64987377.16398719
0.7331936151235259	65172896.156269394
0.7333158140593796	65358446.06838344
0.7334380333617229	65544026.90548312
0.7335602730339499	65729638.6727224
0.7336825330794556	65915281.375256255
0.7338048135016354	66100955.018240176
0.7339271143038857	66123919.65012168
0.734049435489603	65601597.66298705
0.7341717770621846	65079188.62218781
0.7342941390250283	64556692.51321537
0.7344165213815324	64034109.3215583
0.734538924135096	63511439.03270185
0.7346613472891185	62988681.63213128
0.734783790847	62465837.10532709
0.7349062548121412	61786081.38015909
0.7350287391879431	60829019.43573792
0.7351512439778078	59871797.98099073
0.7352737691851374	58914416.98933557
0.735396314813335	57956876.434180945
0.7355188808658037	56999176.288935386
0.7356414673459482	56041316.52699699
0.7357640742571725	55083297.12176561
0.7358867016028818	54708039.171239
0.7360093493864824	54908405.85629796
0.7361320176113801	55108805.93580415
0.736254706280982	55309239.41532359
0.7363774153986956	55509706.30042321
0.7365001449679286	55710206.59666994
0.7366228949920899	55910740.309632875
0.7367456654745885	56111307.444881305
0.7368684564188344	55908507.72091344
0.7369912678282374	55477680.856179774
0.7371140997062088	55046782.18696847
0.7372369520561599	54615811.701311894
0.7373598248815024	54184769.38724201
0.7374827181856494	53753655.232785724
0.7376056319720137	53322469.22597033
0.7377285662440091	52891211.3548204
0.7378515210050496	52962090.63090268
0.7379744962585505	53184081.137438916
0.738097492007927	53406108.64239285
0.7382205082565949	53628173.1519308
0.738343545007971	53850274.672220305
0.7384666022654723	54072413.209430076
0.7385896800325165	54294588.76972905
0.7387127783125219	54516801.35928835
0.7388358971089073	54359620.47721118
0.7389590364250921	54164355.57668991
0.7390821962644963	53969058.1320184
0.7392053766305403	53773728.13777307
0.7393285775266454	53578365.58852856
0.7394517989562333	53382970.47885898
0.7395750409227259	53187542.80333811
0.7396983034295463	53047576.08116326
0.739821586480118	54142080.785307035
0.7399448900778645	55236767.90689933
0.7400682142262109	56331637.47634855
0.740191558928582	57426689.524058186
0.7403149241884034	58521924.08044157
0.7404383100091014	59617341.17591796
0.7405617163941028	60712940.84090957
0.7406851433468352	61458664.14623518
0.7408085908707264	60603076.18454762
0.7409320589692048	59747345.62486686
0.7410555476456997	58891472.44342545
0.7411790569036406	58035456.61645443
0.7413025867464579	57179298.12017868
0.7414261371775823	56322996.930819966
0.7415497082004452	55466553.02459703
0.7416732998184786	54885662.09392241
0.741796912035115	54896095.939739764
0.7419205448537874	54906531.52453142
0.7420441982779297	54916968.84858721
0.742167872310976	54927407.912197016
0.7422915669563612	54937848.71565076
0.7424152822175206	54948291.25923841
0.7425390180978901	54958735.54324998
0.7426627746009065	54745986.42257606
0.7427865517300065	54261110.97885851
0.7429103494886282	53776154.72256649
0.7430341678802096	53291117.640232146
0.7431580069081896	52805999.718384095
0.7432818665760077	52320800.94354839
0.7434057468871037	51835521.302250616
0.7435296478449182	51350160.7810129
0.7436535694528923	50993463.46177824
0.7437775117144678	50724835.97528773
0.7439014746330868	50456163.717549875
0.7440254582121922	50187446.681102164
0.7441494624552276	49918684.85848161
0.7442734873656368	49649878.24222401
0.7443975329468645	49381026.82486348
0.7445215992023557	49112130.59893342
0.7446456861355559	48864269.64837656
0.7447697937499119	48624132.733618505
0.7448939220488703	48383955.796041384
0.7450180710358784	48143738.82897488
0.7451422407143843	47903481.82574717
0.7452664310878367	47663184.77968536
0.7453906421596846	47422847.68411613
0.7455148739333779	47182470.53236423
0.7456391264123667	47323643.35349887
0.7457633996001021	47525853.84009558
0.7458876935000356	47728098.028440416
0.7460120081156189	47930375.924149595
0.7461363434503048	48132687.53284149
0.7462606995075466	48335032.860135004
0.7463850762907978	48537411.91164944
0.7465094738035127	48738535.23410973
0.7466338920491467	48602376.80323924
0.746758331031155	48466195.67929681
0.7468827907529935	48329991.85850055
0.7470072712181189	48193765.337067485
0.7471317724299886	48057516.11121415
0.7472562943920602	47921244.17715661
0.7473808371077922	47784949.53110994
0.7475054005806435	47653966.95153359
0.7476299848140736	47555822.7079856
0.7477545898115426	47457662.107063666
0.7478792155765113	47359485.14604156
0.7480038621124406	47261291.822192684
0.7481285294227926	47163082.13278986
0.7482532175110298	47064856.07510536
0.7483779263806148	46966613.64641139
0.7485026560350116	46872279.204812914
0.7486274064776842	46788550.1764345
0.748752177712097	46704807.19321818
0.7488769697417158	46621050.25283781
0.749001782570006	46537279.35296747
0.7491266162004343	46453494.49128052
0.7492514706364677	46369695.66544992
0.7493763458815739	46285882.873148255
0.7495012419392209	46149005.655150376
0.7496261588128773	45935839.27049006
0.7497510965060128	45722637.35809882
0.7498760550220971	45509399.91205559
0.7500010343646007	45296126.92643799
0.7501260345369949	45082818.39532268
0.750251055542751	44869474.31278576
0.7503760973853414	44656094.672901616
0.7505011600682389	44409089.572914146
0.750626243594917	44133996.50962473
0.7507513479688495	43858857.597491845
0.7508764731935109	43583672.82887351
0.7510016192723765	43308442.196127005
0.7511267862089218	43033165.69160863
0.7512519740066232	42757843.30767273
0.7513771826689577	42482475.0366727
0.7515024121994025	42265910.19335172
0.7516276626014359	42076748.117139325
0.751752933878536	41887554.513914555
0.7518782260341824	41698329.37842252
0.7520035390718548	41509072.70540782
0.7521288729950334	41319784.48961438
0.7522542278071992	41130464.72578496
0.7523796035118337	40941113.40866148
0.7525050001124189	40750564.384233825
0.7526304176124378	40559729.990361914
0.7527558560153731	40368863.79075794
0.752881315324709	40177965.780120514
0.7530067955439299	39987035.9531479
0.7531322966765205	39796074.30453773
0.7532578187259665	39605080.828986056
0.7533833616957542	39414055.52118847
0.75350892558937	39056752.356399685
0.7536345104103016	38691572.27811265
0.7537601161620366	38326331.33647942
0.7538857428480638	37961029.52135557
0.7540113904718717	37595666.82259633
0.7541370590369503	37230243.23005405
0.7542627485467898	36864758.73357944
0.7543884590048808	36496250.64457297
0.7545141904147151	36098136.97234642
0.7546399427797842	35699956.94784179
0.7547657161035808	35301710.55999969
0.754891510389598	34903397.79775963
0.7550173256413296	34505018.650059044
0.7551431618622698	34106573.10583393
0.7552690190559135	33708061.15401821
0.7553948972257561	33288090.081560988
0.7555207963752938	32796241.767337095
0.755646716508023	32304311.47839444
0.755772657627441	31812299.201070134
0.7558986197370455	31320204.921699528
0.756024602840335	30828028.62661582
0.7561506069408084	30335770.3021496
0.7562766320419653	29843429.934628863
0.7564026781473054	29340033.921423256
0.75652874526033	28817243.419981115
0.7566548333845401	28294365.786788464
0.7567809425234375	27771401.007323794
0.7569070726805247	27248349.06706285
0.7570332238593047	26725209.951478597
0.7571593960632813	26201983.646041248
0.7572855892959586	25678670.136219632
0.7574118035608413	25152288.897720244
0.7575380388614347	24622903.999046892
0.7576642952012449	24093430.869556896
0.7577905725837782	23563869.494546082
0.7579168710125422	23034219.859305155
0.7580431904910444	22504481.94912482
0.7581695310227928	21974655.74929346
0.7582958926112967	21444741.2450948
0.7584222752600652	20845325.389604367
0.7585486789726085	20205934.49355955
0.7586751037524372	19566437.03236515
0.7588015496030628	18926832.9882593
0.7589280165279966	18287122.343480702
0.7590545045307512	17647305.080261305
0.7591810136148396	17007381.180831388
0.7593075437837755	16367350.627417289
0.7594340950410726	15866420.395074531
0.7595606673902461	15405795.71402882
0.7596872608348112	14945094.262202473
0.7598138753782836	14484316.026801331
0.75994051102418	14023460.99502719
0.7600671677760173	13562529.154081447
0.7601938456373134	13101520.49116186
0.7603205446115863	12640434.993465379
0.7604472647023548	12164352.508551043
0.7605740059131385	11686707.616458243
0.7607007682474575	11208983.116882961
0.7608275517088319	10731178.99655881
0.7609543563007835	10253295.242213547
0.7610811820268336	9775331.84057618
0.7612080288905045	9297288.77837279
0.7613348968953197	8821437.680706074
0.7614617860448022	8392116.278234
0.7615886963424764	7962723.3221942615
0.7617156277918667	7533258.800662265
0.7618425803964988	7103722.70170966
0.7619695541598982	6674115.013407344
0.7620965490855914	6244435.723823961
0.7622235651771058	5814684.82102515
0.7623506024379685	5406985.764614332
0.7624776608717082	5096188.34908349
0.7626047404818536	4785339.133983379
0.7627318412719337	4474438.110681285
0.762858963245479	4163485.2705417788
0.7629861064060198	3852480.6049288884
0.7631132707570876	3541424.1052047387
0.7632404563022137	3230315.762730915
0.7633676630449308	2953775.056155977
0.7634948909887717	2750881.653559287
0.7636221401372697	2547954.4353957614
0.7637494104939593	2344993.3960290174
0.7638767020623748	2141998.529822672
0.7640040148460518	1938969.831138394
0.7641313488485262	1735907.2943376766
0.7642587040733344	1532810.913780595
0.7643860805240132	1365583.0838326614
0.7645134782041005	1241169.7082737489
0.7646408971171346	1116735.5971521914
0.764768337266654	992280.7470121591
0.7648957986561985	867805.1543970634
0.7650232812893079	743308.8158498816
0.7651507851695227	618791.7279129408
0.7652783103003843	494253.8871280259
0.7654058566854343	412177.66630875994
0.7655334243282153	359040.6163453292
