#wavelength	surface flux
0.8	71359374.0476914
0.8002000000000001	71866950.19205324
0.8004000500000003	72467259.48975477
0.8006001500125003	73068654.27917948
0.8008003000500035	73670199.4173016
0.8010005001250161	74271894.9417085
0.8012007502500472	74873740.88999566
0.8014010504376099	75566273.71438232
0.8016014007002193	76289306.60488062
0.8018018010503944	77012520.25360152
0.8020022515006572	77735914.70573494
0.8022027520635323	78459490.00648077
0.8024033027515483	79138535.28457022
0.8026039035772362	79773935.36834256
0.8028045545531306	80409494.3021359
0.8030052556917691	81045212.12566298
0.803206007005692	81681088.87864538
0.8034068085074435	82270918.20184602
0.8036076602095705	82731371.66829887
0.8038085621246229	83191940.24811798
0.8040095142651542	83652623.97008233
0.8042105166437206	84113422.862977
0.8044115692728815	84575723.56592764
0.8046126721651998	85097780.3975048
0.8048138253332411	85619967.74328944
0.8050150287895745	86142285.63591102
0.805216282546772	86664734.1080056
0.8054175866174087	87187313.19221795
0.8056189410140631	87803748.92121372
0.8058203457493168	88446869.29607278
0.8060218008357541	89090150.45102474
0.8062233062859632	89733592.42626576
0.8064248621125346	90377195.26200014
0.806626468328063	91039687.76644242
0.8068281249451449	91718431.64002258
0.8070298319763813	92397345.19957198
0.8072315894343755	93076428.48751076
0.8074333973317341	93755681.54627177
0.8076352556810671	94438842.69544175
0.8078371644949874	95131173.2922094
0.8080391237861113	95823676.9716264
0.8082411335670578	96516353.77696283
0.8084431938504498	97209203.75150132
0.8086453046489125	97905539.02093898
0.8088474659750746	98663713.41471504
0.8090496778415686	99422077.35209057
0.809251940261029	100180630.88044989
0.8094542532460944	100939374.04719195
0.8096566168094059	101698306.89972483
0.8098590309636085	102392850.63079216
0.8100614957213493	103072452.78954925
0.8102640110952797	103752224.84884612
0.8104665770980536	104432166.8511581
0.8106691937423283	105112278.8389709
0.8108718610407639	105728833.68403265
0.8110745790060241	106296813.84514084
0.8112773476507757	106864936.0012898
0.8114801669876885	107433200.18797766
0.8116830370294355	108001606.44071186
0.8118859577886929	108587120.1090218
0.8120889292781401	109208017.85480909
0.8122919515104597	109829070.8250328
0.8124950244983374	110450279.0584991
0.8126981482544621	111071642.59402367
0.8129013227915257	111699524.10098648
0.8131045481222237	112400415.67092304
0.8133078242592543	113101482.46375215
0.8135111512153191	113802724.5232793
0.813714529003123	114504141.89332138
0.8139179576353739	115205734.61770612
0.8141214371247829	115840407.1976653
0.8143249674840641	116462227.49152258
0.814528548725935	117084203.24045293
0.8147321808631167	117706334.48332135
0.8149358639083326	118328621.25900032
0.8151395978743097	118747678.28815679
0.8153433827737784	119029424.42727219
0.8155472186194719	119311241.00292227
0.8157511054241268	119593128.0327162
0.815955043200483	119875085.53426778
0.8161590319612831	119754497.85958692
0.8163630717192736	118896135.90758923
0.8165671624872033	118037559.36510448
0.8167713042778252	117178768.17848328
0.8169754971038948	116319762.29406498
0.8171797409781707	115055097.39830649
0.8173840359134155	110553329.23990886
0.8175883819223938	106050435.63947682
0.8177927790178745	101546416.3156421
0.8179972272126291	97041270.98697525
0.8182017265194322	92534999.37198077
0.8184062769510622	91221926.97032125
0.8186108785203001	90400085.75989908
0.8188155312399301	89578039.08917543
0.8190202351227402	88755786.90678316
0.819224990181521	87933329.16134584
0.8194297964290664	91043624.0152993
0.8196346538781738	96525280.03004284
0.8198395625416434	102008306.45878789
0.8200445224322789	107492703.64414242
0.820249533562887	112978471.92879167
0.8204545959462778	116808182.18150587
0.8206597095952644	117971261.86808646
0.8208648745226633	119134632.32458958
0.8210700907412941	120298293.62370665
0.8212753582639793	121462245.83814733
0.8214806771035456	122555571.33340624
0.8216860472728215	123212230.68120429
0.8218914687846397	123869054.19383931
0.822096941651836	124526041.91235285
0.822302465887249	125183193.87779562
0.8225080415037209	125840510.13123012
0.8227136685140968	126515015.5823673
0.8229193469312254	127191622.33827642
0.8231250767679583	127868398.24587475
0.8233308580371503	128545343.3474496
0.8235366907516598	129222457.68530034
0.8237425749243477	130046216.41410276
0.8239485105680789	130947815.46708989
0.824154497695721	131849639.91983968
0.824360536320145	132751689.82870284
0.8245666264542252	133653965.25004315
0.8247727681108388	134237248.8904739
0.8249789613028664	134363499.02617335
0.8251852060431922	134489780.72440684
0.825391502344703	134616093.99306482
0.8255978502202894	134742438.8400401
0.8258042496828445	134766511.78931174
0.8260107007452654	134293746.68257284
0.8262172034204517	133820863.38455774
0.8264237577213068	133347861.865718
0.8266303636607373	132874742.09649837
0.8268370212516525	132401504.04733664
0.8270437305069654	132420924.39728664
0.8272504914395923	132478856.89947495
0.8274573040624523	132536803.88478881
0.8276641683884679	132594765.35684894
0.8278710844305652	132652741.31927717
0.8280780522016729	132743789.04848115
0.8282850717147234	132849969.95779096
0.8284921429826521	132956177.41232798
0.8286992660183978	133062411.41872871
0.8289064408349024	133168671.98363099
0.8291136674451112	133261596.02107656
0.8293209458619727	133337693.09938142
0.8295282760984382	133413809.20195577
0.829735658167463	133489944.33355585
0.8299430920820048	133566098.49893872
0.8301505778550254	133687015.86199471
0.8303581154994891	133986550.49626736
0.8305657050283641	134286160.0141989
0.8307733464546212	134585844.43450966
0.8309810397912352	134885603.77592602
0.8311887850511829	135185438.05717713
0.8313965822474458	135680841.47396493
0.8316044313930077	136185442.6604747
0.8318123325008561	136690169.99728155
0.8320202855839813	137195023.51592234
0.8322282906553774	137700003.24794286
0.8324363477280413	138120783.13608503
0.8326444568149735	138507718.83333492
0.8328526179291771	138894751.26450866
0.8330608310836596	139281880.45379075
0.8332690962914304	139669106.42536968
0.8334774135655034	139905124.31286758
0.833685782918895	139972188.6733241
0.8338942043646247	140039269.79987073
0.834102677915716	140106367.69669902
0.834311203585195	140173482.36800146
0.8345197813860912	140260141.3238176
0.8347284113314379	140412553.3551852
0.8349370934342709	140565003.48956054
0.8351458277076294	140717491.7364693
0.8353546141645565	140870018.10544005
0.8355634528180977	141022582.60600296
0.8357723436813022	141331675.76941398
0.8359812867672226	141642778.4653197
0.8361902820889144	141953958.93689921
0.8363993296594368	142265217.2035967
0.8366084294918518	142576553.284861
0.8368175815992247	142708603.32073367
0.8370267859946247	142778911.60677224
0.8372360426911234	142849237.4698823
0.8374453517017962	142919580.91445813
0.8376547130397217	142989941.94489512
0.8378641267179816	143231337.6021292
0.8380735927496613	143642486.9645509
0.8382831111478488	144053739.11431298
0.8384926819256358	144465094.07711226
0.8387023050961173	144876551.8786526
0.8389119806723914	145183847.05089355
0.8391217086675596	145197781.87769583
0.8393314890947265	145211720.18820477
0.8395413219670003	145225661.98329136
0.8397512072974922	145239607.26382673
0.8399611450993165	145259043.95454943
0.8401711353855914	145551013.84241426
0.8403811781694378	145843056.72275096
0.8405912734639802	146135172.61380783
0.8408014212823464	146427361.53383762
0.8410116216376671	146719623.50109735
0.8412218745430766	146549522.93911937
0.8414321800117124	146244828.93870875
0.8416425380567154	145940058.76479787
0.8418529486912297	145635212.39834344
0.8420634119284025	145330289.82029766
0.8422739277813847	145494543.61473504
0.8424844962633302	146072268.22472852
0.842695117387396	146650137.2658738
0.8429057911667428	147228150.77427936
0.8431165176145345	147806308.7860623
0.8433272967439382	147656369.78249803
0.8435381285681244	145730010.20041
0.8437490131002665	143803169.0284269
0.8439599503535415	141875846.146152
0.84417094034113	139948041.43315512
0.8443819830762154	138078770.1646188
0.8445930785719846	137397901.76846012
0.8448042268416277	136716863.15520284
0.8450154278983382	136035654.2822923
0.8452266817553128	135354275.1071636
0.8454379884257517	134672725.58724102
0.8456493479228583	134741228.35166854
0.845860760259839	134990410.8776515
0.846072225449904	135239655.69926596
0.8462837435062666	135488962.83208588
0.8464953144421433	135738332.29168913
0.8467069382707537	136085921.69879466
0.8469186150053215	136510108.84186226
0.847130344659073	136934402.03171572
0.8473421272452377	137358801.29486626
0.8475539627770492	137783306.657833
0.8477658512677435	138220796.90584525
0.8479777927305605	138685742.87462768
0.8481897871787432	139150805.07990217
0.848401834625538	139615983.55072826
0.8486139350841944	140081278.31617177
0.8488260885679657	140525519.48419717
0.8490382950901076	140711817.88953835
0.8492505546638802	140898162.86948097
0.8494628673025462	141084554.43566853
0.8496752330193721	141270992.5997479
0.8498876518276269	141457477.37336802
0.8501001237405839	140826939.59495243
0.8503126487715191	140033142.82506156
0.850525226933712	139239147.60597867
0.8507378582404455	138444953.888091
0.8509505427050057	137650561.6217734
0.8511632803406821	136732425.56794512
0.8513760711607672	135729454.14853257
0.8515889151785576	134726231.9862636
0.8518018124073523	133722759.01845492
0.8520147628604541	132719035.18240488
0.8522277665511693	132484919.47245418
0.8524408234928071	133674506.50135124
0.8526539336986805	134864390.92700586
0.8528670971821053	136054572.82376695
0.8530803139564007	137245052.26600084
0.8532935840348901	138442114.54086998
0.8535069074308987	139692557.91492036
0.8537202841577566	140943313.89981526
0.8539337142287962	142194382.57370657
0.8541471976573534	143445764.01476556
0.8543607344567677	144697458.30118504
0.8545743246403821	144680127.1953484
0.8547879682215422	144461206.32436985
0.8550016652135977	144242230.7231736
0.8552154156299011	144023200.37807703
0.8554292194838088	143804115.27539402
0.8556430767886797	143617428.94823357
0.855856987557877	143450400.88595802
0.8560709518047664	143283331.066667
0.8562849695427177	143116219.4799211
0.8564990407851035	142949066.11527845
0.8567131655452999	142665480.4688344
0.8569273438366862	142191114.21816057
0.8571415756726455	141716629.37592402
0.8573558610665638	141242025.91247672
0.8575702000318304	140767303.79816407
0.8577845925818384	140521536.4583463
0.857999038729984	141706584.86814824
0.8582135384896665	142891929.54005232
0.858428091874289	144077570.5481245
0.8586426988972576	145263507.96644834
0.8588573595719821	146449741.86912718
0.8590720739118751	146374041.7203319
0.8592868419303532	146149501.88605446
0.8595016636408359	145924905.9168184
0.8597165390567462	145700253.79859015
0.8599314681915105	145475545.5173323
0.8601464510585584	144676738.55874467
0.860361487671323	143573034.1464749
0.8605765780432408	142469053.8081024
0.8607917221877518	141364797.47464442
0.8610069201182988	140260265.07710335
0.8612221718483286	137457277.12402546
0.8614374773912907	132205432.97171548
0.8616528367606385	126952275.85836884
0.8618682499698288	121697805.45574054
0.8620837170323213	116442021.43551245
0.8622992379615795	112040123.19468419
0.8625148127710699	111869180.27742092
0.8627304414742627	111698194.62442833
0.8629461240846313	111527166.22502245
0.8631618606156526	111356095.06851672
0.8633776510808066	111184981.14422187
0.8635934954935769	114082652.97937667
0.8638093938674504	117232606.65813765
0.8640253462159173	120383347.82531822
0.8642413525524714	123534876.6777905
0.8644574128906095	126687193.41247524
0.8646735272438323	127597122.53829636
0.8648896956256433	127464140.29600897
0.8651059180495498	127331124.80816102
0.8653221945290621	127198076.06644124
0.8655385250776946	127064994.06253584
0.8657549097089641	127851119.93888716
0.8659713484363913	129814273.09220369
0.8661878412735006	131777917.03380945
0.866404388233819	133742051.88640034
0.8666209893308775	135706677.7727035
0.8668376445782103	137245265.64804956
0.8670543539893549	137043356.1146211
0.8672711175778525	136841396.10380915
0.8674879353572469	136639385.6029947
0.8677048073410862	136437324.599555
0.8679217335429217	136235213.08086428
0.8681387139763074	135819275.5381311
0.8683557486548015	135392614.18900383
0.8685728375919655	134965846.17453876
0.8687899808013633	134538971.468071
0.8690071782965637	134111990.0429261
0.869224430091138	133511715.82138489
0.8694417361986609	132840822.3460525
0.8696590966327107	132169761.14735143
0.869876511406869	131498532.18335065
0.8700939805347206	130827135.4121092
0.8703115040298544	130408025.72211376
0.870529081905862	130277440.27267893
0.8707467141763385	130146822.17688178
0.8709644008548827	130016171.42656067
0.8711821419550964	129885488.01355208
0.8713999374905854	129891778.16915236
0.871617787474958	130370925.9655079
0.8718356919218269	130850193.54881296
0.8720536508448075	131329580.94901386
0.8722716642575187	131809088.19606455
0.8724897321735832	132288715.31992722
0.8727078546066265	133492031.21227984
0.8729260315702784	134706655.78958103
0.873144263078171	135921584.02302527
0.8733625491439405	137136815.98852795
0.8735808897812266	138352351.76202253
0.8737992850036719	138532229.04564065
0.874017734824923	138345230.45986542
0.8742362392586293	138158185.1244438
0.874454798318444	137971093.02768835
0.8746734120180236	137783954.15790874
0.8748920803710283	137739356.17227536
0.875110803391121	137838034.05764124
0.8753295810919689	137936736.61247852
0.875548413487242	138035463.84295452
0.8757673005906139	138134215.75523812
0.8759862424157616	138828740.53505024
0.8762052389763657	141247264.41856003
0.8764242902861098	143666392.93303904
0.8766433963586814	146086126.2296473
0.8768625572077712	148506464.45958045
0.8770817728470732	150905665.0427475
0.8773010432902849	151607847.8263595
0.8775203685511077	152310206.15566844
0.8777397486432454	153012740.07455882
0.8779591835804065	153715449.6269298
0.8781786733763015	154418334.8566879
0.8783982180446457	153223459.20749316
0.878617817599157	151463684.17596135
0.8788374720535569	149703469.2006725
0.8790571814215703	147942814.17164028
0.8792769457169257	146181718.97885075
0.879496764953355	145388396.96549413
0.8797166391445934	145465364.109492
0.8799365683043796	145542350.4952759
0.8801565524464557	145619356.12765628
0.8803765915845676	145696381.0114448
0.8805966857324639	145960288.6051743
0.880816834903897	146693607.15217784
0.881037039112623	147427109.02881843
0.8812572983724012	148160794.2809281
0.8814776126969944	148894662.95435113
0.8816979821001687	149627616.19744453
0.8819184065956938	150334884.44678953
0.8821388861973429	151042329.51319763
0.8823594209188923	151749951.44087163
0.882580010774122	152457750.27402726
0.8828006557768155	153165726.05689153
0.8830213559407598	154909556.53088677
0.8832421112797452	156914306.41621417
0.8834629218075651	158919557.48901168
0.8836837875380171	160925309.874578
0.8839047084849018	162931563.69824103
0.884125684662023	162700350.8648219
0.8843467160831886	160675634.52086726
0.8845678027622095	158650411.99782664
0.8847889447129001	156624683.16915485
0.8850101419490785	154598447.9082763
0.8852313944845657	153576094.89817783
0.885452702333187	154751970.21506986
0.8856740655087704	155928139.50079092
0.8858954840251476	157104602.82883313
0.8861169578961539	158281360.2727068
0.886338487135628	159227369.61493585
0.886560071757412	157099041.69906247
0.8867817117753515	154970181.70121017
0.8870034072032955	152840789.48835745
0.8872251580550963	150710864.92745405
0.8874469643446101	148580407.8854091
0.8876688260856963	148374879.4928434
0.8878907432922178	148567798.60293734
0.8881127159780409	148760765.94280866
0.8883347441570356	148953781.5245152
0.8885568278430749	149146845.36011696
0.8887789670500358	148902713.31393263
0.8890011617917983	148348350.76006228
0.8892234120822464	147793849.61555323
0.8894457179352669	147239209.8457585
0.8896680793647509	146684431.41602087
0.8898904963845921	146557402.94706216
0.8901129690086883	147246765.5387309
0.8903354972509405	147936300.4710474
0.8905580811252535	148626007.7870975
0.8907807206455347	149315887.52997568
0.8910034158256963	150039211.6799619
0.8912261666796527	151060066.7612809
0.8914489732213227	152081177.05637047
0.8916718354646282	153102542.62903485
0.8918947534234944	154124163.5430914
0.8921177271118502	155146039.86237583
0.8923407565436284	155579107.78073066
0.8925638417327644	155916191.631465
0.8927869826931977	156253359.75316215
0.8930101794388711	156590612.16688967
0.8932334319837308	156927948.8937206
0.8934567403417267	157220722.37217343
0.8936801045268123	157485825.82712734
0.8939035245529441	157750995.55794483
0.8941270004340824	158016231.58119512
0.894350532184191	158281533.91345114
0.8945741198172371	159159612.50688058
0.8947977633471915	161054016.96181455
0.8950214627880284	162948895.01786217
0.8952452181537254	164844246.7934227
0.8954690294582639	166740072.40692824
0.8956928967156286	168537094.3767177
0.8959168199398075	169690289.34271973
0.8961407991447926	170843772.60746357
0.8963648343445789	171997544.24302354
0.896588925553165	173151604.32149178
0.8968130727845534	174305952.9149798
0.8970372760527496	174795359.86447972
0.8972615353717629	175201655.4672938
0.8974858507556059	175608052.64400864
0.8977102222182949	176014551.4200175
0.8979346497738496	176421151.82072064
0.8981591334362931	176822419.08345476
0.8983836732196523	177220814.50520116
0.8986082691379572	177619309.52580276
0.8988329212052417	178017904.17015952
0.8990576294355432	178416598.4631777
0.8992823938429022	178715962.96861613
0.8995072144413631	178867563.34199566
0.8997320912449734	179019201.61546847
0.8999570242677847	179170877.79850963
0.9001820135238516	179322591.90059653
0.9004070590272328	179674641.10842615
0.9006321607919896	181076804.46555322
0.9008573188321878	182479318.36352104
0.9010825331618959	183882182.88996264
0.9013078037951865	185285398.1325361
0.9015331307461353	186688964.17891946
0.9017585140288219	187561198.59451154
0.9019839536573292	188387855.87494203
0.9022094496457435	189214719.81969202
0.9024350020081551	190041790.48042914
0.9026606107586572	190869067.90883118
0.902886275911347	191606115.7688295
0.9031119974803249	192299751.25693733
0.9033377754796951	192993560.1539172
0.903563609923565	193687542.503121
0.903789500826046	194381698.34791255
0.9040154482012526	194708525.14006734
0.904241452063303	194559366.11988458
0.9044675124263188	194410169.8099468
0.9046936293044254	194260936.20093155
0.9049198027117517	194111665.283514
0.9051460326624297	193841429.51754844
0.9053723191705955	193056188.6343224
0.9055986622503881	192270751.44087628
0.9058250619159507	191485117.88813177
0.9060515181814298	190699287.92699862
0.9062780310609752	189913261.50837567
0.9065046005687405	190999864.51238602
0.906731226718883	192191218.5886975
0.9069579095255627	193382870.50352645
0.907184649002944	194574820.3313342
0.907411445165195	195767068.14660013
0.9076382980264862	196664185.9919223
0.907865207600993	197438837.4022189
0.9080921739028933	198213682.47536784
0.9083191969463691	198988721.25978497
0.9085462767456058	199763953.80389857
0.9087734133147922	200434483.87549713
0.9090006066681211	200984025.07524872
0.909227856819788	201533703.66029954
0.9094551637839932	202083519.66499737
0.9096825275749393	202633473.1236962
0.9099099482068329	203229044.53538576
0.9101374256938848	203986403.199826
0.9103649600503083	204743951.20393202
0.9105925512903209	205501688.5950389
0.9108201994281437	206259615.42049435
0.9110479044780008	207017731.7276553
0.9112756664541204	208385156.25199878
0.911503485370734	209766865.25185898
0.9117313612420768	211148919.67896914
0.9119592940823873	212531319.61968565
0.912187283905908	213914065.1603878
0.9124153307268845	214467308.10107094
0.9126434345595664	214719502.9304594
0.9128715954182063	214971760.80855498
0.9130998133170609	215224081.7511202
0.9133280882703902	215476465.77392107
0.913556420292458	215865210.67050236
