#wavelength	surface flux
0.7	89730135.58125931
0.7001166666666666	89638455.14886366
0.7002333527777778	90871669.84052303
0.700350058336574	92105090.06796375
0.7004667833462966	93338715.86544076
0.7005835278101878	94572547.26722077
0.7007002917314895	95806584.30756575
0.7008170751134447	97040827.0207506
0.7009338779592968	98275275.44105375
0.7010507002722901	99401887.77479993
0.7011675420556689	100397208.1555734
0.701284403312678	101392694.42307538
0.7014012840465635	102388346.6049567
0.7015181842605713	103384164.72886816
0.701635103957948	104380148.82246621
0.701752043141941	105376298.91341305
0.701869001815798	106372615.02937646
0.7019859799827672	106805134.43369217
0.7021029776460976	106845239.59606643
0.7022199948090387	106885351.44263448
0.7023370314748403	106925469.97451027
0.7024540876467528	106965595.19280803
0.702571163328027	107005727.09864211
0.7026882585219152	107045865.69312726
0.7028053732316688	107086010.9773781
0.7029225074605406	107252661.48790489
0.7030396612117841	107468186.65940411
0.7031568344886527	107683747.7517653
0.7032740272944008	107899344.77097505
0.7033912396322832	108114977.72302146
0.7035084715055552	108330646.613893
0.7036257229174727	108546351.44957978
0.7037429938712924	108762092.23607269
0.7038602843702709	109885229.8981619
0.7039775944176659	111162449.80160719
0.7040949240167356	112439882.57503691
0.7042122731707383	113717528.2539282
0.7043296418829335	114995386.87376668
0.7044470301565806	116273458.47004159
0.70456443799494	117551743.07824823
0.7046818654012724	118830240.73389034
0.7047993123788394	109075514.42421025
0.7049167789309024	99306500.96818416
0.7050342650607243	89535859.34323364
0.7051517707715678	79763589.27801688
0.7052692960666963	69989690.5011274
0.705386840949374	60214162.7411126
0.7055044054228656	50437005.7264552
0.7056219894904361	41988297.434277855
0.7057395931553511	41990686.70096471
0.705857216420877	41993076.36586269
0.7059748592902804	41995466.429038145
0.7060925217668288	41997856.89055746
0.70621020385379	42000247.75048704
0.7063279055544321	42002639.00889326
0.7064456268720246	42005030.665842555
0.7065633678098366	42080548.83405907
0.7066811283711383	42357470.24384536
0.7067989085592001	42634437.80719995
0.7069167083772933	42911451.531814925
0.7070345278286895	43188511.42538418
0.707152366916661	43465617.49560242
0.7072702256444803	43742769.75016537
0.7073881040154211	44019968.19677114
0.7075060020327569	44274795.84550528
0.7076239196997625	44497019.03011514
0.7077418570197124	44719279.251922205
0.7078598139958823	44941576.51709957
0.7079777906315483	45163910.83182133
0.7080957869299869	45386282.20226205
0.7082138028944751	45608690.634597726
0.7083318385282908	45831136.135005616
0.7084498938347124	45686425.067570135
0.708567968817018	45230375.60893698
0.7086860634784875	44774250.14206019
0.7088041778224007	44318048.65427188
0.7089223118520377	43861771.13290288
0.7090404655706796	43405417.56528058
0.709158638981608	42948987.93872981
0.709276832088105	42492482.24057453
0.7093950448934531	42313010.48851534
0.7095132774009353	42265665.587453976
0.7096315296138355	42218312.795575745
0.7097498015354378	42170952.11156555
0.7098680931690269	42123583.53410807
0.7099864045178884	42076207.061887614
0.7101047355853081	42028822.69358847
0.7102230863745722	41981430.42789464
0.7103414568889679	42107214.436476335
0.7104598471317828	42272370.93338297
0.7105782571063047	42437554.9563723
0.7106966868158224	42602766.51003211
0.710815136263625	42768005.59895084
0.7109336054530023	42933272.22771782
0.7110520943872445	43098566.40092287
0.7111706030696424	43263888.12315689
0.7112891315034873	43517541.78477062
0.7114076796920712	43775450.97855285
0.7115262476386865	44033403.1572007
0.7116448353466263	44291398.32787816
0.711763442819184	44549436.49775087
0.711882070059654	44807517.673985444
0.7120007170713306	45065641.863749236
0.7121193838575091	45281721.21395136
0.7122380704214853	45058870.96825907
0.7123567767665555	44835983.5808594
0.7124755028960166	44613059.045561716
0.7125942488131658	44390097.35617499
0.7127130145213015	44167098.506506085
0.7128318000237216	43944062.49036293
0.7129506053237256	43720989.30155009
0.7130694304246129	43509326.86917768
0.7131882753296837	43337655.17445247
0.7133071400422386	43165954.86777809
0.7134260245655789	42994225.94438605
0.7135449289030065	42822468.399506725
0.7136638530578235	42650682.22837002
0.7137827970333332	42478867.42620453
0.7139017608328388	42307023.98823873
0.7140207444596443	42278155.06129936
0.7141397479170543	42504384.75250121
0.7142587712083737	42730652.14865129
0.7143778143369084	42956957.25603423
0.7144968773059646	43183300.08093512
0.7146159601188489	43409680.62964009
0.7147350627788687	43636098.90843652
0.7148541852893318	43862554.92361267
0.7149733276535467	44095760.00840489
0.7150924898748222	44335771.51279711
0.715211671956468	44575823.019106776
0.7153308739017941	44815914.534001015
0.715450095714111	45056046.06414762
0.71556933739673	45296217.61621595
0.7156885989529628	45536429.196876265
0.7158078803861218	45776680.81280038
0.7159271816995193	45928314.19468736
0.7160465028964692	46027935.972062275
0.7161658439802853	46127574.35306675
0.7162852049542819	46227229.34046804
0.7164045858217744	46326900.937033966
0.716523986586078	46426589.14553261
0.7166434072505089	46526293.96873261
0.716762847818384	46626015.40940319
0.7168823082930204	46802000.67501516
0.7170017886777359	47000446.87465054
0.7171212889758488	47198926.14865239
0.7172408091906781	47397438.5025333
0.7173603493255433	47595983.94180659
0.7174799093837642	47794562.47198631
0.7175994893686615	47993174.09858781
0.7177190892835562	48191818.82712699
0.7178387091317702	48534336.153795965
0.7179583489166254	48891349.58791528
0.7180780086414448	49248422.52427388
0.7181976883095517	49605554.972788535
0.7183173879242699	49962746.94337798
0.718437107488924	50319998.4459626
0.7185568470068389	50677309.49046446
0.7186766064813399	51034542.16545765
0.7187963859157535	51388386.04155365
0.7189161853134061	51742288.89162897
0.719036004677625	52096250.72551268
0.7191558440117378	52450271.553035155
0.7192757033190732	52804351.38402937
0.7193955826029597	53158490.22832833
0.7195154818667269	53512688.09576832
0.7196354011137046	53798260.179016694
0.7197553403472235	53767642.68190024
0.7198752995706147	53737020.081867605
0.7199952787872098	53706392.37806829
0.720115278000341	53675759.56965166
0.7202352972133411	53645121.65576697
0.7203553364295432	53614478.635563344
0.7204753956522815	53583830.50818964
0.7205954748848902	53590699.041486
0.7207155741307044	53680290.195906766
0.7208356933930594	53769896.28218644
0.7209558326752915	53859517.30281385
0.7210759919807375	53949153.26027814
0.7211961713127342	54038804.15706857
0.7213163706746197	54128469.99567527
0.7214365900697322	54218150.77858832
0.7215568295014103	54514458.70732504
0.721677088972994	55057339.18065985
0.7217973684878227	55600310.13407265
0.7219176680492374	56143371.58264499
0.7220379876605789	56686523.541458435
0.722158327325189	57229766.02559855
0.7222786870464099	57773099.0501524
0.7223990668275843	58316522.63021057
0.7225194666720555	58660153.1516743
0.7226398865831676	58862178.412819475
0.7227603265642646	59064237.34484102
0.722880786618692	59266329.95335167
0.7230012667497951	59468456.2439636
0.7231217669609201	59670616.222290665
0.7232422872554135	59872809.893947266
0.7233628276366229	60075037.264549494
0.7234833881078956	60459148.80171289
0.7236039686725803	60912365.95995242
0.7237245693340255	61365658.65438427
0.7238451900955812	61819026.89759937
0.7239658309605971	62272470.70218781
0.7240864919324239	62725990.08074427
0.7242071730144127	63179585.04586386
0.724327874209915	63633255.61014334
0.7244485955222832	64314857.6096899
0.7245693369548704	65034247.24494846
0.7246900985110294	65753756.77847851
0.7248108801941148	66473386.230266064
0.7249316820074803	67193135.62029317
0.7250525039544815	67913004.96855313
0.7251733460384739	68632994.2950379
0.7252942082628137	69352978.52642258
0.7254150906308574	70000599.7230127
0.7255359931459625	70648328.85646899
0.7256569158114868	71296165.94478105
0.7257778586307888	71944111.00594148
0.7258988216072273	72592164.05794525
0.7260198047441617	73240325.1187903
0.7261408080449525	73888594.20647994
0.72626183151296	74476542.71691796
0.7263828751515454	74663006.35366182
0.7265039389640706	74849501.06767842
0.726625022953898	75036026.86414747
0.7267461271243904	75222583.74824937
0.7268672514789111	75409171.72516514
0.7269883960208241	75595790.80007692
0.7271095607534942	75782440.97816797
0.7272307456802866	76060531.95330647
0.7273519508045666	76585588.90991595
0.7274731761297006	77110733.37601797
0.7275944216590555	77635965.36619765
0.7277156873959987	78161284.89504254
0.7278369733438982	78686691.9771431
0.727958279506122	79212186.62708926
0.7280796058860397	79737768.85947773
0.7282009524870207	80422306.58894435
0.7283223193124353	81341941.72370084
0.7284437063656539	82261730.1309779
0.7285651136500483	83181671.83632435
0.7286865411689898	84101766.86528647
0.7288079889258514	85022015.2434223
0.7289294569240056	85942416.9962857
0.7290509451668262	86862972.14944232
0.7291724536576875	87968870.83254443
0.7292939823999636	89228403.76862013
0.7294155313970303	90488146.62685438
0.7295371006522632	91748099.4422313
0.7296586901690385	93008262.24974315
0.7297802999507332	94268635.08438903
0.7299019300007252	95529217.98117727
0.7300235803223919	96790010.97511159
0.7301452509191123	98009403.37522987
0.7302669417942654	99209792.76753743
0.7303886529512311	100410382.2247441
0.7305103843933897	101611171.78019392
0.7306321361241218	102812161.4672354
0.7307539081468093	104013351.31922686
0.7308757004648336	105214741.36952442
0.7309975130815778	106416331.65149847
0.7311193460004248	107702255.33326945
0.7312411992247582	109007440.00331298
0.7313630727579622	110312842.20413457
0.7314849666034219	111618461.97199093
0.7316068807645224	112924299.34314114
0.7317288152446498	114230354.3538538
0.7318507700471907	115536627.04040228
0.7319727451755319	116843117.43906467
0.732094740633061	118505989.36222762
0.7322167564231665	120185173.03671041
0.7323387925492371	121864636.57513902
0.7324608490146619	123544380.0241569
0.732582925822831	125224403.43041669
0.7327050229771347	126904706.8405756
0.7328271404809642	128585290.30130458
0.7329492783377112	130262459.82284614
0.7330714365507675	131903592.58508517
0.7331936151235259	133544998.86945082
0.7333158140593796	135186678.72152868
0.7334380333617229	136828632.18691772
0.7335602730339499	138470859.31121838
0.7336825330794556	140113360.14004016
0.7338048135016354	141756134.71899685
0.7339271143038857	143064776.64034775
0.734049435489603	143253145.74597225
0.7341717770621846	143441546.2464477
0.7342941390250283	143629978.1470065
0.7344165213815324	143818441.45288196
0.734538924135096	144006936.1693087
0.7346613472891185	144195462.30152124
0.734783790847	144384019.8547559
0.7349062548121412	144212764.8891864
0.7350287391879431	143405442.51193187
0.7351512439778078	142597985.58094615
0.7352737691851374	141790394.07380623
0.735396314813335	140982667.96808106
0.7355188808658037	140174807.24133962
0.7356414673459482	139366811.8711421
0.7357640742571725	138558681.83505005
0.7358867016028818	138928561.8895492
0.7360093493864824	140462027.8054277
0.7361320176113801	141995749.29895672
0.736254706280982	143529726.41273472
0.7363774153986956	145063959.189367
0.7365001449679286	146598447.6714589
0.7366228949920899	148133191.9016324
0.7367456654745885	149668191.9225109
0.7368684564188344	150170263.51165387
0.7369912678282374	150088484.80657023
0.7371140997062088	150006692.4717024
0.7372369520561599	149924886.50477868
0.7373598248815024	149843066.90352735
0.7374827181856494	149761233.66567564
0.7376056319720137	149679386.78895095
0.7377285662440091	149597526.27108014
0.7378515210050496	150484001.49349436
0.7379744962585505	151661971.33271345
0.738097492007927	152840137.50023875
0.7382205082565949	154018500.02879125
0.738343545007971	155197058.95109826
0.7384666022654723	156375814.2998935
0.7385896800325165	157554766.1079118
0.7387127783125219	158733914.40789956
0.7388358971089073	160007979.24053782
0.7389590364250921	161291757.06921217
0.7390821962644963	162575748.86085892
0.7392053766305403	163859954.65113574
0.7393285775266454	165144374.47571188
0.7394517989562333	166429008.37026
0.7395750409227259	167713856.37045515
0.7396983034295463	169141111.32020655
0.739821586480118	173731788.98591694
0.7399448900778645	178323231.7645625
0.7400682142262109	182915439.78368515
0.740191558928582	187508413.17080608
0.7403149241884034	192102152.05348793
0.7404383100091014	196696656.559318
0.7405617163941028	201291926.81589618
0.7406851433468352	204627878.83080348
0.7408085908707264	202199805.02722892
0.7409320589692048	199771326.54468828
0.7410555476456997	197342443.3157319
0.7411790569036406	194913155.27290583
0.7413025867464579	192483462.34873858
0.7414261371775823	190053364.47574997
0.7415497082004452	187622861.58645105
0.7416732998184786	186105911.5318772
0.741796912035115	186549328.3323266
0.7419205448537874	186992819.03557596
0.7420441982779297	187436383.65394253
0.742167872310976	187880022.1997459
0.7422915669563612	188323734.68530688
0.7424152822175206	188767521.12294868
0.7425390180978901	189211381.5249965
0.7426627746009065	189005346.36258572
0.7427865517300065	188006917.44708258
0.7429103494886282	187008322.12675914
0.7430341678802096	186009560.37388307
0.7431580069081896	185010632.16071492
0.7432818665760077	184011537.45950982
0.7434057468871037	183012276.24252203
0.7435296478449182	182012848.48199865
0.7436535694528923	181560795.07709283
0.7437775117144678	181483474.88919955
0.7439014746330868	181406141.8146084
0.7440254582121922	181328795.85117143
0.7441494624552276	181251436.99674052
0.7442734873656368	181174065.24916723
0.7443975329468645	181096680.60630262
0.7445215992023557	181019283.06599754
0.7446456861355559	180375301.01338387
0.7447697937499119	179522501.6918896
0.7448939220488703	178669560.2371753
0.7450180710358784	177816476.6255526
0.7451422407143843	176963250.83332786
0.7452664310878367	176109882.83680362
0.7453906421596846	175256372.6122809
0.7455148739333779	174402720.13605377
0.7456391264123667	175641661.46627024
0.7457633996001021	177215426.21411145
0.7458876935000356	178789453.2560801
0.7460120081156189	180363742.63588607
0.7461363434503048	181938294.3972561
0.7462606995075466	183513108.5839211
0.7463850762907978	185088185.23961484
0.7465094738035127	186656270.23372665
0.7466338920491467	186326964.9187151
0.746758331031155	185997604.71948403
0.7468827907529935	185668189.6268868
0.7470072712181189	185338719.6317742
0.7471317724299886	185009194.7249956
0.7472562943920602	184679614.8973995
0.7473808371077922	184349980.13983178
0.7475054005806435	184036196.52780288
0.7476299848140736	183820335.86207128
0.7477545898115426	183604439.21956202
0.7478792155765113	183388506.594279
0.7480038621124406	183172537.9802252
0.7481285294227926	182956533.37140247
0.7482532175110298	182740492.76181138
0.7483779263806148	182524416.14545232
0.7485026560350116	182375114.37229666
0.7486274064776842	182406608.7950997
0.748752177712097	182438108.46697316
0.7488769697417158	182469613.38879198
0.749001782570006	182501123.56143108
0.7491266162004343	182532638.9857656
0.7492514706364677	182564159.66267085
0.7493763458815739	182595685.59302232
0.7495012419392209	182619085.6325768
0.7496261588128773	182630800.0820443
0.7497510965060128	182642516.4839201
0.7498760550220971	182654234.8385295
0.7500010343646007	182665955.146198
0.7501260345369949	182677677.40725115
0.750251055542751	182689401.62201443
0.7503760973853414	182701127.79081354
0.7505011600682389	182408759.50330323
0.750626243594917	181862428.93831837
0.7507513479688495	181316007.3182402
0.7508764731935109	180769494.6278918
0.7510016192723765	180222890.8520949
0.7511267862089218	179676195.97566918
0.7512519740066232	179129409.98343053
0.7513771826689577	178582532.86019287
0.7515024121994025	178205443.04722604
0.7516276626014359	177907497.26900366
0.751752933878536	177609501.83315212
0.7518782260341824	177311456.73139447
0.7520035390718548	177013361.9554531
0.7521288729950334	176715217.4970492
0.7522542278071992	176417023.3479022
0.7523796035118337	176118779.49973023
0.7525050001124189	176141944.290879
0.7526304176124378	176235022.94399163
0.7527558560153731	176328117.110213
0.752881315324709	176421226.79212883
0.7530067955439299	176514351.992325
0.7531322966765205	176607492.7133878
0.7532578187259665	176700648.95790407
0.7533833616957542	176793820.72846112
0.75350892558937	175975650.58144408
0.7536345104103016	175114489.44092667
0.7537601161620366	174253184.77355298
0.7538857428480638	173391736.55540055
0.7540113904718717	172530144.7625462
0.7541370590369503	171668409.37105992
0.7542627485467898	170806530.35700783
0.7543884590048808	169953137.4583978
0.7545141904147151	169185659.29160103
0.7546399427797842	168418053.2117777
0.7547657161035808	167650319.19760758
0.754891510389598	166882457.22776848
0.7550173256413296	166114467.28093413
0.7551431618622698	165346349.33577546
0.7552690190559135	164578103.37095943
0.7553948972257561	163601115.88393497
0.7555207963752938	161923728.64845464
0.755646716508023	160246061.84843603
0.755772657627441	158568115.4372835
0.7558986197370455	156889889.3683955
0.756024602840335	155211383.59516314
0.7561506069408084	153532598.0709686
0.7562766320419653	151853532.74918517
0.7564026781473054	150145247.70782754
0.75652874526033	148385751.49259236
0.7566548333845401	146625962.02798706
0.7567809425234375	144865879.2651383
0.7569070726805247	143105503.15516338
0.7570332238593047	141344833.64917037
0.7571593960632813	139583870.698258
0.7572855892959586	137822614.25352043
0.7574118035608413	135850675.34526134
0.7575380388614347	133672577.43319318
0.7576642952012449	131494116.50480552
0.7577905725837782	129315292.4995996
0.7579168710125422	127136105.3570556
0.7580431904910444	124956555.0166537
0.7581695310227928	122776641.41786449
0.7582958926112967	120596364.50013939
0.7584222752600652	115469989.67525208
0.7585486789726085	108650548.38995564
0.7586751037524372	101829970.53110906
0.7588015496030628	95008255.9092727
0.7589280165279966	88185404.33501285
0.7590545045307512	81361415.61882398
0.7591810136148396	74536289.57118255
0.7593075437837755	67710026.00252312
0.7594340950410726	66320605.38785512
0.7595606673902461	66508710.270607024
0.7596872608348112	66696846.50417291
0.7598138753782836	66885014.093777515
0.75994051102418	67073213.04464723
0.7600671677760173	67261443.3620086
0.7601938456373134	67449705.05108969
0.7603205446115863	67637998.11711885
0.7604472647023548	66917563.183557205
0.7605740059131385	66106677.603514194
0.7607007682474575	65295656.87587373
0.7608275517088319	64484500.978113785
0.7609543563007835	63673209.88770242
0.7610811820268336	62861783.5821098
0.7612080288905045	62050222.03880115
0.7613348968953197	61208833.90260714
0.7614617860448022	59758104.949389026
0.7615886963424764	58307134.208010055
0.7617156277918667	56855921.63817559
0.7618425803964988	55404467.1995783
0.7619695541598982	53952770.8519083
0.7620965490855914	52500832.55484808
0.7622235651771058	51048652.26807001
0.7623506024379685	49458102.55651422
0.7624776608717082	47261860.30439518
0.7626047404818536	45065252.01190068
0.7627318412719337	42868277.61802787
0.762858963245479	40670937.06175471
0.7629861064060198	38473230.2820553
0.7631132707570876	36275157.21789033
0.7632404563022137	34076717.80821664
0.7633676630449308	31923924.838544574
0.7634948909887717	29868719.14323238
0.7636221401372697	27813170.913640305
0.7637494104939593	25757280.092674695
0.7638767020623748	23701046.62324189
0.7640040148460518	21644470.44822851
0.7641313488485262	19587551.510519363
0.7642587040733344	17530289.752984934
0.7643860805240132	15685372.027574059
0.7645134782041005	14093946.055710241
0.7646408971171346	12502254.846183786
0.764768337266654	10910298.35478966
0.7648957986561985	9318076.537313119
0.7650232812893079	7725589.349533876
0.7651507851695227	6132836.747223323
0.7652783103003843	4539818.686145915
