#wavelength	surface flux
0.7	68343.83368911725
0.7001166666666666	68446.90205609563
0.7002333527777778	68455.53853707922
0.700350058336574	68464.17645747631
0.7004667833462966	68472.81581752679
0.7005835278101878	68481.45661747063
0.7007002917314895	68490.09885754777
0.7008170751134447	68498.74253799826
0.7009338779592968	68507.38765906217
0.7010507002722901	68520.71273592544
0.7011675420556689	68539.73347528269
0.701284403312678	68558.75738476314
0.7014012840465635	68577.7844648952
0.7015181842605713	68596.81471620729
0.701635103957948	68615.8481392279
0.701752043141941	68634.88473448568
0.701869001815798	68653.92450250937
0.7019859799827672	68757.5044269238
0.7021029776460976	68919.9345948078
0.7022199948090387	69082.39183438664
0.7023370314748403	69244.87615017201
0.7024540876467528	69407.38754667666
0.702571163328027	69569.92602841379
0.7026882585219152	69732.4915998983
0.7028053732316688	69895.0842656445
0.7029225074605406	70112.9372961649
0.7030396612117841	70352.1547325876
0.7031568344886527	70591.41203858308
0.7032740272944008	70830.70922079607
0.7033912396322832	71070.04628587289
0.7035084715055552	71309.42324046031
0.7036257229174727	71548.84009120692
0.7037429938712924	71788.29684476223
0.7038602843702709	71840.3763689831
0.7039775944176659	71860.6772548975
0.7040949240167356	71880.9815242929
0.7042122731707383	71901.2891777332
0.7043296418829335	71921.60021578241
0.7044470301565806	71941.91463900462
0.70456443799494	71962.23244796402
0.7046818654012724	71982.55364322492
0.7047993123788394	72173.19480996384
0.7049167789309024	72364.06319606921
0.7050342650607243	72554.96339357254
0.7051517707715678	72745.89540777539
0.7052692960666963	72936.85924398049
0.705386840949374	73127.85490749155
0.7055044054228656	73318.88240361352
0.7056219894904361	73485.62293203619
0.7057395931553511	73497.84782971608
0.705857216420877	73510.07476487893
0.7059748592902804	73522.30373786429
0.7060925217668288	73534.53474901183
0.70621020385379	73546.76779866123
0.7063279055544321	73559.00288715221
0.7064456268720246	73571.24001482464
0.7065633678098366	73606.9401165384
0.7066811283711383	73707.25801215199
0.7067989085592001	73807.59262741484
0.7069167083772933	73907.94396511349
0.7070345278286895	74008.31202803517
0.707152366916661	74108.69681896735
0.7072702256444803	74209.0983406979
0.7073881040154211	74309.51659601556
0.7075060020327569	74437.23104267531
0.7076239196997625	74604.69513742924
0.7077418570197124	74772.18714286547
0.7078598139958823	74939.70706363591
0.7079777906315483	75107.25490439332
0.7080957869299869	75274.83066979074
0.7082138028944751	75442.43436448228
0.7083318385282908	75610.06599312308
0.7084498938347124	75651.55019536147
0.708567968817018	75586.06725902113
0.7086860634784875	75520.573408858
0.7088041778224007	75455.06864305312
0.7089223118520377	75389.55295978735
0.7090404655706796	75324.02635724109
0.709158638981608	75258.48883359433
0.709276832088105	75192.94038702693
0.7093950448934531	75252.98397471283
0.7095132774009353	75372.93897581498
0.7096315296138355	75492.91396941734
0.7097498015354378	75612.90895885194
0.7098680931690269	75732.92394745135
0.7099864045178884	75852.95893854898
0.7101047355853081	75973.01393547846
0.7102230863745722	76093.08894157401
0.7103414568889679	76213.0267294933
0.7104598471317828	76332.94878052987
0.7105782571063047	76452.89081857486
0.7106966868158224	76572.8528469595
0.710815136263625	76692.83486901553
0.7109336054530023	76812.8368880753
0.7110520943872445	76932.85890747154
0.7111706030696424	77052.90093053775
0.7112891315034873	77050.44971052777
0.7114076796920712	77042.15262198608
0.7115262476386865	77033.8541505963
0.7116448353466263	77025.55429612796
0.711763442819184	77017.25305835053
0.711882070059654	77008.95043703346
0.7120007170713306	77000.6464319462
0.7121193838575091	76993.23422698268
0.7122380704214853	76995.13646843958
0.7123567767665555	76997.03902693672
0.7124755028960166	76998.94190252695
0.7125942488131658	77000.8450952631
0.7127130145213015	77002.74860519805
0.7128318000237216	77004.65243238464
0.7129506053237256	77006.55657687578
0.7130694304246129	77008.49255428933
0.7131882753296837	77010.53904388337
0.7133071400422386	77012.58587455902
0.7134260245655789	77014.63304637311
0.7135449289030065	77016.68055938251
0.7136638530578235	77018.72841364407
0.7137827970333332	77020.77660921469
0.7139017608328388	77022.82514615123
0.7140207444596443	77017.98582647729
0.7141397479170543	77000.85783860083
0.7142587712083737	76983.72699605975
0.7143778143369084	76966.59329837823
0.7144968773059646	76949.45674508042
0.7146159601188489	76932.3173356904
0.7147350627788687	76915.17506973215
0.7148541852893318	76898.02994672958
0.7149733276535467	76825.09119727746
0.7150924898748222	76695.882126975
0.715211671956468	76566.65152182746
0.7153308739017941	76437.39937824562
0.715450095714111	76308.12569263992
0.71556933739673	76178.83046141993
0.7156885989529628	76049.51368099476
0.7158078803861218	75920.17534777265
0.7159271816995193	75591.80586129423
0.7160465028964692	75146.57542910866
0.7161658439802853	74701.2707918511
0.7162852049542819	74255.89193715408
0.7164045858217744	73810.43885264767
0.716523986586078	73364.91152596069
0.7166434072505089	72919.3099447195
0.716762847818384	72473.63409654792
0.7168823082930204	72143.40953714233
0.7170017886777359	71847.11707080725
0.7171212889758488	71550.77522239463
0.7172408091906781	71254.38398367385
0.7173603493255433	70957.9433464132
0.7174799093837642	70661.45330237984
0.7175994893686615	70364.91384333902
0.7177190892835562	70068.32496105514
0.7178387091317702	70217.99940929652
0.7179583489166254	70412.50096029048
0.7180780086414448	70607.03492820974
0.7181976883095517	70801.601318457
0.7183173879242699	70996.20013643597
0.718437107488924	71190.83138755134
0.7185568470068389	71385.49507720862
0.7186766064813399	71571.52513092727
0.7187963859157535	71540.9150940597
0.7189161853134061	71510.29995551932
0.719036004677625	71479.67971445585
0.7191558440117378	71449.0543700189
0.7192757033190732	71418.42392135783
0.7193955826029597	71387.78836762201
0.7195154818667269	71357.14770796054
0.7196354011137046	71327.64731280717
0.7197553403472235	71303.41549505192
0.7198752995706147	71279.1796386604
0.7199952787872098	71254.93974295944
0.720115278000341	71230.69580727589
0.7202352972133411	71206.44783093638
0.7203553364295432	71182.1958132675
0.7204753956522815	71157.93975359565
0.7205954748848902	71225.61889531874
0.7207155741307044	71496.0009881898
0.7208356933930594	71766.42814474253
0.7209558326752915	72036.9003724881
0.7210759919807375	72307.41767893865
0.7211961713127342	72577.98007160658
0.7213163706746197	72848.58755800707
0.7214365900697322	73119.240145655
0.7215568295014103	73214.36125264433
0.721677088972994	73100.00576381697
0.7217973684878227	72985.63121574167
0.7219176680492374	72871.23760524153
0.7220379876605789	72756.82492913974
0.722158327325189	72642.39318425854
0.7222786870464099	72527.94236741994
0.7223990668275843	72413.47247544513
0.7225194666720555	72195.80209090104
0.7226398865831676	71904.96817654188
0.7227603265642646	71614.08578986436
0.722880786618692	71323.15492278842
0.7230012667497951	71032.17556723485
0.7231217669609201	70741.14771512197
0.7232422872554135	70450.07135836734
0.7233628276366229	70158.94648888608
0.7234833881078956	70140.33340630164
0.7236039686725803	70225.19785178338
0.7237245693340255	70310.0764413392
0.7238451900955812	70394.9691773268
0.7239658309605971	70479.87606210362
0.7240864919324239	70564.79709802801
0.7242071730144127	70649.7322874584
0.724327874209915	70734.68163275352
0.7244485955222832	70296.11305359821
0.7245693369548704	69770.90977286657
0.7246900985110294	69245.61895825558
0.7248108801941148	68720.24059517408
0.7249316820074803	68194.77466903384
0.7250525039544815	67669.22116523837
0.7251733460384739	67143.5800691922
0.7252942082628137	66618.75849546556
0.7254150906308574	66619.46882319171
0.7255359931459625	66620.17926930581
0.7256569158114868	66620.88983382759
0.7257778586307888	66621.60051677679
0.7258988216072273	66622.31131817315
0.7260198047441617	66623.0222380364
0.7261408080449525	66623.73327638631
0.72626183151296	66624.44957488414
0.7263828751515454	66625.20016192313
0.7265039389640706	66625.95087405996
0.726625022953898	66626.70171131547
0.7267461271243904	66627.45267371053
0.7268672514789111	66628.203761266
0.7269883960208241	66628.95497400271
0.7271095607534942	66629.70631194155
0.7272307456802866	66610.56402895918
0.7273519508045666	66537.68074544576
0.7274731761297006	66464.78531471845
0.7275944216590555	66391.87773475269
0.7277156873959987	66318.95800352358
0.7278369733438982	66246.02611900581
0.727958279506122	66173.08207917414
0.7280796058860397	66100.12588200242
0.7282009524870207	65896.73167153924
0.7283223193124353	65500.38919987906
0.7284437063656539	65103.980671141086
0.7285651136500483	64707.50607431434
0.7286865411689898	64310.96539838894
0.7288079889258514	63914.358632349926
0.7289294569240056	63517.68576518415
0.7290509451668262	63120.94678587339
0.7291724536576875	62795.484583375925
0.7292939823999636	62529.08340971057
0.7294155313970303	62262.63783584908
0.7295371006522632	61996.14785439201
0.7296586901690385	61729.61345793824
0.7297802999507332	61463.03463908518
0.7299019300007252	61196.411390428286
0.7300235803223919	60929.743704564
0.7301452509191123	60815.05322369309
0.7302669417942654	60770.51217683202
0.7303886529512311	60725.96370646312
0.7305103843933897	60681.40781134914
0.7306321361241218	60636.84449025268
0.7307539081468093	60592.27374193597
0.7308757004648336	60547.69556516129
0.7309975130815778	60503.10995869043
0.7311193460004248	60515.9741211746
0.7312411992247582	60541.84800424033
0.7313630727579622	60567.726199619894
0.7314849666034219	60593.60870803205
0.7316068807645224	60619.4955301956
0.7317288152446498	60645.386666829516
0.7318507700471907	60671.28211865288
0.7319727451755319	60697.181886384875
0.732094740633061	60490.7854465567
0.7322167564231665	60273.89636415304
0.7323387925492371	60056.97113356897
0.7324608490146619	59840.00974877987
0.732582925822831	59623.012203759914
0.7327050229771347	59405.9784924827
0.7328271404809642	59188.90860892006
0.7329492783377112	58973.35227016453
0.7330714365507675	58772.99542371514
0.7331936151235259	58572.60518445806
0.7333158140593796	58372.181546828
0.7334380333617229	58171.724505258026
0.7335602730339499	57971.23405418104
0.7336825330794556	57770.710188028825
0.7338048135016354	57570.152901232635
0.7339271143038857	57410.56657964829
0.734049435489603	57388.34648850739
0.7341717770621846	57366.122694017955
0.7342941390250283	57343.895195562785
0.7344165213815324	57321.66399252455
0.734538924135096	57299.42908428577
0.7346613472891185	57277.19047022898
0.734783790847	57254.94814973651
0.7349062548121412	57122.23982908482
0.7350287391879431	56794.26277595403
0.7351512439778078	56466.23105998038
0.7352737691851374	56138.14467205446
0.735396314813335	55810.0036030636
0.7355188808658037	55481.80784389511
0.7356414673459482	55153.55738543277
0.7357640742571725	54825.2522185609
0.7358867016028818	54545.430340082756
0.7360093493864824	54313.49748264553
0.7361320176113801	54081.52596973238
0.736254706280982	53849.5157949004
0.7363774153986956	53617.46695170565
0.7365001449679286	53385.37943370418
0.7366228949920899	53153.25323444953
0.7367456654745885	52921.088347494995
0.7368684564188344	52687.87605893175
0.7369912678282374	52454.0548014552
0.7371140997062088	52220.19457376896
0.7372369520561599	51986.29536937789
0.7373598248815024	51752.35718178661
0.7374827181856494	51518.38000449701
0.7376056319720137	51284.36383101118
0.7377285662440091	51050.30865482973
0.7378515210050496	50704.522999852394
0.7379744962585505	50325.075148549324
0.738097492007927	49945.56405593779
0.7382205082565949	49565.989711477734
0.738343545007971	49186.352104627
0.7384666022654723	48806.651224841415
0.7385896800325165	48426.88706157644
0.7387127783125219	48047.05960428377
0.7388358971089073	48024.39335423827
0.7389590364250921	48037.553831675046
0.7390821962644963	48050.71650252473
0.7392053766305403	48063.88136715287
0.7393285775266454	48077.048425925124
0.7394517989562333	48090.217679207184
0.7395750409227259	48103.38912736477
0.7396983034295463	48106.35461257748
0.739821586480118	47882.23251617571
0.7399448900778645	47658.07306609165
0.7400682142262109	47433.87625609856
0.740191558928582	47209.64207997071
0.7403149241884034	46985.37053148035
0.7404383100091014	46761.06160439852
0.7405617163941028	46536.715292495646
0.7406851433468352	46297.07894727586
0.7408085908707264	45987.625492425774
0.7409320589692048	45678.12046200003
0.7410555476456997	45368.563847402285
0.7411790569036406	45058.955640035674
0.7413025867464579	44749.29583130108
0.7414261371775823	44439.584412598284
0.7415497082004452	44129.82137532593
0.7416732998184786	43818.96355177137
0.741796912035115	43505.81613690812
0.7419205448537874	43192.61653080914
0.7420441982779297	42879.36472477581
0.742167872310976	42566.06071010786
0.7422915669563612	42252.70447810414
0.7424152822175206	41939.29602006183
0.7425390180978901	41625.83532727671
0.7426627746009065	41371.573089493155
0.7427865517300065	41189.4993189206
0.7429103494886282	41007.39520271942
0.7430341678802096	40825.260735832344
0.7431580069081896	40643.09591320081
0.7432818665760077	40460.90072976523
0.7434057468871037	40278.67518046591
0.7435296478449182	40096.419260241804
0.7436535694528923	39873.641251929854
0.7437775117144678	39623.10829501037
0.7439014746330868	39372.53358259844
0.7440254582121922	39121.917107734225
0.7441494624552276	38871.258863457435
0.7442734873656368	38620.55884280665
0.7443975329468645	38369.81703881889
0.7445215992023557	38119.03344453049
0.7446456861355559	37852.199130357534
0.7447697937499119	37579.423081773675
0.7448939220488703	37306.60157051512
0.7450180710358784	37033.734589004926
0.7451422407143843	36760.82212966445
0.7452664310878367	36487.86418491382
0.7453906421596846	36214.8607471727
0.7455148739333779	35941.81180885853
0.7456391264123667	35697.49129753545
0.7457633996001021	35457.730859247604
0.7458876935000356	35217.93046088628
0.7460120081156189	34978.09009579236
0.7461363434503048	34738.20975730414
0.7462606995075466	34498.28943875928
0.7463850762907978	34258.32913349504
0.7465094738035127	34018.30219997841
0.7466338920491467	33771.26772859811
0.746758331031155	33524.19208480568
0.7468827907529935	33277.07526173958
0.7470072712181189	33029.91725253628
0.7471317724299886	32782.71805033141
0.7472562943920602	32535.47764825968
0.7473808371077922	32288.196039454047
0.7475054005806435	32039.393579996944
0.7476299848140736	31781.43566951147
0.7477545898115426	31523.43476604086
0.7478792155765113	31265.390862419605
0.7480038621124406	31007.303951481288
0.7481285294227926	30749.17402605787
0.7482532175110298	30491.001078979945
0.7483779263806148	30232.78510307787
0.7485026560350116	29976.13671363194
0.7486274064776842	29723.804638803264
0.748752177712097	29471.430508629248
0.7488769697417158	29219.014316099663
0.749001782570006	28966.55605420496
0.7491266162004343	28714.05571593335
0.7492514706364677	28461.513294271914
0.7493763458815739	28208.928782206614
0.7495012419392209	27953.23174530061
0.7496261588128773	27693.077986901106
0.7497510965060128	27432.88086954169
0.7498760550220971	27172.640385996136
0.7500010343646007	26912.35652903662
0.7501260345369949	26652.02929143415
0.750251055542751	26391.658665959043
0.7503760973853414	26131.244645379527
0.7505011600682389	25874.212343963973
0.750626243594917	25619.997101965055
0.7507513479688495	25365.739490759526
0.7508764731935109	25111.43950328537
0.7510016192723765	24857.09713247991
0.7511267862089218	24602.71237127955
0.7512519740066232	24348.285212618903
0.7513771826689577	24093.815649431664
0.7515024121994025	23851.068856029364
0.7516276626014359	23613.767193553602
0.751752933878536	23376.425980801174
0.7518782260341824	23139.045211179873
0.7520035390718548	22901.624878096864
0.7521288729950334	22664.164974958465
0.7522542278071992	22426.665495169524
0.7523796035118337	22189.126432133835
0.7525050001124189	21948.42216084438
0.7526304176124378	21706.998020074396
0.7527558560153731	21465.533641947928
0.752881315324709	21224.029019758204
0.7530067955439299	20982.484146798026
0.7531322966765205	20740.899016359344
0.7532578187259665	20499.273621732184
0.7533833616957542	20257.607956205924
0.75350892558937	20016.78896694578
0.7536345104103016	19775.971548293342
0.7537601161620366	19535.113993404582
0.7538857428480638	19294.216295589777
0.7540113904718717	19053.278448158977
0.7541370590369503	18812.30044442033
0.7542627485467898	18571.282277680904
0.7543884590048808	18331.725656020306
0.7545141904147151	18107.104378136548
0.7546399427797842	17882.445663373503
0.7547657161035808	17657.749505491298
0.754891510389598	17433.015898249458
0.7550173256413296	17208.24483540632
0.7551431618622698	16983.43631071943
0.7552690190559135	16758.590317945138
0.7553948972257561	16534.020199119062
0.7555207963752938	16310.46444414732
0.755646716508023	16086.871429883207
0.755772657627441	15863.241150116643
0.7558986197370455	15639.573598636749
0.756024602840335	15415.868769231665
0.7561506069408084	15192.126655688351
0.7562766320419653	14968.347251792577
0.7564026781473054	14744.27701739155
0.75652874526033	14519.723285860482
0.7566548333845401	14295.132128707375
0.7567809425234375	14070.503539694822
0.7569070726805247	13845.83751258423
0.7570332238593047	13621.134041135816
0.7571593960632813	13396.393119108612
0.7572855892959586	13171.614740261059
0.7574118035608413	12955.760084605103
0.7575380388614347	12748.636474138173
0.7576642952012449	12541.47834306942
0.7577905725837782	12334.28568564579
0.7579168710125422	12127.058496112217
0.7580431904910444	11919.796768713646
0.7581695310227928	11712.500497694104
0.7582958926112967	11505.169677295797
0.7584222752600652	11302.298244773106
0.7585486789726085	11101.974599097952
0.7586751037524372	10901.617566148443
0.7588015496030628	10701.227140359717
0.7589280165279966	10500.803316167088
0.7590545045307512	10300.346088003764
0.7591810136148396	10099.855450302413
0.7593075437837755	9899.331397494487
0.7594340950410726	9706.08542905612
0.7595606673902461	9514.928587964436
0.7596872608348112	9323.739887399046
0.7598138753782836	9132.519322050437
0.75994051102418	8941.266886607427
0.7600671677760173	8749.982575758659
0.7601938456373134	8558.666384191269
0.7603205446115863	8367.318306592058
0.7604472647023548	8180.1778303019555
0.7605740059131385	7993.427568995902
0.7607007682474575	7806.646182646115
0.7608275517088319	7619.833666065685
0.7609543563007835	7432.99001406541
0.7610811820268336	7246.115221456581
0.7612080288905045	7059.209283049343
0.7613348968953197	6872.20989283253
0.7614617860448022	6683.901060801086
0.7615886963424764	6495.5608439640455
0.7617156277918667	6307.189237091048
0.7618425803964988	6118.786234950083
0.7619695541598982	5930.351832308812
0.7620965490855914	5741.8860239339065
0.7622235651771058	5553.38880459072
0.7623506024379685	5367.743281012704
0.7624776608717082	5194.703810987235
0.7626047404818536	5021.6355010500865
0.7627318412719337	4848.538346394913
0.762858963245479	4675.412342213855
0.7629861064060198	4502.257483698751
0.7631132707570876	4329.073766040381
0.7632404563022137	4155.861184429224
0.7633676630449308	3984.300540985931
0.7634948909887717	3816.2891839986214
0.7636221401372697	3648.2498251186994
0.7637494104939593	3480.1824596788056
0.7638767020623748	3312.087083011581
0.7640040148460518	3143.963690448054
0.7641313488485262	2975.8122773191053
0.7642587040733344	2807.632838954445
0.7643860805240132	2638.252997416504
0.7645134782041005	2467.445933154131
0.7646408971171346	2296.610401047644
0.764768337266654	2125.7463963525342
0.7648957986561985	1954.8539143232538
0.7650232812893079	1783.932950213658
0.7651507851695227	1612.9834992767087
0.7652783103003843	1442.0055567646243
0.7654058566854343	1286.0317415843454
0.7655334243282153	1140.2770568506521
0.7656610132322699	994.4980796696932
0.765788623401142	848.6948059924002
