#wavelength	surface flux
0.7	193806156.7392909
0.7001166666666666	193340368.07010084
0.7002333527777778	197922022.0246924
0.700350058336574	202504439.58827412
0.7004667833462966	207087620.88811052
0.7005835278101878	211671566.05150953
0.7007002917314895	216256275.20576173
0.7008170751134447	220841748.47820562
0.7009338779592968	225427985.9961928
0.7010507002722901	229800007.402583
0.7011675420556689	233911140.5220716
0.701284403312678	238022958.8304068
0.7014012840465635	242135462.44179925
0.7015181842605713	246248651.47045952
0.701635103957948	250362526.03062162
0.701752043141941	254477086.23654306
0.701869001815798	258592332.20250475
0.7019859799827672	260272622.2701821
0.7021029776460976	260258122.857944
0.7022199948090387	260243621.0291372
0.7023370314748403	260229116.7833589
0.7024540876467528	260214610.12020633
0.702571163328027	260200101.03927657
0.7026882585219152	260185589.54016662
0.7028053732316688	260171075.6224735
0.7029225074605406	260902789.9643299
0.7030396612117841	261922780.14657333
0.7031568344886527	262942940.32718065
0.7032740272944008	263963270.53448412
0.7033912396322832	264983770.79682264
0.7035084715055552	266004441.1425372
0.7036257229174727	267025281.59997645
0.7037429938712924	268046292.1974929
0.7038602843702709	273200833.29935634
0.7039775944176659	279057281.6516234
0.7040949240167356	284914706.0786182
0.7042122731707383	290773106.74301445
0.7043296418829335	296632483.8075247
0.7044470301565806	302492837.4348781
0.70456443799494	308354167.7878315
0.7046818654012724	314216475.0291806
0.7047993123788394	281561946.137599
0.7049167789309024	248857773.92465463
0.7050342650607243	216148151.01629096
0.7051517707715678	183433076.50412455
0.7052692960666963	150712549.4795556
0.705386840949374	117986569.03382978
0.7055044054228656	85255134.25797638
0.7056219894904361	56893833.725595064
0.7057395931553511	56334211.6690905
0.705857216420877	55774496.34224275
0.7059748592902804	55214687.7295075
0.7060925217668288	54654785.815336235
0.70621020385379	54094790.58417937
0.7063279055544321	53534702.020484686
0.7064456268720246	52974520.108695194
0.7065633678098366	52686246.58025133
0.7066811283711383	53147022.80527856
0.7067989085592001	53607875.8263433
0.7069167083772933	54068805.65624458
0.7070345278286895	54529812.3077845
0.707152366916661	54990895.79376642
0.7072702256444803	55452056.12699547
0.7073881040154211	55913293.32028068
0.7075060020327569	56360096.287633486
0.7076239196997625	56785840.52165396
0.7077418570197124	57211655.713046335
0.7078598139958823	57637541.87363726
0.7079777906315483	58063499.015255354
0.7080957869299869	58489527.149730064
0.7082138028944751	58915626.28889363
0.7083318385282908	59341796.4445807
0.7084498938347124	59071106.40275684
0.708567968817018	58209498.712138936
0.7086860634784875	57347747.420238264
0.7088041778224007	56485852.50312157
0.7089223118520377	55623813.93685317
0.7090404655706796	54761631.69749089
0.709158638981608	53899305.76108771
0.709276832088105	53036836.10369497
0.7093950448934531	52675534.55107991
0.7095132774009353	52553253.81083372
0.7096315296138355	52430952.6904641
0.7097498015354378	52308631.18657447
0.7098680931690269	52186289.29576763
0.7099864045178884	52063927.0146455
0.7101047355853081	51941544.33980988
0.7102230863745722	51819141.267861865
0.7103414568889679	52048306.37098223
0.7104598471317828	52357398.87608888
0.7105782571063047	52666542.89661281
0.7106966868158224	52975738.44114015
0.710815136263625	53284985.518258184
0.7109336054530023	53594284.136555925
0.7110520943872445	53903634.304623276
0.7111706030696424	54213036.03105216
0.7112891315034873	54631160.16916909
0.7114076796920712	55054538.99361306
0.7115262476386865	55477988.38119444
0.7116448353466263	55901508.34367347
0.711763442819184	56325098.89281313
0.711882070059654	56748760.04037802
0.7120007170713306	57172491.79813391
0.7121193838575091	57518772.66152772
0.7122380704214853	57056581.66664448
0.7123567767665555	56594313.63992922
0.7124755028960166	56131968.568542615
0.7125942488131658	55669546.43964446
0.7127130145213015	55207047.240390226
0.7128318000237216	54744470.957937546
0.7129506053237256	54281817.57943713
0.7130694304246129	53861406.832400426
0.7131882753296837	53588890.73765243
0.7133071400422386	53316329.22355524
0.7134260245655789	53043722.28253921
0.7135449289030065	52771069.90703294
0.7136638530578235	52498372.089464225
0.7137827970333332	52225628.82225885
0.7139017608328388	51952840.09784235
0.7140207444596443	51903794.88759381
0.7141397479170543	52253958.83091696
0.7142587712083737	52604181.134896845
0.7143778143369084	52954461.809261
0.7144968773059646	53304800.86373763
0.7146159601188489	53655198.30805655
0.7147350627788687	54005654.151949555
0.7148541852893318	54356168.405149736
0.7149733276535467	54706340.85402566
0.7150924898748222	55056168.08867839
0.715211671956468	55406053.62787029
0.7153308739017941	55755997.481318995
0.715450095714111	56105999.65874311
0.71556933739673	56456060.169863515
0.7156885989529628	56806179.024402395
0.7158078803861218	57156356.23208422
0.7159271816995193	57390912.15596143
0.7160465028964692	57557610.43697164
0.7161658439802853	57724336.50102868
0.7162852049542819	57891090.352763034
0.7164045858217744	58057871.996806115
0.716523986586078	58224681.4377898
0.7166434072505089	58391518.68034689
0.716762847818384	58558383.729111135
0.7168823082930204	58827153.39739655
0.7170017886777359	59125939.58419369
0.7171212889758488	59424775.56868843
0.7172408091906781	59723661.35918068
0.7173603493255433	60022596.963971436
0.7174799093837642	60321582.39136282
0.7175994893686615	60620617.6496589
0.7177190892835562	60919702.74716456
0.7178387091317702	61478324.22351739
0.7179583489166254	62063086.80679703
0.7180780086414448	62647946.85050767
0.7181976883095517	63232904.37089224
0.7183173879242699	63817959.38419693
0.718437107488924	64403111.906670645
0.7185568470068389	64988361.95456499
0.7186766064813399	65575448.11855613
0.7187963859157535	66206100.322309226
0.7189161853134061	66836857.63476291
0.719036004677625	67467720.07343541
0.7191558440117378	68098687.6558473
0.7192757033190732	68729760.3995238
0.7193955826029597	69360938.32199015
0.7195154818667269	69992221.44077747
0.7196354011137046	70499151.28221375
0.7197553403472235	70433136.47140245
0.7198752995706147	70367110.6581227
0.7199952787872098	70301073.8405407
0.720115278000341	70235026.01682244
0.7202352972133411	70168967.18513356
0.7203553364295432	70102897.3436395
0.7204753956522815	70036816.49050507
0.7205954748848902	70048662.00446808
0.7207155741307044	70232332.2880947
0.7208356933930594	70416033.18343493
0.7209558326752915	70599764.69559109
0.7210759919807375	70783526.8296662
0.7211961713127342	70967319.5907634
0.7213163706746197	71151142.98398776
0.7214365900697322	71334997.01444413
0.7215568295014103	71877546.14389405
0.721677088972994	72848132.81666808
0.7217973684878227	73818881.25388597
0.7219176680492374	74789791.48251121
0.7220379876605789	75760863.5295073
0.722158327325189	76732097.4218449
0.7222786870464099	77703493.18649739
0.7223990668275843	78675050.8504444
0.7225194666720555	79303437.87416495
0.7226398865831676	79688601.2438824
0.7227603265642646	80073828.80749388
0.722880786618692	80459120.57570012
0.7230012667497951	80844476.5592008
0.7231217669609201	81229896.76869878
0.7232422872554135	81615381.21489799
0.7233628276366229	82000929.90850559
0.7234833881078956	82850267.28930683
0.7236039686725803	83875804.49610396
0.7237245693340255	84901512.62576723
0.7238451900955812	85927391.70678738
0.7239658309605971	86953441.76765315
0.7240864919324239	87979662.83686374
0.7242071730144127	89006054.94291928
0.724327874209915	90032618.11432368
0.7244485955222832	91457098.93854249
0.7245693369548704	92947581.20939647
0.7246900985110294	94438311.89396006
0.7248108801941148	95929291.0336417
0.7249316820074803	97420518.66984163
0.7250525039544815	98911994.84398337
0.7251733460384739	100403719.5974877
0.7252942082628137	101895874.5355481
0.7254150906308574	103493481.96188928
0.7255359931459625	105091355.656135
0.7256569158114868	106689495.6626636
0.7257778586307888	108287902.02586073
0.7258988216072273	109886574.79011793
0.7260198047441617	111485513.99983408
0.7261408080449525	113084719.69942124
0.72626183151296	114541024.58984993
0.7263828751515454	115046143.0575238
0.7265039389640706	115551345.71160884
0.726625022953898	116056632.56613655
0.7267461271243904	116562003.63514026
0.7268672514789111	117067458.93265513
0.7269883960208241	117572998.47271913
0.7271095607534942	118078622.26937349
0.7272307456802866	118856297.39216077
0.7273519508045666	120368750.78990161
0.7274731761297006	121881456.26320805
0.7275944216590555	123394413.85409331
0.7277156873959987	124907623.60457762
0.7278369733438982	126421085.55668943
0.727958279506122	127934799.75245589
0.7280796058860397	129448766.23392348
0.7282009524870207	131437194.26499175
0.7283223193124353	134127361.9477346
0.7284437063656539	136817977.99175242
0.7285651136500483	139509042.47178194
0.7286865411689898	142200555.4625526
0.7288079889258514	144892517.03882825
0.7289294569240056	147584927.2753604
0.7290509451668262	150277786.2469351
0.7291724536576875	153479828.34155658
0.7292939823999636	157103945.2524451
0.7294155313970303	160728666.182826
0.7295371006522632	164353991.23336104
0.7296586901690385	167979920.50473496
0.7297802999507332	171606454.09765252
0.7299019300007252	175233592.1128449
0.7300235803223919	178861334.65103012
0.7301452509191123	182666955.90107232
0.7302669417942654	186555035.72453684
0.7303886529512311	190443763.56130642
0.7305103843933897	194333139.51938316
0.7306321361241218	198223163.70678324
0.7307539081468093	202113836.23155478
0.7308757004648336	206005157.20173883
0.7309975130815778	209897126.7254226
0.7311193460004248	214258283.49239233
0.7312411992247582	218726238.2723339
0.7313630727579622	223194937.71140447
0.7314849666034219	227664381.93371934
0.7316068807645224	232134571.0634019
0.7317288152446498	236605505.22460812
0.7318507700471907	241077184.5415102
0.7319727451755319	245549609.13829672
0.732094740633061	251771449.1876893
0.7322167564231665	258073051.88981926
0.7323387925492371	264375704.85906652
0.7324608490146619	270679408.2704736
0.732582925822831	276984162.29911745
0.7327050229771347	283289967.12009215
0.7328271404809642	289596822.90854347
0.7329492783377112	295958387.9359932
0.7330714365507675	302848529.09811187
0.7331936151235259	309739818.6170892
0.7333158140593796	316632256.6843119
0.7334380333617229	323525843.491223
0.7335602730339499	330420579.22927165
0.7336825330794556	337316464.08994484
0.7338048135016354	344213498.2647481
0.7339271143038857	349872065.99559313
0.734049435489603	351378013.3797868
0.7341717770621846	352884211.75521135
0.7342941390250283	354390661.1636978
0.7344165213815324	355897361.6470851
0.734538924135096	357404313.24722177
0.7346613472891185	358911516.0059565
0.734783790847	360418969.96515155
0.7349062548121412	360688565.9513053
0.7350287391879431	358769798.2666649
0.7351512439778078	356850710.78740644
0.7352737691851374	354931303.4602371
0.735396314813335	353011576.2318448
0.7355188808658037	351091529.04891765
0.7356414673459482	349171161.85812277
0.7357640742571725	347250474.6061307
0.7358867016028818	349701548.6002683
0.7360093493864824	356470855.7262379
0.7361320176113801	363241291.0700525
0.736254706280982	370012854.8197579
0.7363774153986956	376785547.16343033
0.7365001449679286	383559368.2891462
0.7366228949920899	390334318.3850552
0.7367456654745885	397110397.6393134
0.7368684564188344	400072982.9786875
0.7369912678282374	400880117.40602684
0.7371140997062088	401687386.35577106
0.7372369520561599	402494789.85034096
0.7373598248815024	403302327.9121582
0.7374827181856494	404110000.5636537
0.7376056319720137	404917807.82725793
0.7377285662440091	405725749.72540617
0.7378515210050496	409674124.34860265
0.7379744962585505	414567977.19040173
0.738097492007927	419462645.67433995
0.7382205082565949	424358129.9363557
0.738343545007971	429254430.11241424
0.7384666022654723	434151546.338507
0.7385896800325165	439049478.75063
0.7387127783125219	443948227.484828
0.7388358971089073	451929196.7268066
0.7389590364250921	460220568.6047553
0.7390821962644963	468513322.37802327
0.7392053766305403	476807458.276908
0.7393285775266454	485102976.53178185
0.7394517989562333	493399877.3730395
0.7395750409227259	501698161.0310906
0.7396983034295463	510469998.383544
0.739821586480118	529747085.14791423
0.7399448900778645	549027384.7600403
0.7400682142262109	568310897.7554935
0.740191558928582	587597624.669759
0.7403149241884034	606887566.038495
0.7404383100091014	626180722.3974638
0.7405617163941028	645477094.2824802
0.7406851433468352	659583145.5362574
0.7408085908707264	649932366.4252678
0.7409320589692048	640279978.8510977
0.7410555476456997	630625982.5456575
0.7411790569036406	620970377.2408401
0.7413025867464579	611313162.6684691
0.7414261371775823	601654338.5603334
0.7415497082004452	591993904.648187
0.7416732998184786	586059569.4804522
0.741796912035115	588120914.5993425
0.7419205448537874	590182603.275752
0.7420441982779297	592244635.5669409
0.742167872310976	594307011.5301802
0.7422915669563612	596369731.2227467
0.7424152822175206	598432794.7019281
0.7425390180978901	600496202.0250214
0.7426627746009065	600406769.0719206
0.7427865517300065	597692435.5152946
0.7429103494886282	594977649.5697396
0.7430341678802096	592262411.1598624
0.7431580069081896	589546720.2102504
0.7432818665760077	586830576.6454762
0.7434057468871037	584113980.3901103
0.7435296478449182	581396931.3687032
0.7436535694528923	581290653.5214711
0.7437775117144678	582971820.8943253
0.7439014746330868	584653268.4617388
0.7440254582121922	586334996.2704152
0.7441494624552276	588017004.3670603
0.7442734873656368	589699292.7983878
0.7443975329468645	591381861.6111219
0.7445215992023557	593064710.8519912
0.7446456861355559	591081754.9487071
0.7447697937499119	587747979.9524891
0.7448939220488703	584413649.3271059
0.7450180710358784	581078762.9799547
0.7451422407143843	577743320.8184118
0.7452664310878367	574407322.7498391
0.7453906421596846	571070768.6815916
0.7455148739333779	567733658.5209985
0.7456391264123667	573538848.8116467
0.7457633996001021	580806898.8534058
0.7458876935000356	588076160.2368516
0.7460120081156189	595346633.1638474
0.7461363434503048	602618317.8363345
0.7462606995075466	609891214.4562736
0.7463850762907978	617165323.2256383
0.7465094738035127	624406864.5446881
0.7466338920491467	622813004.5616052
0.746758331031155	621218878.9351902
0.7468827907529935	619624487.6211727
0.7470072712181189	618029830.5752695
0.7471317724299886	616434907.7531915
0.7472562943920602	614839719.1106445
0.7473808371077922	613244264.6033221
0.7475054005806435	611678922.3656688
0.7476299848140736	610300436.9051952
0.7477545898115426	608921721.6971446
0.7478792155765113	607542776.7032259
0.7480038621124406	606163601.8851423
0.7481285294227926	604784197.2045895
0.7482532175110298	603404562.6232551
0.7483779263806148	602024698.1028259
0.7485026560350116	601160817.4622786
0.7486274064776842	601693906.3139236
0.748752177712097	602227084.0137095
0.7488769697417158	602760350.5764467
0.749001782570006	603293706.0169436
0.7491266162004343	603827150.3500137
0.7492514706364677	604360683.5904729
0.7493763458815739	604894305.7531395
0.7495012419392209	606186075.0845401
0.7496261588128773	608567858.7564175
0.7497510965060128	610950039.392242
0.7498760550220971	613332617.0581714
0.7500010343646007	615715591.8203789
0.7501260345369949	618098963.7450479
0.750251055542751	620482732.8983684
0.7503760973853414	622866899.3465492
0.7505011600682389	623238603.1124895
0.750626243594917	621929676.7190514
0.7507513479688495	620620532.1712162
0.7508764731935109	619311169.4326228
0.7510016192723765	618001588.4669058
0.7511267862089218	616691789.2376958
0.7512519740066232	615381771.7086139
0.7513771826689577	614071535.8432763
0.7515024121994025	612929476.6412734
0.7516276626014359	611865742.3251247
0.751752933878536	610801830.7199252
0.7518782260341824	609737741.7961245
0.7520035390718548	608673475.5241692
0.7521288729950334	607609031.8745025
0.7522542278071992	606544410.8175609
0.7523796035118337	605479612.3237759
0.7525050001124189	606914247.5101138
0.7526304176124378	608892731.3243606
0.7527558560153731	610871544.8859073
0.752881315324709	612850688.2497162
0.7530067955439299	614830161.4707531
0.7531322966765205	616809964.6039908
0.7532578187259665	618790097.704418
0.7533833616957542	620770560.8270285
0.75350892558937	617684608.0166354
0.7536345104103016	614359888.0024544
0.7537601161620366	611034613.8682728
0.7538857428480638	607708785.5217323
0.7540113904718717	604382402.8704717
0.7541370590369503	601055465.8221033
0.7542627485467898	597727974.2842246
0.7543884590048808	594495361.5249991
0.7545141904147151	592213882.2824061
0.7546399427797842	589932022.7932763
0.7547657161035808	587649782.9942313
0.754891510389598	585367162.8218865
0.7550173256413296	583084162.2128456
0.7551431618622698	580800781.1037035
0.7552690190559135	578517019.4310439
0.7553948972257561	574820372.3967062
0.7555207963752938	566381862.6426878
0.755646716508023	557941946.4703819
0.755772657627441	549500623.6453776
0.7558986197370455	541057893.9332346
0.756024602840335	532613757.09947515
0.7561506069408084	524168212.9095767
0.7562766320419653	515721261.1289724
0.7564026781473054	507829509.20168775
0.75652874526033	500915922.9982789
0.7566548333845401	494001184.53049934
0.7567809425234375	487085293.6063109
0.7569070726805247	480168250.0336391
0.7570332238593047	473250053.6203727
0.7571593960632813	466330704.1743642
0.7572855892959586	459410201.5034476
0.7574118035608413	451303010.1972691
0.7575380388614347	442034619.8982168
0.7576642952012449	432764684.8674445
0.7577905725837782	423493204.84751385
0.7579168710125422	414220179.5808966
0.7580431904910444	404945608.81006485
0.7581695310227928	395669492.27744967
0.7582958926112967	386391829.7254007
0.7584222752600652	362058761.5089768
0.7585486789726085	329073770.0813995
0.7586751037524372	296083281.1552384
0.7588015496030628	263087293.81419188
0.7589280165279966	230085807.14198712
0.7590545045307512	197078820.22200373
0.7591810136148396	164066332.13753438
0.7593075437837755	131048341.97166893
0.7594340950410726	125571456.23776464
0.7595606673902461	128085935.93405047
0.7596872608348112	130600834.7102882
0.7598138753782836	133116152.6363192
0.75994051102418	135631889.7820069
0.7600671677760173	138148046.2172169
0.7601938456373134	140664622.0118347
0.7603205446115863	143181617.2357502
0.7604472647023548	143307759.08822122
0.7605740059131385	143196229.72664103
0.7607007682474575	143084681.77683377
0.7608275517088319	142973115.23570183
0.7609543563007835	142861530.10014609
0.7610811820268336	142749926.36706784
0.7612080288905045	142638304.0333676
0.7613348968953197	142455405.79050085
0.7614617860448022	140810434.49626204
0.7615886963424764	139165189.04013863
0.7617156277918667	137519669.3764408
0.7618425803964988	135873875.4594643
0.7619695541598982	134227807.2435021
0.7620965490855914	132581464.68283847
0.7622235651771058	130934847.73174614
0.7623506024379685	128629897.6793812
0.7624776608717082	123440220.50652124
0.7626047404818536	118249678.38746555
0.7627318412719337	113058271.1780656
0.762858963245479	107865998.73412749
0.7629861064060198	102672860.91144826
0.7631132707570876	97478857.56579319
0.7632404563022137	92283988.5529185
0.7633676630449308	87486593.20114104
0.7634948909887717	83536330.7641861
0.7636221401372697	79585409.95016348
0.7637494104939593	75633830.64933479
0.7638767020623748	71681592.75196168
0.7640040148460518	67728696.14826784
0.7641313488485262	63775140.72847351
0.7642587040733344	59820926.3827714
0.7643860805240132	55641529.69389263
0.7645134782041005	51193512.82759383
0.7646408971171346	46744754.6251488
0.764768337266654	42295254.96300499
0.7648957986561985	37845013.71758273
0.7650232812893079	33394030.76528681
0.7651507851695227	28942305.982498806
0.7652783103003843	24489839.24558088
0.7654058566854343	21074383.51251025
0.7655334243282153	18365614.39631492
0.7656610132322699	15656393.81860375
