#wavelength	surface flux
0.7	29533997.742223684
0.7001166666666666	29605272.425508287
0.7002333527777778	29817736.304348208
0.700350058336574	30030235.5938345
0.7004667833462966	30242770.299868766
0.7005835278101878	30455340.428354625
0.7007002917314895	30667945.985194888
0.7008170751134447	30880586.976294592
0.7009338779592968	31093263.407559384
0.7010507002722901	31205683.996866394
0.7011675420556689	31196075.493061867
0.701284403312678	31186465.38784005
0.7014012840465635	31176853.68093402
0.7015181842605713	31167240.372076835
0.701635103957948	31157625.46100152
0.701752043141941	31148008.947441023
0.701869001815798	31138390.831128255
0.7019859799827672	31193358.428046104
0.7021029776460976	31293284.321574584
0.7022199948090387	31393226.869418778
0.7023370314748403	31493186.074354235
0.7024540876467528	31593161.939157166
0.702571163328027	31693154.466604065
0.7026882585219152	31793163.659472477
0.7028053732316688	31893189.520539552
0.7029225074605406	31835933.59879825
0.7030396612117841	31717927.987505406
0.7031568344886527	31599902.708610665
0.7032740272944008	31481857.75883618
0.7033912396322832	31363793.134903338
0.7035084715055552	31245708.833533294
0.7036257229174727	31127604.85144631
0.7037429938712924	31009481.185362197
0.7038602843702709	31095471.980933554
0.7039775944176659	31216099.753783327
0.7040949240167356	31336747.631261956
0.7042122731707383	31457415.616720103
0.7043296418829335	31578103.713509224
0.7044470301565806	31698811.924981125
0.70456443799494	31819540.254488178
0.7046818654012724	31940288.705383558
0.7047993123788394	31537757.468440324
0.7049167789309024	31134558.633200828
0.7050342650607243	30731292.598154835
0.7051517707715678	30327959.35210319
0.7052692960666963	29924558.88384407
0.705386840949374	29521091.182173744
0.7055044054228656	29117556.235885814
0.7056219894904361	28802034.24262711
0.7057395931553511	29046200.013071958
0.705857216420877	29290406.477812067
0.7059748592902804	29534653.6436295
0.7060925217668288	29778941.517308146
0.70621020385379	30023270.10563236
0.7063279055544321	30267639.41538766
0.7064456268720246	30512049.453361623
0.7065633678098366	30711179.198971592
0.7066811283711383	30785527.192421094
0.7067989085592001	30859887.577202834
0.7069167083772933	30934260.35538199
0.7070345278286895	31008645.52902423
0.707152366916661	31083043.10019542
0.7072702256444803	31157453.07096172
0.7073881040154211	31231875.44338992
0.7075060020327569	31301374.818853732
0.7076239196997625	31363698.11975336
0.7077418570197124	31426031.807869744
0.7078598139958823	31488375.884934142
0.7079777906315483	31550730.352678113
0.7080957869299869	31613095.212833326
0.7082138028944751	31675470.467131868
0.7083318385282908	31737856.11730617
0.7084498938347124	31742716.264792003
0.708567968817018	31698797.110391486
0.7086860634784875	31654870.636131857
0.7088041778224007	31610936.840793148
0.7089223118520377	31566995.72315527
0.7090404655706796	31523047.281997815
0.709158638981608	31479091.516100116
0.709276832088105	31435128.424241424
0.7093950448934531	31453061.304922946
0.7095132774009353	31500519.525869448
0.7096315296138355	31547985.656519465
0.7097498015354378	31595459.69819124
0.7098680931690269	31642941.65220325
0.7099864045178884	31690431.519874323
0.7101047355853081	31737929.30252333
0.7102230863745722	31785435.001469415
0.7103414568889679	31821055.138724748
0.7104598471317828	31853978.733960576
0.7105782571063047	31886907.816462256
0.7106966868158224	31919842.38714435
0.710815136263625	31952782.446921553
0.7109336054530023	31985727.996708736
0.7110520943872445	32018679.037420876
0.7111706030696424	32051635.569973152
0.7112891315034873	32166207.32526402
0.7114076796920712	32284692.0110981
0.7115262476386865	32403196.44437982
0.7116448353466263	32521720.62840034
0.711763442819184	32640264.566451594
0.711882070059654	32758828.26182596
0.7120007170713306	32877411.717816144
0.7121193838575091	32992341.373992596
0.7122380704214853	33068975.85581765
0.7123567767665555	33145623.110056262
0.7124755028960166	33222283.138837285
0.7125942488131658	33298955.944289714
0.7127130145213015	33375641.528543264
0.7128318000237216	33452339.893727284
0.7129506053237256	33529051.041972276
0.7130694304246129	33597868.01370444
0.7131882753296837	33639050.93134033
0.7133071400422386	33680240.71279583
0.7134260245655789	33721437.35921488
0.7135449289030065	33762640.871741675
0.7136638530578235	33803851.251520544
0.7137827970333332	33845068.4996961
0.7139017608328388	33886292.617413
0.7140207444596443	33950666.17700808
0.7141397479170543	34056334.51567465
0.7142587712083737	34162020.46573086
0.7143778143369084	34267724.03011217
0.7144968773059646	34373445.211754225
0.7146159601188489	34479184.01359319
0.7147350627788687	34584940.4385658
0.7148541852893318	34690714.4896092
0.7149733276535467	34787358.78681866
0.7150924898748222	34874795.17500828
0.715211671956468	34962246.135929294
0.7153308739017941	35049711.67201052
0.715450095714111	35137191.785681054
0.71556933739673	35224686.47937054
0.7156885989529628	35312195.75550897
0.7158078803861218	35399719.61652689
0.7159271816995193	35466657.163375564
0.7160465028964692	35521514.42257237
0.7161658439802853	35576380.8246457
0.7162852049542819	35631256.371119365
0.7164045858217744	35686141.06351748
0.716523986586078	35741034.90336431
0.7166434072505089	35795937.892184414
0.716762847818384	35850850.03150267
0.7168823082930204	35951725.20378642
0.7170017886777359	36066136.62481093
0.7171212889758488	36180567.11440553
0.7172408091906781	36295016.67574844
0.7173603493255433	36409485.31201827
0.7174799093837642	36523973.02639408
0.7175994893686615	36638479.82205566
0.7177190892835562	36753005.70218314
0.7178387091317702	36902431.85259354
0.7179583489166254	37055384.380665734
0.7180780086414448	37208362.40082606
0.7181976883095517	37361365.91732307
0.7183173879242699	37514394.934406176
0.718437107488924	37667449.45632551
0.7185568470068389	37820529.48733188
0.7186766064813399	37973033.09456824
0.7187963859157535	38110512.36480727
0.7189161853134061	38248014.548258
0.719036004677625	38385539.64873932
0.7191558440117378	38523087.67007064
0.7192757033190732	38660658.616072364
0.7193955826029597	38798252.490564935
0.7195154818667269	38935869.29737003
0.7196354011137046	39058533.16741222
0.7197553403472235	39112265.88566473
0.7198752995706147	39166007.559370264
0.7199952787872098	39219758.19002145
0.720115278000341	39273517.77911107
0.7202352972133411	39327286.32813222
0.7203553364295432	39381063.83857813
0.7204753956522815	39434850.31194251
0.7205954748848902	39480344.49896424
0.7207155741307044	39507545.11299186
0.7208356933930594	39534750.2604551
0.7209558326752915	39561959.9421096
0.7210759919807375	39589174.15871107
0.7211961713127342	39616392.91101527
0.7213163706746197	39643616.19977824
0.7214365900697322	39670844.025755964
0.7215568295014103	39759418.519495316
0.721677088972994	39921199.27036786
0.7217973684878227	40083006.984698616
0.7219176680492374	40244841.66698195
0.7220379876605789	40406703.32171223
0.722158327325189	40568591.95338503
0.7222786870464099	40730507.566496365
0.7223990668275843	40892450.16554327
0.7225194666720555	41008962.62142961
0.7226398865831676	41093277.88746648
0.7227603265642646	41177607.20604749
0.722880786618692	41261950.579515114
0.7230012667497951	41346308.01021159
0.7231217669609201	41430679.500479855
0.7232422872554135	41515065.052663095
0.7233628276366229	41599464.66910518
0.7234833881078956	41667306.80383981
0.7236039686725803	41728868.6682293
0.7237245693340255	41790440.792929426
0.7238451900955812	41852023.17965045
0.7239658309605971	41913615.83010252
0.7240864919324239	41975218.74599641
0.7242071730144127	42036831.92904296
0.724327874209915	42098455.380953215
0.7244485955222832	42268292.011503875
0.7245693369548704	42456047.38485673
0.7246900985110294	42643834.050771534
0.7248108801941148	42831652.01446449
0.7249316820074803	43019501.281150766
0.7250525039544815	43207381.856048465
0.7251733460384739	43395293.74437535
0.7252942082628137	43583051.58289614
0.7254150906308574	43663432.36095871
0.7255359931459625	43743826.53581763
0.7256569158114868	43824234.10970572
0.7257778586307888	43904655.08485615
0.7258988216072273	43985089.46350243
0.7260198047441617	44065537.247878395
0.7261408080449525	44145998.44021855
0.72626183151296	44225150.88562422
0.7263828751515454	44295530.03035929
0.7265039389640706	44365920.9049518
0.726625022953898	44436323.51135679
0.7267461271243904	44506737.851529546
0.7268672514789111	44577163.927425615
0.7269883960208241	44647601.741000935
0.7271095607534942	44718051.29421191
0.7272307456802866	44779810.11081325
0.7273519508045666	44818071.72638318
0.7274731761297006	44856339.71888901
0.7275944216590555	44894614.0893936
0.7277156873959987	44932894.838959955
0.7278369733438982	44971181.968651295
0.727958279506122	45009475.47953081
0.7280796058860397	45047775.372662194
0.7282009524870207	45090837.3774024
0.7283223193124353	45140940.810886584
0.7284437063656539	45191052.59494291
0.7285651136500483	45241172.730963334
0.7286865411689898	45291301.22033965
0.7288079889258514	45341438.064464316
0.7289294569240056	45391583.26472956
0.7290509451668262	45441736.822528236
0.7291724536576875	45570681.07618698
0.7292939823999636	45764926.46744345
0.7294155313970303	45959204.232932195
0.7295371006522632	46153514.378048465
0.7296586901690385	46347856.90818877
0.7297802999507332	46542231.82875068
0.7299019300007252	46736639.145133175
0.7300235803223919	46931078.862734556
0.7301452509191123	47067842.938843645
0.7302669417942654	47177993.53697855
0.7303886529512311	47288162.49354651
0.7305103843933897	47398349.81160726
0.7306321361241218	47508555.494220935
0.7307539081468093	47618779.54444858
0.7308757004648336	47729021.965351015
0.7309975130815778	47839282.75999041
0.7311193460004248	47980266.032091916
0.7312411992247582	48128223.81782578
0.7313630727579622	48276206.26319056
0.7314849666034219	48424213.37229638
0.7316068807645224	48572245.14925363
0.7317288152446498	48720301.598173775
0.7318507700471907	48868382.72316881
0.7319727451755319	49016488.5283513
0.732094740633061	49205072.730740555
0.7322167564231665	49395509.60279716
0.7323387925492371	49585978.214332454
0.7324608490146619	49776478.57063629
0.732582925822831	49967010.67699955
0.7327050229771347	50157574.53871366
0.7328271404809642	50348170.16107157
0.7329492783377112	50521030.26449496
0.7330714365507675	50519247.964439005
0.7331936151235259	50517465.36733303
0.7333158140593796	50515682.47312755
0.7334380333617229	50513899.28177303
0.7335602730339499	50512115.79321995
0.7336825330794556	50510332.007418774
0.7338048135016354	50508547.924319975
0.7339271143038857	50390488.81955594
0.734049435489603	49882809.981738575
0.7341717770621846	49375046.530781485
0.7342941390250283	48867198.45258283
0.7344165213815324	48359265.733038
0.734538924135096	47851248.35803916
0.7346613472891185	47343146.3134785
0.734783790847	46834959.58524357
0.7349062548121412	46191311.927085094
0.7350287391879431	45308273.9751546
0.7351512439778078	44425088.85023031
0.7352737691851374	43541756.52778626
0.735396314813335	42658276.98328769
0.7355188808658037	41774650.19219983
0.7356414673459482	40890876.12997832
0.7357640742571725	40006954.772080384
0.7358867016028818	39577415.872880906
0.7360093493864824	39596694.53020566
0.7361320176113801	39615976.40063995
0.736254706280982	39635261.484719306
0.7363774153986956	39654549.78297937
0.7365001449679286	39673841.29595576
0.7366228949920899	39693136.024184346
0.7367456654745885	39712433.96820096
0.7368684564188344	39410885.42822946
0.7369912678282374	38927949.1412845
0.7371140997062088	38444932.36495818
0.7372369520561599	37961835.08583536
0.7373598248815024	37478657.29050043
0.7374827181856494	36995398.96553213
0.7376056319720137	36512060.09750964
0.7377285662440091	36028640.67300907
0.7378515210050496	36028266.47315681
0.7379744962585505	36173250.06511555
0.738097492007927	36318257.821006246
0.7382205082565949	36463289.74485617
0.738343545007971	36608345.84069338
0.7384666022654723	36753426.1125467
0.7385896800325165	36898530.56444511
0.7387127783125219	37043659.200419016
0.7388358971089073	36644099.62494629
0.7389590364250921	36189837.45052378
0.7390821962644963	35735499.56573853
0.7392053766305403	35281085.95797314
0.7393285775266454	34826596.61460613
0.7394517989562333	34372031.52301479
0.7395750409227259	33917390.67057558
0.7396983034295463	33512525.157238893
0.739821586480118	34216567.265298106
0.7399448900778645	34920726.71370727
0.7400682142262109	35625003.522026636
0.740191558928582	36329397.70981331
0.7403149241884034	37033909.296630725
0.7404383100091014	37738538.30204612
0.7405617163941028	38443284.74562864
0.7406851433468352	38939281.5395139
0.7408085908707264	38479844.213636674
0.7409320589692048	38020330.31487203
0.7410555476456997	37560739.83045721
0.7411790569036406	37101072.74762866
0.7413025867464579	36641329.05361951
0.7414261371775823	36181508.73566123
0.7415497082004452	35721611.78098364
0.7416732998184786	35438507.964927
0.741796912035115	35534777.48344331
0.7419205448537874	35631063.04687935
0.7420441982779297	35727364.6579093
0.742167872310976	35823682.31920784
0.7422915669563612	35920016.033449925
0.7424152822175206	36016365.80331103
0.7425390180978901	36112731.631467044
0.7426627746009065	36013740.23640617
0.7427865517300065	35676558.31901388
0.7429103494886282	35339320.204634994
0.7430341678802096	35002025.88390398
0.7431580069081896	34664675.347452864
0.7432818665760077	34327268.58591186
0.7434057468871037	33989805.58991089
0.7435296478449182	33652286.350077435
0.7436535694528923	33385751.339385018
0.7437775117144678	33167801.295389395
0.7439014746330868	32949814.926386766
0.7440254582121922	32731792.226322453
0.7441494624552276	32513733.18914137
0.7442734873656368	32295637.808787476
0.7443975329468645	32077506.079203345
0.7445215992023557	31859337.994330976
0.7446456861355559	31771908.40430734
0.7447697937499119	31732638.22737859
0.7448939220488703	31693361.505420357
0.7450180710358784	31654078.237341836
0.7451422407143843	31614788.422051966
0.7452664310878367	31575492.05845951
0.7453906421596846	31536189.14547316
0.7455148739333779	31496879.682001304
0.7456391264123667	31687158.458088797
0.7457633996001021	31914179.884830892
0.7458876935000356	32141239.148477852
0.7460120081156189	32368336.25533499
0.7461363434503048	32595471.211710036
0.7462606995075466	32822644.023911357
0.7463850762907978	33049854.6982477
0.7465094738035127	33276577.996236455
0.7466338920491467	33365937.96549441
0.746758331031155	33455312.82808066
0.7468827907529935	33544702.58647724
0.7470072712181189	33634107.243166886
0.7471317724299886	33723526.80063266
0.7472562943920602	33812961.261357956
0.7473808371077922	33902410.62782678
0.7475054005806435	34003695.70721936
0.7476299848140736	34177809.18856115
0.7477545898115426	34351951.68881654
0.7478792155765113	34526123.21282201
0.7480038621124406	34700323.76541468
0.7481285294227926	34874553.35143274
0.7482532175110298	35048811.975715324
0.7483779263806148	35223099.64310171
0.7485026560350116	35381395.76641866
0.7486274064776842	35496359.1401164
0.748752177712097	35611341.67437621
0.7488769697417158	35726343.372391984
0.749001782570006	35841364.23735728
0.7491266162004343	35956404.272466704
0.7492514706364677	36071463.48091537
0.7493763458815739	36186541.86589889
0.7495012419392209	36223049.16202828
0.7496261588128773	36146579.66604385
0.7497510965060128	36070097.42514335
0.7498760550220971	35993602.437202744
0.7500010343646007	35917094.700097464
0.7501260345369949	35840574.21170262
0.750251055542751	35764040.96989314
0.7503760973853414	35687494.97254331
0.7505011600682389	35647270.04331195
0.750626243594917	35637376.32364473
0.7507513479688495	35627480.95502424
0.7508764731935109	35617583.937175654
0.7510016192723765	35607685.26982408
0.7511267862089218	35597784.95269463
0.7512519740066232	35587882.985512316
0.7513771826689577	35577979.36800214
0.7515024121994025	35696721.851625584
0.7516276626014359	35875466.93713043
0.751752933878536	36054241.813482545
0.7518782260341824	36233046.485647455
0.7520035390718548	36411880.958591126
0.7521288729950334	36590745.237280205
0.7522542278071992	36769639.3266824
0.7523796035118337	36948563.23176626
0.7525050001124189	37150496.146175444
0.7526304176124378	37357460.17569141
0.7527558560153731	37564458.69921203
0.752881315324709	37771491.72248677
0.7530067955439299	37978559.25126547
0.7531322966765205	38185661.29129869
0.7532578187259665	38392797.84833864
0.7533833616957542	38599968.92813809
0.75350892558937	38729760.18178219
0.7536345104103016	38855932.823092945
0.7537601161620366	38982126.49317719
0.7538857428480638	39108341.1955399
0.7540113904718717	39234576.93368618
0.7541370590369503	39360833.71112212
0.7542627485467898	39487111.531354375
0.7543884590048808	39611597.89567938
0.7545141904147151	39718030.53030922
0.7546399427797842	39824480.903711334
0.7547657161035808	39930949.01884236
0.754891510389598	40037434.87865923
0.7550173256413296	40143938.48611946
0.7551431618622698	40250459.8441809
0.7552690190559135	40356998.95580199
0.7553948972257561	40460681.282051966
0.7555207963752938	40554732.13377904
0.755646716508023	40648798.66064802
0.755772657627441	40742880.86527151
0.7558986197370455	40836978.75026245
0.756024602840335	40931092.3182342
0.7561506069408084	41025221.571800604
0.7562766320419653	41119366.51357602
0.7564026781473054	41145434.68700985
0.75652874526033	41051682.643530585
0.7566548333845401	40957914.9747107
0.7567809425234375	40864131.677946046
0.7569070726805247	40770332.75063198
0.7570332238593047	40676518.190163374
0.7571593960632813	40582687.99393461
0.7572855892959586	40488842.15933979
0.7574118035608413	40479599.42971729
0.7575380388614347	40553140.4403638
0.7576642952012449	40626693.70784546
0.7577905725837782	40700259.23420492
0.7579168710125422	40773837.02148557
0.7580431904910444	40847427.07173079
0.7581695310227928	40921029.386984296
0.7582958926112967	40994643.969290435
0.7584222752600652	40819814.913379304
0.7585486789726085	40502228.28265622
0.7586751037524372	40184588.72082791
0.7588015496030628	39866896.219072
0.7589280165279966	39549150.76856642
0.7590545045307512	39231352.36048576
0.7591810136148396	38913500.98600377
0.7593075437837755	38595596.63629222
0.7594340950410726	38490665.20274004
0.7595606673902461	38447522.88500867
0.7596872608348112	38404373.37689097
0.7598138753782836	38361216.67718863
0.75994051102418	38318052.784702964
0.7600671677760173	38274881.69823525
0.7601938456373134	38231703.41658642
0.7603205446115863	38188517.93855735
0.7604472647023548	37905160.886039905
0.7605740059131385	37597884.29697098
0.7607007682474575	37290556.49513691
0.7608275517088319	36983177.472003214
0.7609543563007835	36675747.21903165
0.7610811820268336	36368265.72768477
0.7612080288905045	36060732.98942326
0.7613348968953197	35743699.32957078
0.7614617860448022	35232726.54700375
0.7615886963424764	34721668.602305606
0.7617156277918667	34210525.48128383
0.7618425803964988	33699297.16974147
0.7619695541598982	33187983.653480653
0.7620965490855914	32676584.918300834
0.7622235651771058	32165100.949997894
0.7623506024379685	31588726.201407064
0.7624776608717082	30728205.66529168
0.7626047404818536	29867541.709086902
0.7627318412719337	29006734.308890905
0.762858963245479	28145783.440794334
0.7629861064060198	27284689.080886338
0.7631132707570876	26423451.205250792
0.7632404563022137	25562069.789970085
0.7633676630449308	24565331.853231095
0.7634948909887717	23280604.299488466
0.7636221401372697	21995662.62448855
0.7637494104939593	20710506.792541593
0.7638767020623748	19425136.76795783
0.7640040148460518	18139552.515035175
0.7641313488485262	16853753.99807041
0.7642587040733344	15567741.18135136
0.7643860805240132	14230114.200107327
0.7645134782041005	12830928.876805171
0.7646408971171346	11431510.35594855
0.764768337266654	10031858.598672297
0.7648957986561985	8631973.566102713
0.7650232812893079	7231855.219361221
0.7651507851695227	5831503.519561926
0.7652783103003843	4430918.427812835
0.7654058566854343	3582315.789187704
