#wavelength	surface flux
0.7	155517.38115065524
0.7001166666666666	155769.13931302069
0.7002333527777778	155863.75375681688
0.700350058336574	155958.38396968698
0.7004667833462966	156053.0299542591
0.7005835278101878	156147.69171316226
0.7007002917314895	156242.36924902507
0.7008170751134447	156337.0625644772
0.7009338779592968	156431.7716621485
0.7010507002722901	156527.39497895353
0.7011675420556689	156624.12756777107
0.701284403312678	156720.8762786866
0.7014012840465635	156817.64111438743
0.7015181842605713	156914.42207756086
0.701635103957948	157011.21917089476
0.701752043141941	157108.0323970775
0.701869001815798	157204.8617587981
0.7019859799827672	157437.91594815598
0.7021029776460976	157765.80255810564
0.7022199948090387	158093.74381582404
0.7023370314748403	158421.73973041857
0.7024540876467528	158749.79031099883
0.702571163328027	159077.89556667532
0.7026882585219152	159406.05550656194
0.7028053732316688	159734.27013977143
0.7029225074605406	160162.91305786598
0.7030396612117841	160630.3862598801
0.7031568344886527	161097.9373740946
0.7032740272944008	161565.5664134945
0.7033912396322832	162033.2733910679
0.7035084715055552	162501.05831980373
0.7036257229174727	162968.92121269458
0.7037429938712924	163436.86208273465
0.7038602843702709	163577.2933083373
0.7039775944176659	163662.18667908656
0.7040949240167356	163747.09419873098
0.7042122731707383	163832.01586962864
0.7043296418829335	163916.95169413814
0.7044470301565806	164001.90167461842
0.70456443799494	164086.86581342868
0.7046818654012724	164171.8441129288
0.7047993123788394	164556.5254993567
0.7049167789309024	164941.6149056878
0.7050342650607243	165326.7684935872
0.7051517707715678	165711.9862737511
0.7052692960666963	166097.26825687813
0.705386840949374	166482.61445366888
0.7055044054228656	166868.02487482637
0.7056219894904361	167209.50954129503
0.7057395931553511	167271.49941990327
0.705857216420877	167333.499630158
0.7059748592902804	167395.5101737811
0.7060925217668288	167457.53105249483
0.70621020385379	167519.5622680217
0.7063279055544321	167581.60382208438
0.7064456268720246	167643.65571640618
0.7065633678098366	167743.3566004742
0.7066811283711383	167946.731627496
0.7067989085592001	168150.1405503556
0.7069167083772933	168353.58337470223
0.7070345278286895	168557.0601061864
0.707152366916661	168760.57075045916
0.7072702256444803	168964.11531317243
0.7073881040154211	169167.69379997972
0.7075060020327569	169419.3925591464
0.7076239196997625	169741.16368645112
0.7077418570197124	170062.98844227675
0.7078598139958823	170384.86683556167
0.7079777906315483	170706.7988752458
0.7080957869299869	171028.7845702696
0.7082138028944751	171350.82392957574
0.7083318385282908	171672.9169621087
0.7084498938347124	171769.88633390437
0.708567968817018	171675.96191486242
0.7086860634784875	171582.0218417505
0.7088041778224007	171488.06611195966
0.7089223118520377	171394.09472288066
0.7090404655706796	171300.1076719035
0.709158638981608	171206.10495641778
0.709276832088105	171112.08657381276
0.7093950448934531	171236.7568399702
0.7095132774009353	171465.75033338106
0.7096315296138355	171694.78199237428
0.7097498015354378	171923.85182331057
0.7098680931690269	172152.9598325518
0.7099864045178884	172382.10602646152
0.7101047355853081	172611.29041140352
0.7102230863745722	172840.51299374286
0.7103414568889679	173064.44736899712
0.7104598471317828	173287.20878061245
0.7105782571063047	173510.0073191295
0.7106966868158224	173732.84299073636
0.710815136263625	173955.71580162173
0.7109336054530023	174178.62575797574
0.7110520943872445	174401.57286598906
0.7111706030696424	174624.55713185383
0.7112891315034873	174623.33281353972
0.7114076796920712	174611.40888070516
0.7115262476386865	174599.48296054848
0.7116448353466263	174587.55505273843
0.711763442819184	174575.62515694377
0.711882070059654	174563.69327283313
0.7120007170713306	174551.75940007513
0.7121193838575091	174541.08080081368
0.7122380704214853	174543.51334757698
0.7123567767665555	174545.9462997648
0.7124755028960166	174548.3796574446
0.7125942488131658	174550.81342068402
0.7127130145213015	174553.24758955068
0.7128318000237216	174555.6821641121
0.7129506053237256	174558.117144436
0.7130694304246129	174558.59739325545
0.7131882753296837	174552.24187323698
0.7133071400422386	174545.8852939652
0.7134260245655789	174539.52765526352
0.7135449289030065	174533.1689569554
0.7136638530578235	174526.8091988642
0.7137827970333332	174520.44838081335
0.7139017608328388	174514.08650262616
0.7140207444596443	174493.89037608873
0.7141397479170543	174449.01384899265
0.7142587712083737	174404.12984247543
0.7143778143369084	174359.23835529044
0.7144968773059646	174314.3393861909
0.7146159601188489	174269.43293392987
0.7147350627788687	174224.5189972601
0.7148541852893318	174179.59757493428
0.7149733276535467	174027.75775810145
0.7150924898748222	173768.08606500272
0.715211671956468	173508.3710932884
0.7153308739017941	173248.61283574527
0.715450095714111	172988.81128515935
0.71556933739673	172728.96643431493
0.7156885989529628	172469.07827599542
0.7158078803861218	172209.14680298246
0.7159271816995193	171606.81547107338
0.7160465028964692	170803.4418224956
0.7161658439802853	169999.93427830975
0.7162852049542819	169196.29281620003
0.7164045858217744	168392.51741384613
0.716523986586078	167588.6080489255
0.7166434072505089	166784.56469911113
0.716762847818384	165980.3873420715
0.7168823082930204	165401.41139409808
0.7170017886777359	164888.63167724016
0.7171212889758488	164375.7664970964
0.7172408091906781	163862.8158394225
0.7173603493255433	163349.7796899721
0.7174799093837642	162836.65803449714
0.7175994893686615	162323.45085874604
0.7177190892835562	161810.15814846585
0.7178387091317702	162042.05620380747
0.7179583489166254	162348.80588595057
0.7180780086414448	162655.60669304093
0.7181976883095517	162962.45863359913
0.7183173879242699	163269.36171614745
0.718437107488924	163576.31594920962
0.7185568470068389	163883.32134131074
0.7186766064813399	164174.56284946483
0.7187963859157535	164070.44175663736
0.7189161853134061	163966.30331029446
0.719036004677625	163862.1475075438
0.7191558440117378	163757.97434549275
0.7192757033190732	163653.7838212479
0.7193955826029597	163549.57593191578
0.7195154818667269	163445.350674602
0.7196354011137046	163335.3406049976
0.7197553403472235	163198.7578691744
0.7198752995706147	163062.15236956198
0.7199952787872098	162925.5241023662
0.720115278000341	162788.87306379256
0.7202352972133411	162652.19925004579
0.7203553364295432	162515.50265733027
0.7204753956522815	162378.78328184912
0.7205954748848902	162405.44104274115
0.7207155741307044	162792.33900666656
0.7208356933930594	163179.30145358527
0.7209558326752915	163566.32839424524
0.7210759919807375	163953.41983939582
0.7211961713127342	164340.57579978678
0.7213163706746197	164727.79628617174
0.7214365900697322	165115.08130930402
0.7215568295014103	165196.52199980436
0.721677088972994	164912.9754354342
0.7217973684878227	164629.38161330382
0.7219176680492374	164345.74052553606
0.7220379876605789	164062.05216425387
0.722158327325189	163778.316521578
0.7222786870464099	163494.53358962853
0.7223990668275843	163210.7033605236
0.7225194666720555	162773.68458450245
0.7226398865831676	162228.0579400246
0.7227603265642646	161682.34035777394
0.722880786618692	161136.53182259176
0.7230012667497951	160590.63231932075
0.7231217669609201	160044.6418327991
0.7232422872554135	159498.56034786353
0.7233628276366229	158952.3878493462
0.7234833881078956	158843.14951415505
0.7236039686725803	158899.81457242122
0.7237245693340255	158956.48907486367
0.7238451900955812	159013.17302305662
0.7239658309605971	159069.8664185742
0.7240864919324239	159126.56926299114
0.7242071730144127	159183.28155788212
0.724327874209915	159240.00330482214
0.7244485955222832	158393.5625969083
0.7245693369548704	157397.64897091768
0.7246900985110294	156401.56935932423
0.7248108801941148	155405.3237344595
0.7249316820074803	154408.91206866063
0.7250525039544815	153412.33433424917
0.7251733460384739	152415.59050354848
0.7252942082628137	151420.20463740025
0.7254150906308574	151307.75803656684
0.7255359931459625	151195.2926946333
0.7256569158114868	151082.80860847607
0.7257778586307888	150970.3057749711
0.7258988216072273	150857.78419099387
0.7260198047441617	150745.24385341947
0.7261408080449525	150632.68475912194
0.72626183151296	150520.532144691
0.7263828751515454	150411.18680005093
0.7265039389640706	150301.82323118678
0.726625022953898	150192.44143506108
0.7267461271243904	150083.04140863597
0.7268672514789111	149973.6231488732
0.7269883960208241	149864.1866527339
0.7271095607534942	149754.7319171785
0.7272307456802866	149605.11195857867
0.7273519508045666	149347.02037834915
0.7274731761297006	149088.88578285638
0.7275944216590555	148830.70816493104
0.7277156873959987	148572.48751740262
0.7278369733438982	148314.22383309918
0.727958279506122	148055.91710484907
0.7280796058860397	147797.56732547726
0.7282009524870207	147315.8309071192
0.7283223193124353	146503.66417200517
0.7284437063656539	145691.36207577024
0.7285651136500483	144878.9245958513
0.7286865411689898	144066.3517096874
0.7288079889258514	143253.64339470715
0.7289294569240056	142440.79962834294
0.7290509451668262	141627.82038801676
0.7291724536576875	140939.30775889146
0.7292939823999636	140353.92663706045
0.7294155313970303	139768.44795170796
0.7295371006522632	139182.87168657477
0.7296586901690385	138597.1978253978
0.7297802999507332	138011.42635191092
0.7299019300007252	137425.5572498436
0.7300235803223919	136839.59050292755
0.7301452509191123	136495.32314102942
0.7302669417942654	136262.60453066646
0.7303886529512311	136029.84713386834
0.7305103843933897	135797.05094417068
0.7306321361241218	135564.21595510826
0.7307539081468093	135331.34216021394
0.7308757004648336	135098.42955302095
0.7309975130815778	134865.47812705982
0.7311193460004248	134706.1685915829
0.7312411992247582	134563.512877946
0.7313630727579622	134420.8333883569
0.7314849666034219	134278.1301188527
0.7316068807645224	134135.40306547034
0.7317288152446498	133992.6522242457
0.7318507700471907	133849.8775912141
0.7319727451755319	133707.0791624104
0.732094740633061	133179.3100981181
0.7322167564231665	132634.12264385616
0.7323387925492371	132088.8443250185
0.7324608490146619	131543.47512646116
0.732582925822831	130998.01503303729
0.7327050229771347	130452.46402959846
0.7328271404809642	129906.82210099183
0.7329492783377112	129364.74758256398
0.7330714365507675	128858.54817545826
0.7331936151235259	128352.2644017848
0.7333158140593796	127845.89624748299
0.7334380333617229	127339.44369848802
0.7335602730339499	126832.90674073464
0.7336825330794556	126326.28536015487
0.7338048135016354	125819.57954267932
0.7339271143038857	125380.04043374423
0.734049435489603	125165.76556705654
0.7341717770621846	124951.45498789103
0.7342941390250283	124737.10869029576
0.7344165213815324	124522.72666831764
0.734538924135096	124308.30891600222
0.7346613472891185	124093.85542739501
0.734783790847	123879.36619653963
0.7349062548121412	123473.64293174417
0.7350287391879431	122729.90126769035
0.7351512439778078	121986.035646691
0.7352737691851374	121242.04604808905
0.735396314813335	120497.93245122001
0.7355188808658037	119753.69483541939
0.7356414673459482	119009.33318001461
0.7357640742571725	118264.84746433445
0.7358867016028818	117605.4020158521
0.7360093493864824	117029.95413374143
0.7361320176113801	116454.41034365118
0.736254706280982	115878.7706295959
0.7363774153986956	115303.03497558755
0.7365001449679286	114727.20336563804
0.7366228949920899	114151.27578375305
0.7367456654745885	113575.25221393777
0.7368684564188344	112997.05619836604
0.7369912678282374	112417.59025563126
0.7371140997062088	111838.02773523911
0.7372369520561599	111258.36862109302
0.7373598248815024	110678.61289709587
0.7374827181856494	110098.76054714376
0.7376056319720137	109518.81155513326
0.7377285662440091	108938.76590495734
0.7378515210050496	108174.8119119626
0.7379744962585505	107355.42725405932
0.738097492007927	106535.90603204661
0.7382205082565949	105716.24822316406
0.738343545007971	104896.45380464687
0.7384666022654723	104076.52275372576
0.7385896800325165	103256.45504763075
0.7387127783125219	102436.25066358368
0.7388358971089073	102187.61581449378
0.7389590364250921	101996.28308071427
0.7390821962644963	101804.91845814566
0.7392053766305403	101613.52194147358
0.7393285775266454	101422.0935253819
0.7394517989562333	101230.63320455403
0.7395750409227259	101039.14097367298
0.7396983034295463	100831.66614720048
0.739821586480118	100269.32198945984
0.7399448900778645	99706.88410769404
0.7400682142262109	99144.35248627956
0.740191558928582	98581.72710959545
0.7403149241884034	98019.00796201566
0.7404383100091014	97456.19502791115
0.7405617163941028	96893.28829165129
0.7406851433468352	96303.57694709317
0.7408085908707264	95591.5718744373
0.7409320589692048	94879.44813426968
0.7410555476456997	94167.20570681144
0.7411790569036406	93454.84457228248
0.7413025867464579	92742.36471089757
0.7414261371775823	92029.76610286889
0.7415497082004452	91317.0487284061
0.7416732998184786	90603.68994092318
0.741796912035115	89889.09112294637
0.7419205448537874	89174.37320516673
0.7420441982779297	88459.53616773414
0.742167872310976	87744.57999079465
0.7422915669563612	87029.50465449237
0.7424152822175206	86314.31013896756
0.7425390180978901	85598.99642435726
0.7426627746009065	84980.37764363787
0.7427865517300065	84479.67914479811
0.7429103494886282	83978.89719620804
0.7430341678802096	83478.03178396025
0.7431580069081896	82977.08289414378
0.7432818665760077	82476.05051284496
0.7434057468871037	81974.9346261497
0.7435296478449182	81473.73522014025
0.7436535694528923	80907.14686180104
0.7437775117144678	80295.76050957838
0.7439014746330868	79684.27225963128
0.7440254582121922	79072.68209497532
0.7441494624552276	78460.989998625
0.7442734873656368	77849.19595359209
0.7443975329468645	77237.29994288452
0.7445215992023557	76625.30194950858
0.7446456861355559	75999.44431692328
0.7447697937499119	75368.41442561522
0.7448939220488703	74737.27936265874
0.7450180710358784	74106.03911052566
0.7451422407143843	73474.69365168382
0.7452664310878367	72843.24296859825
0.7453906421596846	72211.68704373285
0.7455148739333779	71580.02585954641
0.7456391264123667	70990.50588237049
0.7457633996001021	70407.64263102853
0.7458876935000356	69824.68223581032
0.7460120081156189	69241.62468052735
0.7461363434503048	68658.46994898489
0.7462606995075466	68075.21802498665
0.7463850762907978	67491.86889233527
0.7465094738035127	66908.43821120476
0.7466338920491467	66329.01114438033
0.746758331031155	65749.48750637753
0.7468827907529935	65169.8672811024
0.7470072712181189	64590.150452456386
0.7471317724299886	64010.33700433881
0.7472562943920602	63430.42692064697
0.7473808371077922	62850.420185273986
0.7475054005806435	62268.7314094753
0.7476299848140736	61677.18041184904
0.7477545898115426	61085.53082238971
0.7478792155765113	60493.78262466531
0.7480038621124406	59901.93580224177
0.7481285294227926	59309.9903386813
0.7482532175110298	58717.946217542936
0.7483779263806148	58125.803422385216
0.7485026560350116	57538.85085300768
0.7486274064776842	56966.11471195091
0.748752177712097	56393.28311487168
0.7488769697417158	55820.35604585838
0.749001782570006	55247.333489000936
0.7491266162004343	54674.21542838419
0.7492514706364677	54101.00184809041
0.7493763458815739	53527.692732199335
0.7495012419392209	52953.5915364547
0.7496261588128773	52378.39331469225
0.7497510965060128	51803.099226559105
0.7498760550220971	51227.709256078146
0.7500010343646007	50652.22338726869
0.7501260345369949	50076.64160414748
0.750251055542751	49500.963890729734
0.7503760973853414	48925.19023102606
0.7505011600682389	48362.20154892759
0.750626243594917	47809.87432564596
0.7507513479688495	47257.455047827956
0.7508764731935109	46704.94370013012
0.7510016192723765	46152.34026720753
0.7511267862089218	45599.64473371331
0.7512519740066232	45046.85708429664
0.7513771826689577	44493.97730360474
0.7515024121994025	43969.67422867608
0.7516276626014359	43458.65079998788
0.751752933878536	42947.542200729134
0.7518782260341824	42436.34841670367
0.7520035390718548	41925.06943371398
0.7521288729950334	41413.705237560716
0.7522542278071992	40902.25581404139
0.7523796035118337	40390.72114895123
0.7525050001124189	39882.474792654684
0.7526304176124378	39374.8774034776
0.7527558560153731	38867.19541473631
0.752881315324709	38359.42881232974
0.7530067955439299	37851.57758215591
0.7531322966765205	37343.641710111064
0.7532578187259665	36835.621182087394
0.7533833616957542	36327.51598397574
0.75350892558937	35832.5296376214
0.7536345104103016	35338.08166153881
0.7537601161620366	34843.551277460465
0.7538857428480638	34348.93847165096
0.7540113904718717	33854.24323037446
0.7541370590369503	33359.465539891185
0.7542627485467898	32864.60538645919
0.7543884590048808	32373.526423879648
0.7545141904147151	31920.894545360203
0.7546399427797842	31468.18722819507
0.7547657161035808	31015.404459810336
0.754891510389598	30562.546227630897
0.7550173256413296	30109.612519079248
0.7551431618622698	29656.60332157628
0.7552690190559135	29203.518622540494
0.7553948972257561	28753.725442115414
0.7555207963752938	28315.159157398884
0.755646716508023	27876.51977830182
0.755772657627441	27437.80729264142
0.7558986197370455	26999.021688233348
0.756024602840335	26560.162952891318
0.7561506069408084	26121.231074426738
0.7562766320419653	25682.226040648682
0.7564026781473054	25246.369847033555
0.75652874526033	24816.110884608348
0.7566548333845401	24385.780212355847
0.7567809425234375	23955.37781832479
0.7569070726805247	23524.903690561638
0.7570332238593047	23094.357817110587
0.7571593960632813	22663.74018601355
0.7572855892959586	22233.050785311305
0.7574118035608413	21823.807874525966
0.7575380388614347	21435.548783838814
0.7576642952012449	21047.22498330307
0.7577905725837782	20658.83646213446
0.7579168710125422	20270.383209544965
0.7580431904910444	19881.865214746562
0.7581695310227928	19493.282466949513
0.7582958926112967	19104.634955360678
0.7584222752600652	18729.79902744966
0.7585486789726085	18362.87206512631
0.7586751037524372	17995.883948309103
0.7588015496030628	17628.834666805044
0.7589280165279966	17261.724210421457
0.7590545045307512	16894.552568961808
0.7591810136148396	16527.319732228592
0.7593075437837755	16160.025690022045
0.7594340950410726	15811.184315477525
0.7595606673902461	15467.656355344961
0.7596872608348112	15124.07114055203
0.7598138753782836	14780.428661557014
0.75994051102418	14436.728908815177
0.7600671677760173	14092.971872781483
0.7601938456373134	13749.15754390819
0.7603205446115863	13405.285912646941
0.7604472647023548	13076.002713119695
0.7605740059131385	12748.12041823059
0.7607007682474575	12420.183476292015
0.7608275517088319	12092.19187819718
0.7609543563007835	11764.145614835268
0.7610811820268336	11436.044677096326
0.7612080288905045	11107.889055868392
0.7613348968953197	10779.937984271066
0.7614617860448022	10457.251332406171
0.7615886963424764	10134.510899432193
0.7617156277918667	9811.716676386364
0.7618425803964988	9488.868654303096
0.7619695541598982	9165.966824216233
0.7620965490855914	8843.011177157929
0.7622235651771058	8520.001704158072
0.7623506024379685	8203.500906640515
0.7624776608717082	7915.711558402504
0.7626047404818536	7627.874245273107
0.7627318412719337	7339.988959258682
0.762858963245479	7052.055692363076
0.7629861064060198	6764.074436589626
0.7631132707570876	6476.045183939916
0.7632404563022137	6187.967926415022
0.7633676630449308	5906.828541188582
0.7634948909887717	5640.512929485247
0.7636221401372697	5374.152931846975
0.7637494104939593	5107.748540875512
0.7638767020623748	4841.299749172605
0.7640040148460518	4574.806549337443
0.7641313488485262	4308.268933968987
0.7642587040733344	4041.686895664333
0.7643860805240132	3781.74232119986
0.7645134782041005	3529.727925431835
0.7646408971171346	3277.6715272644105
0.764768337266654	3025.573119697384
0.7648957986561985	2773.4326957290145
0.7650232812893079	2521.250248356684
