#wavelength	surface flux
0.8	39812776.911164045
0.8002000000000001	40109803.001705974
0.8004000500000003	40476691.96058231
0.8006001500125003	40844377.57539131
0.8008003000500035	41212155.111604035
0.8010005001250161	41580024.59220099
0.8012007502500472	41947986.040167555
0.8014010504376099	42464061.909945175
0.8016014007002193	43029849.790974036
0.8018018010503944	43595779.11897315
0.8020022515006572	44161849.92930452
0.8022027520635323	44728062.25733798
0.8024033027515483	45253005.29445848
0.8026039035772362	45737498.55412509
0.8028045545531306	46222112.93710664
0.8030052556917691	46706848.47368417
0.803206007005692	47191705.19414541
0.8034068085074435	47604926.64820596
0.8036076602095705	47817107.46699405
0.8038085621246229	48029341.33098666
0.8040095142651542	48241628.25344541
0.8042105166437206	48453968.247634694
0.8044115692728815	48670680.39728279
0.8046126721651998	49073217.55512674
0.8048138253332411	49475855.34725984
0.8050150287895745	49878593.79884134
0.805216282546772	50281432.93503564
0.8054175866174087	50684372.781013764
0.8056189410140631	51187907.79394852
0.8058203457493168	51720015.13280882
0.8060218008357541	52252255.49850315
0.8062233062859632	52784628.92428917
0.8064248621125346	53317135.443431266
0.806626468328063	53834589.42977457
0.8068281249451449	54339130.13523697
0.8070298319763813	54843796.97587636
0.8072315894343755	55348589.98322554
0.8074333973317341	55853509.18882674
0.8076352556810671	56366407.96188146
0.8078371644949874	56898339.25472105
0.8080391237861113	57430403.53038398
0.8082411335670578	57962600.8221155
0.8084431938504498	58494931.16317051
0.8086453046489125	59033306.0690453
0.8088474659750746	59681876.776932895
0.8090496778415686	60330609.627498336
0.809251940261029	60979504.661275946
0.8094542532460944	61628561.91881256
0.8096566168094059	62277781.44066281
0.8098590309636085	62890172.890977025
0.8100614957213493	63494059.53951593
0.8102640110952797	64098097.159717046
0.8104665770980536	64702285.78932345
0.8106691937423283	65306625.46608748
0.8108718610407639	65835557.28437553
0.8110745790060241	66306845.37741656
0.8112773476507757	66778251.29248126
0.8114801669876885	67249775.0590246
0.8116830370294355	67721416.7065093
0.8118859577886929	68189161.53381428
0.8120889292781401	68648684.52633144
0.8122919515104597	69108322.39959669
0.8124950244983374	69568075.18233028
0.8126981482544621	70027942.90325949
0.8129013227915257	70495200.05417447
0.8131045481222237	71045867.73351754
0.8133078242592543	71596673.07978052
0.8135111512153191	72147616.12737992
0.813714529003123	72698696.91074128
0.8139179576353739	73249915.46429858
0.8141214371247829	73812486.3525092
0.8143249674840641	74377372.56943768
0.814528548725935	74942400.00792007
0.8147321808631167	75507568.70326284
0.8149358639083326	76072878.69077925
0.8151395978743097	76535926.44856015
0.8153433827737784	76929901.82853219
0.8155472186194719	77323975.70234907
0.8157511054241268	77718148.09463434
0.815955043200483	78112419.03001794
0.8161590319612831	78513521.44793947
0.8163630717192736	78927061.38713585
0.8165671624872033	79340704.71131657
0.8167713042778252	79754451.44632874
0.8169754971038948	80168301.61802487
0.8171797409781707	80453243.77043243
0.8173840359134155	79708318.54286364
0.8175883819223938	78963207.0839888
0.8177927790178745	78217909.34724882
0.8179972272126291	77472425.28607447
0.8182017265194322	76726754.85388558
0.8184062769510622	76671480.15109107
0.8186108785203001	76722462.00091581
0.8188155312399301	76773456.59620294
0.8190202351227402	76824463.94013895
0.819224990181521	76875484.0359109
0.8194297964290664	77075100.24401678
0.8196346538781738	77364324.71123509
0.8198395625416434	77653621.4845701
0.8200445224322789	77942990.58209856
0.820249533562887	78232432.02190131
0.8204545959462778	78244512.43505135
0.8206597095952644	77810074.32162547
0.8208648745226633	77375527.59867091
0.8210700907412941	76940872.23903568
0.8212753582639793	76506108.21556097
0.8214806771035456	76164038.45696664
0.8216860472728215	76393662.45523879
0.8218914687846397	76623343.85951053
0.822096941651836	76853082.68413344
0.822302465887249	77082878.94346239
0.8225080415037209	77312732.65185627
0.8227136685140968	77751622.08818579
0.8229193469312254	78214344.64752087
0.8231250767679583	78677182.88749595
0.8233308580371503	79140136.83703077
0.8235366907516598	79603206.52505332
0.8237425749243477	80202398.30059786
0.8239485105680789	80873825.61465153
0.824154497695721	81545420.78553328
0.824360536320145	82217183.85520789
0.8245666264542252	82889114.86564988
0.8247727681108388	83297083.35389255
0.8249789613028664	83326869.23843512
0.8251852060431922	83356662.56944884
0.825391502344703	83386463.3487953
0.8255978502202894	83416271.57833663
0.8258042496828445	83342647.16298182
0.8260107007452654	82766640.22601028
0.8262172034204517	82190489.28730507
0.8264237577213068	81614194.31086504
0.8266303636607373	81037755.26068066
0.8268370212516525	80461172.100734
0.8270437305069654	80390624.7414439
0.8272504914395923	80359614.41839102
0.8274573040624523	80328596.34275734
0.8276641683884679	80297570.5126048
0.8278710844305652	80266536.92599468
0.8280780522016729	80268737.25702032
0.8282850717147234	80286132.84668496
0.8284921429826521	80303532.78524701
0.8286992660183978	80320937.07379371
0.8289064408349024	80338345.71341254
0.8291136674451112	80316218.68029454
0.8293209458619727	80244228.12534845
0.8295282760984382	80172219.5727637
0.829735658167463	80100193.01804073
0.8299430920820048	80028148.45667917
0.8301505778550254	80002189.90502696
0.8303581154994891	80160239.51194865
0.8305657050283641	80318328.63127223
0.8307733464546212	80476457.27287552
0.8309810397912352	80634625.44663946
0.8311887850511829	80792833.16244653
0.8313965822474458	81153161.12735108
0.8316044313930077	81522958.80835834
0.8318123325008561	81892848.93878621
0.8320202855839813	82262831.5417465
0.8322282906553774	82632906.64035757
0.8324363477280413	82923964.18815741
0.8326444568149735	83183245.06541857
0.8328526179291771	83442590.76289874
0.8330608310836596	83702001.29680368
0.8332690962914304	83961476.68334176
0.8334774135655034	84099282.22313835
0.833685782918895	84101140.5393288
0.8338942043646247	84102999.3200983
0.834102677915716	84104858.565563
0.834311203585195	84106718.27583906
0.8345197813860912	84126712.35297647
0.8347284113314379	84207751.83835301
0.8349370934342709	84288811.58360086
0.8351458277076294	84369891.59378491
0.8353546141645565	84450991.87397166
0.8355634528180977	84532112.4292284
0.8357723436813022	84762094.96512544
0.8359812867672226	84993972.81240739
0.8361902820889144	85225908.62915103
0.8363993296594368	85457902.42984892
0.8366084294918518	85689954.22899708
0.8368175815992247	85786662.07486755
0.8370267859946247	85836760.26979664
0.8372360426911234	85886870.98927444
0.8374453517017962	85936994.2364321
0.8376547130397217	85987130.01440157
0.8378641267179816	86157645.9399237
0.8380735927496613	86447640.45679149
0.8382831111478488	86737707.47228833
0.8384926819256358	87027847.00453888
0.8387023050961173	87318059.07167275
0.8389119806723914	87517501.091326
0.8391217086675596	87461332.20993254
0.8393314890947265	87405149.28631876
0.8395413219670003	87348952.31697409
0.8397512072974922	87292741.29838704
0.8399611450993165	87242590.08792476
0.8401711353855914	87494052.10025035
0.8403811781694378	87745576.97807895
0.8405912734639802	87997164.73712707
0.8408014212823464	88248815.39311506
0.8410116216376671	88500528.96176702
0.8412218745430766	88314468.97509709
0.8414321800117124	88000968.95219691
0.8416425380567154	87687390.55429086
0.8418529486912297	87373733.76178525
0.8420634119284025	87059998.55508178
0.8422739277813847	87159966.01737177
0.8424844962633302	87624515.67934065
0.842695117387396	88089181.47872442
0.8429057911667428	88553963.44455807
0.8431165176145345	89018861.60588339
0.8433272967439382	88752089.87325437
0.8435381285681244	86700222.18028231
0.8437490131002665	84647841.52038747
0.8439599503535415	82594947.76532893
0.84417094034113	80541540.78683014
0.8443819830762154	78550556.67895606
0.8445930785719846	77826930.40491647
0.8448042268416277	77103123.22430876
0.8450154278983382	76379135.091906
0.8452266817553128	75654965.96247019
0.8454379884257517	74930615.79075193
0.8456493479228583	74911301.89626993
0.845860760259839	75061807.99037105
0.846072225449904	75212351.71099569
0.8462837435062666	75362933.06755051
0.8464953144421433	75513552.06944457
0.8467069382707537	75778169.34533001
0.8469186150053215	76131681.5782995
0.847130344659073	76485282.18932731
0.8473421272452377	76838971.20050755
0.8475539627770492	77192748.63394095
0.8477658512677435	77570974.95806327
0.8479777927305605	78001022.03871556
0.8481897871787432	78431176.63113788
0.848401834625538	78861438.76220855
0.8486139350841944	79291808.45881173
0.8488260885679657	79707662.17287208
0.8490382950901076	79945363.66289891
0.8492505546638802	80183124.57829836
0.8494628673025462	80420944.93392657
0.8496752330193721	80658824.74464403
0.8498876518276269	80896764.02531387
0.8501001237405839	80955460.43075725
0.8503126487715191	80978379.61017838
0.850525226933712	81001304.51939434
0.8507378582404455	81024235.15983759
0.8509505427050057	81047171.53294098
0.8511632803406821	80962490.98875879
0.8513760711607672	80804087.4657594
0.8515889151785576	80645644.34187901
0.8518018124073523	80487161.60721779
0.8520147628604541	80328639.25187299
0.8522277665511693	80307441.87644449
0.8524408234928071	80540278.44457914
0.8526539336986805	80773173.22185588
0.8528670971821053	81006126.22282697
0.8530803139564007	81239137.46204801
0.8532935840348901	81463342.26939869
0.8535069074308987	81612736.33596109
0.8537202841577566	81762167.75104026
0.8539337142287962	81911636.52397321
0.8541471976573534	82061142.6640993
0.8543607344567677	82210686.18076046
0.8545743246403821	81722705.32761395
0.8547879682215422	81133350.38548455
0.8550016652135977	80543848.10461968
0.8552154156299011	79954198.44818458
0.8554292194838088	79364401.37933494
0.8556430767886797	79019642.33674543
0.855856987557877	78823667.24940307
0.8560709518047664	78627643.16828902
0.8562849695427177	78431570.08115463
0.8564990407851035	78235447.97574838
0.8567131655452999	77957011.05861734
0.8569273438366862	77543709.304319
0.8571415756726455	77130304.224582
0.8573558610665638	76716795.79357491
0.8575702000318304	76303183.98546053
0.8577845925818384	76091172.81188546
0.857999038729984	77139026.36208685
0.8582135384896665	78187141.87567553
0.858428091874289	79235519.41814268
0.8586426988972576	80284159.05499515
0.8588573595719821	81333060.8517572
0.8590720739118751	81232955.62253223
0.8592868419303532	80997323.0882511
0.8595016636408359	80761631.64583638
0.8597165390567462	80525881.28056113
0.8599314681915105	80290071.97769453
0.8601464510585584	79859775.60216029
0.860361487671323	79326170.5634912
0.8605765780432408	78792432.12356257
0.8607917221877518	78258560.24902353
0.8610069201182988	77724554.906516
0.8612221718483286	77180775.3229543
0.8614374773912907	76622961.36351095
0.8616528367606385	76065007.9505779
0.8618682499698288	75506915.04929127
0.8620837170323213	74948682.62477939
0.8622992379615795	74459062.6938718
0.8625148127710699	74309547.92170781
0.8627304414742627	74159995.77085078
0.8629461240846313	74010406.23195599
0.8631618606156526	73860779.29567648
0.8633776510808066	73711114.95266293
0.8635934954935769	74307267.6516664
0.8638093938674504	74964708.42775443
0.8640253462159173	75622313.56403646
0.8642413525524714	76280083.10160255
0.8644574128906095	76938017.0815529
0.8646735272438323	76655160.42963253
0.8648896956256433	75934662.86227575
0.8651059180495498	75213985.17052709
0.8653221945290621	74493127.30935618
0.8655385250776946	73772089.23371896
0.8657549097089641	73798335.74316147
0.8659713484363913	74781508.1270534
0.8661878412735006	75764926.30404176
0.866404388233819	76748590.33557422
0.8666209893308775	77732500.28311412
0.8668376445782103	78556231.37469688
0.8670543539893549	78725393.21562903
0.8672711175778525	78894597.34702152
0.8674879353572469	79063843.77944666
0.8677048073410862	79233132.52347998
0.8679217335429217	79402463.58969942
0.8681387139763074	78831582.547436
0.8683557486548015	78223784.83023518
0.8685728375919655	77615835.1636043
0.8687899808013633	77007733.50955811
0.8690071782965637	76399479.8300976
0.869224430091138	76273433.15055177
0.8694417361986609	76343626.25243552
0.8696590966327107	76413836.90259473
0.869876511406869	76484065.10541649
0.8700939805347206	76554310.86528893
0.8703115040298544	76806162.17817675
0.870529081905862	77265684.0597133
0.8707467141763385	77725320.82172008
0.8709644008548827	78185072.49291734
0.8711821419550964	78644939.10203212
0.8713999374905854	79102452.21105385
0.871617787474958	79551560.16314955
0.8718356919218269	80000780.3922337
0.8720536508448075	80450112.92637514
0.8722716642575187	80899557.79364984
0.8724897321735832	81349115.02214158
0.8727078546066265	82054291.7970381
0.8729260315702784	82763531.96815163
0.873144263078171	83472949.44930717
0.8733625491439405	84182544.28483309
0.8735808897812266	84892316.51906815
0.8737992850036719	85112292.11847542
0.874017734824923	85158781.9499272
0.8742362392586293	85205283.40383682
0.874454798318444	85251796.48310992
0.8746734120180236	85298321.19065283
0.8748920803710283	85339448.86978173
0.875110803391121	85375151.64331499
0.8753295810919689	85410863.34254164
0.875548413487242	85446583.9696931
0.8757673005906139	85482313.52700135
0.8759862424157616	85744597.16033669
0.8762052389763657	86662465.42897637
0.8764242902861098	87580563.1646826
0.8766433963586814	88498890.424823
0.8768625572077712	89417447.26677871
0.8770817728470732	90329674.12897032
0.8773010432902849	90729970.5498109
0.8775203685511077	91130367.04475726
0.8777397486432454	91530863.63882686
0.8779591835804065	91931460.35704546
0.8781786733763015	92332157.2244431
0.8783982180446457	92318319.12231265
0.878617817599157	92181131.35551713
0.8788374720535569	92043909.29178
0.8790571814215703	91906652.92252696
0.8792769457169257	91769362.23918161
0.879496764953355	91805319.82220629
0.8797166391445934	91997078.82357949
0.8799365683043796	92188885.76470305
0.8801565524464557	92380740.65756188
0.8803765915845676	92572643.51414412
0.8805966857324639	92735561.45910117
0.880816834903897	92825598.22425143
0.881037039112623	92915657.49859303
0.8812572983724012	93005739.28775321
0.8814776126969944	93095843.5973607
0.8816979821001687	93209033.98741165
0.8819184065956938	93865172.62687437
0.8821388861973429	94521475.30099763
0.8823594209188923	95177942.05078878
0.882580010774122	95834572.91726708
0.8828006557768155	96491367.94146237
0.8830213559407598	97371566.79041189
0.8832421112797452	98308132.72105478
0.8834629218075651	99244932.79317977
0.8836837875380171	100181967.06532305
0.8839047084849018	101119235.59603454
0.884125684662023	101331498.67361708
0.8843467160831886	100962627.76488231
0.8845678027622095	100593664.63842036
0.8847889447129001	100224609.27117673
0.8850101419490785	99855461.64009136
0.8852313944845657	99090933.30266832
0.885452702333187	97460975.96541607
0.8856740655087704	95830611.13882974
0.8858954840251476	94199838.72103721
0.8861169578961539	92568658.61014098
0.886338487135628	90985283.74211472
0.886560071757412	90043103.54001103
0.8867817117753515	89100687.79285684
0.8870034072032955	88158036.44176544
0.8872251580550963	87215149.42783737
0.8874469643446101	86272026.69215524
0.8876688260856963	86334887.7940261
0.8878907432922178	86606014.65662393
0.8881127159780409	86877209.30093724
0.8883347441570356	87148471.74391194
0.8885568278430749	87419802.0024971
0.8887789670500358	87623381.95409344
0.8890011617917983	87778904.39985108
0.8892234120822464	87934465.72622025
0.8894457179352669	88090065.94292086
0.8896680793647509	88245705.05967578
0.8898904963845921	88588737.67775038
0.8901129690086883	89289333.54635447
0.8903354972509405	89990104.56392555
0.8905580811252535	90691050.77425157
0.8907807206455347	91392172.22112921
0.8910034158256963	92079643.06024975
0.8912261666796527	92643724.30451933
0.8914489732213227	93207946.56910013
0.8916718354646282	93772309.88924764
0.8918947534234944	94336814.30022463
0.8921177271118502	94901459.83730403
0.8923407565436284	95097540.95033954
0.8925638417327644	95233525.1770927
0.8927869826931977	95369543.3999026
0.8930101794388711	95505595.62726818
0.8932334319837308	95641681.86769058
0.8934567403417267	95814852.27941829
0.8936801045268123	96011088.29045591
0.8939035245529441	96207373.36049616
0.8941270004340824	96403707.501804
0.894350532184191	96600090.72664711
0.8945741198172371	97009038.6606995
0.8947977633471915	97770520.62691154
0.8950214627880284	98532192.96361507
0.8952452181537254	99294055.71840236
0.8954690294582639	100056108.93887877
0.8956928967156286	100794745.40433455
0.8959168199398075	101380363.76705039
0.8961407991447926	101966128.53435706
0.8963648343445789	102552039.74285553
0.896588925553165	103138097.42915581
0.8968130727845534	103724301.62987775
0.8970372760527496	104195169.97838914
0.8972615353717629	104651706.86973734
0.8974858507556059	105108357.89530843
0.8977102222182949	105565123.08363579
0.8979346497738496	106022002.46326049
0.8981591334362931	106577494.16541329
0.8983836732196523	107186991.03681013
0.8986082691379572	107796640.2824244
0.8988329212052417	108406441.94035009
0.8990576294355432	109016396.04869078
0.8992823938429022	109574538.41030745
0.8995072144413631	110055556.09333943
0.8997320912449734	110536694.03079198
0.8999570242677847	111017952.25272879
0.9001820135238516	111499330.78922112
0.9004070590272328	112008077.60524458
0.9006321607919896	112659794.57869132
0.9008573188321878	113311674.48138209
0.9010825331618959	113963717.3540482
0.9013078037951865	114615923.2374326
0.9015331307461353	115268292.17228751
0.9017585140288219	115694182.05770369
0.9019839536573292	116100657.14047322
0.9022094496457435	116507233.84201314
0.9024350020081551	116913912.1877289
0.9026606107586572	117320692.20303097
0.902886275911347	117679915.28313865
0.9031119974803249	118016253.39191334
0.9033377754796951	118352675.58521523
0.903563609923565	118689181.8840653
0.903789500826046	119025772.30949031
0.9040154482012526	119328196.59597753
0.904241452063303	119586328.2328723
0.9044675124263188	119844524.40267625
0.9046936293044254	120102785.12152262
0.9049198027117517	120361110.40554883
0.9051460326624297	120604304.90786012
0.9053723191705955	120782854.81800249
0.9055986622503881	120961449.36562224
0.9058250619159507	121140088.5618789
0.9060515181814298	121318772.41793475
0.9062780310609752	121497500.94495447
0.9065046005687405	121852981.38948469
0.906731226718883	122218408.67835003
0.9069579095255627	122583927.32403712
0.907184649002944	122949537.34938565
0.907411445165195	123315238.77724089
0.9076382980264862	123853832.0678077
0.907865207600993	124464323.70828982
0.9080921739028933	125074967.97168188
0.9083191969463691	125685764.89613968
0.9085462767456058	126296714.51982892
0.9087734133147922	126719651.94677739
0.9090006066681211	126925362.27679539
0.909227856819788	127131124.0343956
0.9094551637839932	127336937.23243551
0.9096825275749393	127542801.88377486
0.9099099482068329	127789114.17248136
0.9101374256938848	128179056.73217553
0.9103649600503083	128569096.77750945
0.9105925512903209	128959234.33285463
0.9108201994281437	129349469.42258903
0.9110479044780008	129739802.07109545
0.9112756664541204	130348238.98406531
0.911503485370734	130961818.14076468
0.9117313612420768	131575550.69225325
0.9119592940823873	132189436.67687948
0.912187283905908	132803476.13300207
0.9124153307268845	133139118.9313071
0.9126434345595664	133373748.21113789
0.9128715954182063	133608436.14828843
0.9130998133170609	133843182.75742336
0.9133280882703902	134077988.05321056
0.913556420292458	134404977.42191494
0.9137848093975312	134827058.7939531
0.9140132555998806	135249245.68633422
0.9142417589137806	135671538.12543848
0.9144703193535092	136093936.13765275
0.9146989369333476	136468622.91587335
0.9149276116675811	136699186.3047135
0.9151563435704979	136929807.33440062
0.9153851326563907	137160486.01934534
0.9156139789395548	137391222.3739612
