#wavelength	surface flux
0.8	22869105.78168307
0.8002000000000001	23135917.907778263
0.8004000500000003	23442677.4157531
0.8006001500125003	23749916.447727647
0.8008003000500035	24057232.289460212
0.8010005001250161	24364624.960153352
0.8012007502500472	24672094.479013722
0.8014010504376099	25002465.006038055
0.8016014007002193	25340563.51555344
0.8018018010503944	25678746.549696207
0.8020022515006572	26017014.12959766
0.8022027520635323	26355366.276393794
0.8024033027515483	26676853.344508592
0.8026039035772362	26981810.771584854
0.8028045545531306	27286844.4380179
0.8030052556917691	27591954.362867706
0.803206007005692	27897140.56519845
0.8034068085074435	28190664.518372543
0.8036076602095705	28451356.98705396
0.8038085621246229	28712114.628852345
0.8040095142651542	28972937.460061338
0.8042105166437206	29233825.496978045
0.8044115692728815	29495077.27411003
0.8046126721651998	29769234.158184126
0.8048138253332411	30043459.581479017
0.8050150287895745	30317753.561129987
0.805216282546772	30592116.1142758
0.8054175866174087	30866547.25805975
0.8056189410140631	31173933.465699352
0.8058203457493168	31490705.519924816
0.8060218008357541	31807556.767163433
0.8062233062859632	32124487.227214012
0.8064248621125346	32441496.91987939
0.806626468328063	32765962.045676637
0.8068281249451449	33096843.53465576
0.8070298319763813	33427807.744007535
0.8072315894343755	33758854.6944114
0.8074333973317341	34089984.40655299
0.8076352556810671	34413651.831898816
0.8078371644949874	34719237.9325925
0.8080391237861113	35024900.42981142
0.8082411335670578	35330639.34265445
0.8084431938504498	35636454.69022602
0.8086453046489125	35942536.19752093
0.8088474659750746	36252226.20892838
0.8090496778415686	36561993.64283908
0.809251940261029	36871838.51860805
0.8094542532460944	37181760.85559622
0.8096566168094059	37491760.67316829
0.8098590309636085	37799538.63740681
0.8100614957213493	38106855.36372411
0.8102640110952797	38414248.91922304
0.8104665770980536	38721719.32311096
0.8106691937423283	39029266.59459997
0.8108718610407639	39320124.675231546
0.8110745790060241	39598235.33077508
0.8112773476507757	39876415.51398274
0.8114801669876885	40154665.24223614
0.8116830370294355	40432984.532921426
0.8118859577886929	40705526.27816806
0.8120889292781401	40965991.424000815
0.8122919515104597	41226521.68612
0.8124950244983374	41487117.080804735
0.8126981482544621	41747777.624338105
0.8129013227915257	42011262.70531769
0.8131045481222237	42306408.892386965
0.8133078242592543	42601628.866003044
0.8135111512153191	42896922.64461245
0.813714529003123	43192290.246666536
0.8139179576353739	43487731.69062119
0.8141214371247829	43819468.311691046
0.8143249674840641	44158311.78947058
0.814528548725935	44497239.97811936
0.8147321808631167	44836252.89881576
0.8149358639083326	45175350.572742224
0.8151395978743097	45459851.961208455
0.8153433827737784	45707479.65674872
0.8155472186194719	45955169.25921278
0.8157511054241268	46202920.7840774
0.815955043200483	46450734.24682341
0.8161590319612831	46610653.05453286
0.8163630717192736	46609442.07851628
0.8165671624872033	46608230.7997557
0.8167713042778252	46607019.21817542
0.8169754971038948	46605807.33369975
0.8171797409781707	46468678.59977727
0.8173840359134155	45246451.698533826
0.8175883819223938	44023919.240566485
0.8177927790178745	42801081.14948395
0.8179972272126291	41577937.348878324
0.8182017265194322	40354487.76232378
0.8184062769510622	39964667.84463728
0.8186108785203001	39703080.80736751
0.8188155312399301	39441428.37333878
0.8190202351227402	39179710.52620125
0.819224990181521	38917927.2496021
0.8194297964290664	40123726.11128509
0.8196346538781738	42214448.40067738
0.8198395625416434	44305693.37064119
0.8200445224322789	46397461.15184837
0.820249533562887	48489751.87500023
0.8204545959462778	50020913.31745764
0.8206597095952644	50648493.250139184
0.8208648745226633	51276230.07780439
0.8210700907412941	51904123.83967641
0.8212753582639793	52532174.57498826
0.8214806771035456	53109202.35701659
0.8216860472728215	53371043.450755745
0.8218914687846397	53632950.00476835
0.822096941651836	53894922.0354196
0.822302465887249	54156959.55907835
0.8225080415037209	54419062.59211816
0.8227136685140968	54649191.33240347
0.8229193469312254	54875740.41584391
0.8231250767679583	55102346.136555284
0.8233308580371503	55329008.50869671
0.8235366907516598	55555727.54643135
0.8237425749243477	55856851.63852021
0.8239485105680789	56197456.95716861
0.824154497695721	56538147.42714644
0.824360536320145	56878923.069741845
0.8245666264542252	57219783.90624787
0.8247727681108388	57507013.21835432
0.8249789613028664	57717381.85649335
0.8251852060431922	57927803.0867921
0.825391502344703	58138276.92239832
0.8255978502202894	58348803.37646364
0.8258042496828445	58557876.00099465
0.8260107007452654	58759684.65902767
0.8262172034204517	58961543.769225
0.8264237577213068	59163453.344199926
0.8266303636607373	59365413.396568686
0.8268370212516525	59567423.93895044
0.8270437305069654	59732759.714610144
0.8272504914395923	59895266.98309641
0.8274573040624523	60057814.87839984
0.8276641683884679	60220403.410676956
0.8278710844305652	60383032.59008733
0.8280780522016729	60566003.905130595
0.8282850717147234	60758300.731156155
0.8284921429826521	60950645.63138802
0.8286992660183978	61143038.6178451
0.8289064408349024	61335479.70254866
0.8291136674451112	61526481.456856325
0.8293209458619727	61715655.37345616
0.8295282760984382	61904876.58353488
0.829735658167463	62094145.09891635
0.8299430920820048	62283460.93142642
0.8301505778550254	62473258.97601386
0.8303581154994891	62664840.215990596
0.8305657050283641	62856469.351277515
0.8307733464546212	63048146.39384811
0.8309810397912352	63239871.35567966
0.8311887850511829	63431644.24875129
0.8313965822474458	63674648.57610193
0.8316044313930077	63920089.3511019
0.8318123325008561	64165591.48629585
0.8320202855839813	64411154.99702348
0.8322282906553774	64656779.89862881
0.8324363477280413	64867939.662144676
0.8326444568149735	65065251.95066527
0.8328526179291771	65262613.56725777
0.8330608310836596	65460024.52425471
0.8332690962914304	65657484.83399064
0.8334774135655034	65822839.62021073
0.833685782918895	65952317.67862549
0.8338942043646247	66081828.10655478
0.834102677915716	66211370.912091136
0.834311203585195	66340946.10332877
0.8345197813860912	66482908.14995473
0.8347284113314379	66666491.960146695
0.8349370934342709	66850121.66629111
0.8351458277076294	67033797.27986184
0.8353546141645565	67217518.81233627
0.8355634528180977	67401286.27519374
0.8357723436813022	67539140.67389609
0.8359812867672226	67676462.05957806
0.8361902820889144	67813817.77560638
0.8363993296594368	67951207.83056375
0.8366084294918518	68088632.2330349
0.8368175815992247	68276192.87141025
0.8370267859946247	68481056.0019538
0.8372360426911234	68685970.34827991
0.8374453517017962	68890935.92319259
0.8376547130397217	69095952.73949896
0.8378641267179816	69285563.10935235
0.8380735927496613	69459882.82450412
0.8382831111478488	69634246.11958456
0.8384926819256358	69808653.0054887
0.8387023050961173	69983103.49311446
0.8389119806723914	70150052.63412999
0.8391217086675596	70295809.53175911
0.8393314890947265	70441602.86861254
0.8395413219670003	70587432.6538002
0.8397512072974922	70733298.89643425
0.8399611450993165	70878613.38782342
0.8401711353855914	70994753.52183765
0.8403811781694378	71110922.69088537
0.8405912734639802	71227120.90222538
0.8408014212823464	71343348.16311827
0.8410116216376671	71459604.48082638
0.8412218745430766	71583160.73360771
0.8414321800117124	71708863.41833812
0.8416425380567154	71834597.52873978
0.8418529486912297	71960363.07266907
0.8420634119284025	72086160.05798425
0.8422739277813847	72314780.07572971
0.8424844962633302	72634020.6219618
0.842695117387396	72953340.97833003
0.8429057911667428	73272741.16478737
0.8431165176145345	73592221.20129149
0.8433272967439382	73793101.32677925
0.8435381285681244	73704538.77645609
0.8437490131002665	73615954.08549538
0.8439599503535415	73527347.24836197
0.84417094034113	73438718.25951923
0.8443819830762154	73357762.47064035
0.8445930785719846	73431810.07168628
0.8448042268416277	73505876.18463244
0.8450154278983382	73579960.8141068
0.8452266817553128	73654063.96473855
0.8454379884257517	73728185.64115795
0.8456493479228583	73940126.42600468
0.845860760259839	74185304.23138085
0.846072225449904	74430543.33120836
0.8462837435062666	74675843.74081087
0.8464953144421433	74921205.47551595
0.8467069382707537	75133289.81334011
0.8469186150053215	75319440.6504046
0.847130344659073	75505638.02517842
0.8473421272452377	75691881.94929573
0.8475539627770492	75878172.43439429
0.8477658512677435	76046997.92259575
0.8479777927305605	76178682.10525742
0.8481897871787432	76310399.20896474
0.848401834625538	76442149.24194804
0.8486139350841944	76573932.2124395
0.8488260885679657	76689734.11351517
0.8490382950901076	76610359.80528419
0.8492505546638802	76530965.65347612
0.8494628673025462	76451551.65313013
0.8496752330193721	76372117.79928392
0.8498876518276269	76292664.08697437
0.8501001237405839	75101750.09703024
0.8503126487715191	73688675.35186408
0.850525226933712	72275247.33801243
0.8507378582404455	70861465.96715732
0.8509505427050057	69447331.15095869
0.8511632803406821	67950697.48770395
0.8513760711607672	66397435.16857447
0.8515889151785576	64843784.533862785
0.8518018124073523	63289745.48649373
0.8520147628604541	61735317.92936375
0.8522277665511693	61225706.134275004
0.8524408234928071	62648946.07540494
0.8526539336986805	64072541.82652055
0.8528670971821053	65496493.47657402
0.8530803139564007	66920801.11453832
0.8532935840348901	68379618.30356988
0.8535069074308987	70127243.73859508
0.8537202841577566	71875306.07998051
0.8539337142287962	73623805.43695149
0.8541471976573534	75372741.91876061
0.8543607344567677	77122115.63469051
0.8545743246403821	77378860.31582755
0.8547879682215422	77398553.17737712
0.8550016652135977	77418250.96214208
0.8552154156299011	77437953.67135322
0.8554292194838088	77457661.30624169
0.8556430767886797	77436478.87480682
0.855856987557877	77390460.78797425
0.8560709518047664	77344431.19662002
0.8562849695427177	77298390.09786792
0.8564990407851035	77252337.48884112
0.8567131655452999	77120822.22536866
0.8569273438366862	76849259.53632224
0.8571415756726455	76577628.9566035
0.8573558610665638	76305930.46923974
0.8575702000318304	76034164.05725443
0.8577845925818384	75890705.93457107
0.857999038729984	76549097.17979476
0.8582135384896665	77207653.0228296
0.858428091874289	77866373.50482526
0.8586426988972576	78525258.66694123
0.8588573595719821	79184308.55034795
0.8590720739118751	79034956.82280327
0.8592868419303532	78790235.3659123
0.8595016636408359	78545452.72865711
0.8597165390567462	78300608.89574268
0.8599314681915105	78055703.85186997
0.8601464510585584	77276194.41968812
0.860361487671323	76212758.33119686
0.8605765780432408	75149056.38368377
0.8607917221877518	74085088.51068294
0.8610069201182988	73020854.64571415
0.8612221718483286	70709211.48590773
0.8614374773912907	66599064.66405675
0.8616528367606385	62487890.30550142
0.8618682499698288	58375688.153353855
0.8620837170323213	54262457.95066893
0.8622992379615795	50822090.484902315
0.8625148127710699	50715691.52616679
0.8627304414742627	50609265.96769158
0.8629461240846313	50502813.802826725
0.8631618606156526	50396335.02492064
0.8633776510808066	50289829.62732011
0.8635934954935769	52009662.492660984
0.8638093938674504	53879635.74942232
0.8640253462159173	55750076.49949778
0.8642413525524714	57620984.85976072
0.8644574128906095	59492360.947113335
0.8646735272438323	60326472.84759414
0.8648896956256433	60678219.12749469
0.8651059180495498	61030053.34396524
0.8653221945290621	61381975.51898957
0.8655385250776946	61733985.67455815
0.8657549097089641	62434282.99391749
0.8659713484363913	63580526.85701878
0.8661878412735006	64727057.281086385
0.866404388233819	65873874.33775985
0.8666209893308775	67020978.098696955
0.8668376445782103	67927199.64903331
0.8670543539893549	67849314.69354571
0.8672711175778525	67771410.2668192
0.8674879353572469	67693486.36398609
0.8677048073410862	67615542.98017724
0.8679217335429217	67537580.11052239
0.8681387139763074	67556222.3840966
0.8683557486548015	67579669.38388067
0.8685728375919655	67603122.24541475
0.8687899808013633	67626580.97016414
0.8690071782965637	67650045.55959475
0.869224430091138	67398139.62369396
0.8694417361986609	67034120.40573204
0.8696590966327107	66670010.18296572
0.869876511406869	66305808.932643674
0.8700939805347206	65941516.63200924
0.8703115040298544	65754459.690988824
0.870529081905862	65770091.39692346
0.8707467141763385	65785727.010784574
0.8709644008548827	65801366.53354915
0.8711821419550964	65817009.96619441
0.8713999374905854	65856225.29851807
0.871617787474958	65976791.74126798
0.8718356919218269	66097388.32562868
0.8720536508448075	66218015.05913549
0.8722716642575187	66338671.94932559
0.8724897321735832	66459359.00373831
0.8727078546066265	67103649.96991989
0.8729260315702784	67756067.28295483
0.873144263078171	68408647.70031731
0.8733625491439405	69061391.26278421
0.8735808897812266	69714298.01114199
0.8737992850036719	69789761.78489836
0.874017734824923	69660665.8055486
0.8742362392586293	69531537.55220406
0.874454798318444	69402377.0167962
0.8746734120180236	69273184.1912545
0.8748920803710283	69209298.32732771
0.875110803391121	69211056.22209117
0.8753295810919689	69212814.55632833
0.875548413487242	69214573.33014904
0.8757673005906139	69216332.5436632
0.8759862424157616	69591265.2586606
0.8762052389763657	71046085.57185693
0.8764242902861098	72501269.59013057
0.8766433963586814	73956817.40440914
0.8768625572077712	75412729.10564175
0.8770817728470732	76853341.0024488
0.8773010432902849	77071324.44969638
0.8775203685511077	77289362.39280608
0.8777397486432454	77507454.84540129
0.8779591835804065	77725601.82110992
0.8781786733763015	77943803.33356218
0.8783982180446457	77234922.7990891
0.878617817599157	76250059.23629516
0.8788374720535569	75264949.457611
0.8790571814215703	74279593.4014824
0.8792769457169257	73293991.00633976
0.879496764953355	72951981.70479262
0.8797166391445934	73188740.89433907
0.8799365683043796	73425559.27368292
0.8801565524464557	73662436.85762161
0.8803765915845676	73899373.6609565
0.8805966857324639	74148320.3340739
0.880816834903897	74427345.6577871
0.881037039112623	74706440.73783135
0.8812572983724012	74985605.5916456
0.8814776126969944	75264840.2366734
0.8816979821001687	75546543.18310004
0.8819184065956938	75884777.47802125
0.8821388861973429	76223096.33151655
0.8823594209188923	76561499.7647249
0.882580010774122	76899987.7987914
0.8828006557768155	77238560.45486659
0.8830213559407598	78046485.69948281
0.8832421112797452	78972638.5770788
0.8834629218075651	79899022.99289364
0.8836837875380171	80825639.0048127
0.8839047084849018	81752486.6707349
0.884125684662023	81744772.14867081
0.8843467160831886	80987937.77412426
0.8845678027622095	80230914.19098409
0.8847889447129001	79473701.351948
0.8850101419490785	78716299.20970227
0.8852313944845657	78902394.33948906
0.885452702333187	81154150.2660652
0.8856740655087704	83406469.13162264
0.8858954840251476	85659351.07689586
0.8861169578961539	87912796.24265437
0.886338487135628	89921661.04574302
0.886560071757412	88668800.79941216
0.8867817117753515	87415627.33801973
0.8870034072032955	86162140.5832614
0.8872251580550963	84908340.45681584
0.8874469643446101	83654226.88033791
0.8876688260856963	83553550.14341854
0.8878907432922178	83691631.662137
0.8881127159780409	83829747.70123506
0.8883347441570356	83967898.26934305
0.8885568278430749	84106083.37509292
0.8887789670500358	83775939.42615509
0.8890011617917983	83113468.14660698
0.8892234120822464	82450831.24923868
0.8894457179352669	81788028.69264658
0.8896680793647509	81125060.4354148
0.8898904963845921	80704241.73931707
0.8901129690086883	80745661.81548703
0.8903354972509405	80787092.246676
0.8905580811252535	80828533.03547281
0.8907807206455347	80869984.18446675
0.8910034158256963	80946337.06704031
0.8912261666796527	81334531.95788623
0.8914489732213227	81722823.89745499
0.8916718354646282	82111212.91000903
0.8918947534234944	82499699.01981582
0.8921177271118502	82888282.25114982
0.8923407565436284	82676773.31675853
0.8925638417327644	82367304.30850682
0.8927869826931977	82057757.93300293
0.8930101794388711	81748134.1709052
0.8932334319837308	81438433.00286698
0.8934567403417267	81282939.01546562
0.8936801045268123	81223275.87553334
0.8939035245529441	81163597.81981611
0.8941270004340824	81103904.84458493
0.894350532184191	81044196.94610995
0.8945741198172371	81811695.22208363
0.8947977633471915	83951232.89532635
0.8950214627880284	86091305.4529873
0.8952452181537254	88231913.02878639
0.8954690294582639	90373055.75648071
0.8956928967156286	92367724.55663885
0.8959168199398075	93408854.59906135
0.8961407991447926	94450244.92399472
0.8963648343445789	95491895.59650931
0.896588925553165	96533806.68169142
0.8968130727845534	97575978.24464497
0.8970372760527496	97627523.48258398
0.8972615353717629	97555101.70502657
0.8974858507556059	97482661.82202475
0.8977102222182949	97410203.82905221
0.8979346497738496	97337727.72158137
0.8981591334362931	97365671.03073524
0.8983836732196523	97448548.25232162
0.8986082691379572	97531446.19321334
0.8988329212052417	97614364.85859029
0.8990576294355432	97697304.25363365
0.8992823938429022	97712130.8452432
0.8995072144413631	97625655.23052089
0.8997320912449734	97539157.99689494
0.8999570242677847	97452639.1389606
0.9001820135238516	97366098.65131176
0.9004070590272328	97431280.99513058
0.9006321607919896	98291975.89802484
0.9008573188321878	99152885.9746457
0.9010825331618959	100014011.2787853
0.9013078037951865	100875351.86425108
0.9015331307461353	101736907.78486276
0.9017585140288219	102534672.6060191
0.9019839536573292	103327123.82362711
0.9022094496457435	104119773.15403897
0.9024350020081551	104912620.64678432
0.9026606107586572	105705666.35140261
0.902886275911347	106103709.43422857
0.9031119974803249	106311337.69358785
0.9033377754796951	106519017.86001198
0.903563609923565	106726749.9464776
0.903789500826046	106934533.965965
0.9040154482012526	106866985.89740713
0.904241452063303	106442684.97079495
0.9044675124263188	106018277.9689512
0.9046936293044254	105593764.86535706
0.9049198027117517	105169145.6334868
0.9051460326624297	104788781.33346835
0.9053723191705955	104597221.76935571
0.9055986622503881	104405614.31535225
0.9058250619159507	104213958.95948525
0.9060515181814298	104022255.68977918
0.9062780310609752	103830504.49425581
0.9065046005687405	104464626.83175215
0.906731226718883	105144983.4168389
0.9069579095255627	105825510.09107102
0.907184649002944	106506206.89697176
0.907411445165195	107187073.87707466
0.9076382980264862	107716167.96026099
0.907865207600993	108182292.62327732
0.9080921739028933	108648533.81745929
0.9083191969463691	109114891.57193972
0.9085462767456058	109581365.915859
0.9087734133147922	109752522.85041735
0.9090006066681211	109582492.60995671
0.909227856819788	109412419.86193618
0.9094551637839932	109242304.59572843
0.9096825275749393	109072146.80070417
0.9099099482068329	108997004.29058929
0.9101374256938848	109259680.15088181
0.9103649600503083	109522421.68013927
0.9105925512903209	109785228.89477901
0.9108201994281437	110048101.81122267
0.9110479044780008	110311040.44589515
0.9112756664541204	111009489.3595949
0.911503485370734	111718080.13437665
0.9117313612420768	112426848.05685209
0.9119592940823873	113135793.17130792
0.912187283905908	113844915.5220426
0.9124153307268845	113993685.02631296
0.9126434345595664	113939052.05070513
0.9128715954182063	113884405.41685346
0.9130998133170609	113829745.1213433
0.9133280882703902	113775071.16075927
0.913556420292458	113743341.72140345
0.9137848093975312	113735281.46973115
0.9140132555998806	113727219.20299594
0.9142417589137806	113719154.92069404
0.9144703193535092	113711088.62232156
0.9146989369333476	113724206.66232076
0.9149276116675811	113801226.68908079
0.9151563435704979	113878265.97084741
0.9153851326563907	113955324.51243454
