#wavelength	surface flux
0.7	325083.26043241785
0.7001166666666666	325573.9653756972
0.7002333527777778	325900.21190735546
0.700350058336574	326226.5128134356
0.7004667833462966	326552.8681029996
0.7005835278101878	326879.27778511273
0.7007002917314895	327205.7418688391
0.7008170751134447	327532.26036324596
0.7009338779592968	327858.83327740175
0.7010507002722901	328171.86068374995
0.7011675420556689	328468.39004262065
0.701284403312678	328764.96882305073
0.7014012840465635	329061.59703327797
0.7015181842605713	329358.27468154015
0.701635103957948	329655.00177607685
0.701752043141941	329951.7783251293
0.701869001815798	330248.6043369403
0.7019859799827672	330670.57197763753
0.7021029776460976	331179.6670445066
0.7022199948090387	331688.84696055413
0.7023370314748403	332198.11173992074
0.7024540876467528	332707.4613967505
0.702571163328027	333216.89594518894
0.7026882585219152	333726.41539938684
0.7028053732316688	334236.019773493
0.7029225074605406	334838.2334227469
0.7030396612117841	335476.27533231094
0.7031568344886527	336114.4235821934
0.7032740272944008	336752.678190117
0.7033912396322832	337391.039173809
0.7035084715055552	338029.5065509976
0.7036257229174727	338668.08033941605
0.7037429938712924	339306.76055679977
0.7038602843702709	339569.0424636125
0.7039775944176659	339767.5101220428
0.7040949240167356	339966.01085841615
0.7042122731707383	340164.54467824555
0.7043296418829335	340363.11158704496
0.7044470301565806	340561.7115903292
0.70456443799494	340760.34469361376
0.7046818654012724	340959.0109024157
0.7047993123788394	341444.81711237424
0.7049167789309024	341931.0337579309
0.7050342650607243	342417.3314395959
0.7051517707715678	342903.71017087426
0.7052692960666963	343390.1699652743
0.705386840949374	343876.71083630645
0.7055044054228656	344363.33279748465
0.7056219894904361	344803.02672642225
0.7057395931553511	344944.05588338216
0.705857216420877	345085.1085452017
0.7059748592902804	345226.1847157981
0.7060925217668288	345367.2843990898
0.70621020385379	345508.40759899537
0.7063279055544321	345649.55431943404
0.7064456268720246	345790.7245643263
0.7065633678098366	345961.9102242963
0.7066811283711383	346215.72262116714
0.7067989085592001	346469.5773201042
0.7069167083772933	346723.47432815743
0.7070345278286895	346977.41365237895
0.707152366916661	347231.3952998212
0.7072702256444803	347485.41927753773
0.7073881040154211	347739.4855925842
0.7075060020327569	348024.6202148494
0.7076239196997625	348354.9869387638
0.7077418570197124	348685.4087237986
0.7078598139958823	349015.8855791308
0.7079777906315483	349346.41751393926
0.7080957869299869	349677.00453740323
0.7082138028944751	350007.64665870427
0.7083318385282908	350338.3438870258
0.7084498938347124	350424.5683730246
0.708567968817018	350303.49151483853
0.7086860634784875	350182.3944771761
0.7088041778224007	350061.27725667384
0.7089223118520377	349940.1398499684
0.7090404655706796	349818.9822536952
0.709158638981608	349697.8044644891
0.709276832088105	349576.6064789849
0.7093950448934531	349668.02872649505
0.7095132774009353	349860.8767273602
0.7096315296138355	350053.7568695589
0.7097498015354378	350246.6691584479
0.7098680931690269	350439.6135993848
0.7099864045178884	350632.59019772883
0.7101047355853081	350825.5989588392
0.7102230863745722	351018.6398880763
0.7103414568889679	351184.161607741
0.7104598471317828	351343.450591017
0.7105782571063047	351502.7661224568
0.7106966868158224	351662.10820648517
0.710815136263625	351821.4768475275
0.7109336054530023	351980.8720500101
0.7110520943872445	352140.29381835967
0.7111706030696424	352299.74215700413
0.7112891315034873	352165.1693972599
0.7114076796920712	352016.5443473914
0.7115262476386865	351867.8945266813
0.7116448353466263	351719.2199310012
0.711763442819184	351570.5205562217
0.711882070059654	351421.79639821296
0.7120007170713306	351273.0474528447
0.7121193838575091	351123.7744172329
0.7122380704214853	350969.26894459844
0.7123567767665555	350814.7377210521
0.7124755028960166	350660.1807423017
0.7125942488131658	350505.5980040549
0.7127130145213015	350350.9895020181
0.7128318000237216	350196.35523189796
0.7129506053237256	350041.69518939935
0.7130694304246129	349879.1094466455
0.7131882753296837	349688.8756904331
0.7133071400422386	349498.6102285946
0.7134260245655789	349308.31305584597
0.7135449289030065	349117.9841669018
0.7136638530578235	348927.6235564762
0.7137827970333332	348737.23121928197
0.7139017608328388	348546.8071500316
0.7140207444596443	348327.27620822407
0.7141397479170543	348055.8415223655
0.7142587712083737	347784.3615973931
0.7143778143369084	347512.8364257663
0.7144968773059646	347241.2659999441
0.7146159601188489	346969.6503123844
0.7147350627788687	346697.98935554345
0.7148541852893318	346426.2831218764
0.7149733276535467	346009.7444425362
0.7150924898748222	345447.13620280806
0.715211671956468	344884.43419503985
0.7153308739017941	344321.6384036032
0.715450095714111	343758.7488128683
0.71556933739673	343195.7654072015
0.7156885989529628	342632.68817096716
0.7158078803861218	342069.5170885259
0.7159271816995193	341141.37187062186
0.7160465028964692	339998.91000555234
0.7161658439802853	338856.257730172
0.7162852049542819	337713.415012746
0.7164045858217744	336570.3818215331
0.716523986586078	335427.1581247887
0.7166434072505089	334283.7438907622
0.716762847818384	333140.1390876962
0.7168823082930204	332272.91352649714
0.7170017886777359	331486.90909844736
0.7171212889758488	330700.77366966003
0.7172408091906781	329914.50721830106
0.7173603493255433	329128.1097225333
0.7174799093837642	328341.58116051665
0.7175994893686615	327554.921510406
0.7177190892835562	326768.13075035403
0.7178387091317702	326695.3587615083
0.7179583489166254	326694.26306254114
0.7180780086414448	326693.16718095745
0.7181976883095517	326692.07111672685
0.7183173879242699	326690.9748698189
0.718437107488924	326689.8784402031
0.7185568470068389	326688.78182784904
0.7186766064813399	326668.38981777505
0.7187963859157535	326165.5715121872
0.7189161853134061	325662.6694035484
0.719036004677625	325159.68347789143
0.7191558440117378	324656.61372124724
0.7192757033190732	324153.46011964284
0.7193955826029597	323650.22265910544
0.7195154818667269	323146.90132565756
0.7196354011137046	322631.0372837573
0.7197553403472235	322057.7246230126
0.7198752995706147	321484.316410158
0.7199952787872098	320910.8126292675
0.720115278000341	320337.2132644136
0.7202352972133411	319763.5182996654
0.7203553364295432	319189.7277190907
0.7204753956522815	318615.8415067517
0.7205954748848902	318205.1607637913
0.7207155741307044	318154.4295041306
0.7208356933930594	318103.6897892601
0.7209558326752915	318052.94161777047
0.7210759919807375	318002.1849882521
0.7211961713127342	317951.41989929567
0.7213163706746197	317900.6463494909
0.7214365900697322	317849.8643374279
0.7215568295014103	317485.1911385095
0.721677088972994	316745.94219434727
0.7217973684878227	316006.5700420289
0.7219176680492374	315267.0746610176
0.7220379876605789	314527.4560307766
0.722158327325189	313787.71413076366
0.7222786870464099	313047.8489404344
0.7223990668275843	312307.86043923977
0.7225194666720555	311358.04436598
0.7226398865831676	310259.4473447695
0.7227603265642646	309160.66722405807
0.722880786618692	308061.7039733242
0.7230012667497951	306962.55756204925
0.7231217669609201	305863.22795970563
0.7232422872554135	304763.7151357626
0.7233628276366229	303664.0190596803
0.7234833881078956	302979.53634401405
0.7236039686725803	302452.64962237765
0.7237245693340255	301925.67508628854
0.7238451900955812	301398.61272110906
0.7239658309605971	300871.4625122027
0.7240864919324239	300344.2244449274
0.7242071730144127	299816.89850464097
0.724327874209915	299289.48467669886
0.7244485955222832	297899.74010384385
0.7245693369548704	296367.19933752023
0.7246900985110294	294834.40314773784
0.7248108801941148	293301.3514919198
0.7249316820074803	291768.04432749754
0.7250525039544815	290234.48161187867
0.7251733460384739	288700.66330247367
0.7252942082628137	287168.0172855457
0.7254150906308574	286462.5030364536
0.7255359931459625	285756.8712016533
0.7256569158114868	285051.121761547
0.7257778586307888	284345.25469653367
0.7258988216072273	283639.2699870097
0.7260198047441617	282933.1676133682
0.7261408080449525	282226.9475559966
0.72626183151296	281516.80093401286
0.7263828751515454	280781.2238857641
0.7265039389640706	280045.5242413407
0.726625022953898	279309.7019803095
0.7267461271243904	278573.7570822344
0.7268672514789111	277837.6895266768
0.7269883960208241	277101.4992931939
0.7271095607534942	276365.1863613383
0.7272307456802866	275584.80737292237
0.7273519508045666	274685.5967593742
0.7274731761297006	273786.23627739085
0.7275944216590555	272886.7259019939
0.7277156873959987	271987.06560820073
0.7278369733438982	271087.25537102384
0.727958279506122	270187.29516547645
0.7280796058860397	269287.1849665604
0.7282009524870207	268150.67518588953
0.7283223193124353	266664.5365739478
0.7284437063656539	265178.1502722404
0.7285651136500483	263691.51623948035
0.7286865411689898	262204.6344343845
0.7288079889258514	260717.50481565093
0.7289294569240056	259230.12734198428
0.7290509451668262	257742.50197207034
0.7291724536576875	256373.38327325246
0.7292939823999636	255102.43736492548
0.7294155313970303	253831.2796322779
0.7295371006522632	252559.91004000854
0.7296586901690385	251288.32855280815
0.7297802999507332	250016.53513536043
0.7299019300007252	248744.52975233988
0.7300235803223919	247472.31236842554
0.7301452509191123	246441.47768035703
0.7302669417942654	245521.9839339447
0.7303886529512311	244602.33693857433
0.7305103843933897	243682.5366687045
0.7306321361241218	242762.5830987904
0.7307539081468093	241842.47620327972
0.7308757004648336	240922.2159566217
0.7309975130815778	240001.80233325483
0.7311193460004248	239111.42257453376
0.7312411992247582	238227.728431046
0.7313630727579622	237343.8870052012
0.7314849666034219	236459.8982724512
0.7316068807645224	235575.76220824628
0.7317288152446498	234691.47878803022
0.7318507700471907	233807.04798724368
0.7319727451755319	232922.46978132403
0.732094740633061	231658.37102037732
0.7322167564231665	230376.98207805245
0.7323387925492371	229095.3795709038
0.7324608490146619	227813.56346333766
0.732582925822831	226531.53371975326
0.7327050229771347	225249.29030454642
0.7328271404809642	223966.8331821024
0.7329492783377112	222686.83639741802
0.7330714365507675	221432.91532237662
0.7331936151235259	220178.78526048965
0.7333158140593796	218924.44617692716
0.7334380333617229	217669.8980368488
0.7335602730339499	216415.14080541322
0.7336825330794556	215160.17444777212
0.7338048135016354	213904.99892907386
0.7339271143038857	212708.83033825352
0.734049435489603	211710.87700547607
0.7341717770621846	210712.75734714296
0.7342941390250283	209714.47133553398
0.7344165213815324	208716.01894292346
0.734538924135096	207717.40014157936
0.7346613472891185	206718.6149037697
0.734783790847	205719.66320175334
0.7349062548121412	204552.96785053093
0.7350287391879431	203089.8785806634
0.7351512439778078	201626.54546258124
0.7352737691851374	200162.96845564782
0.735396314813335	198699.14751921193
0.7355188808658037	197235.0826126224
0.7356414673459482	195770.77369521212
0.7357640742571725	194306.22072631662
0.7358867016028818	192917.97914281857
0.7360093493864824	191605.11162360653
0.7361320176113801	190292.0252931431
0.736254706280982	188978.72011495786
0.7363774153986956	187665.19605257455
0.7365001449679286	186351.4530695169
0.7366228949920899	185037.4911292943
0.7367456654745885	183723.31019541505
0.7368684564188344	182429.80330752404
0.7369912678282374	181147.8891614801
0.7371140997062088	179865.76136307797
0.7372369520561599	178583.41987670824
0.7373598248815024	177300.86466676032
0.7374827181856494	176018.0956976086
0.7376056319720137	174735.11293362858
0.7377285662440091	173451.9163391877
0.7378515210050496	172002.58721198383
0.7379744962585505	170503.09665061487
0.738097492007927	169003.3561741527
0.7382205082565949	167503.36574094536
0.738343545007971	166003.1253093328
0.7384666022654723	164502.63483764682
0.7385896800325165	163001.8942842178
0.7387127783125219	161500.9036073613
0.7388358971089073	160464.26420301764
0.7389590364250921	159474.05270280488
0.7390821962644963	158483.67616734133
0.7392053766305403	157493.1345691233
0.7393285775266454	156502.4278806382
0.7394517989562333	155511.55607437072
0.7395750409227259	154520.5191228038
0.7396983034295463	153518.95379176096
0.739821586480118	152286.68428884554
0.7399448900778645	151054.20940768206
0.7400682142262109	149821.52911403467
0.740191558928582	148588.64337367297
0.7403149241884034	147355.55215235552
0.7404383100091014	146122.25541583422
0.7405617163941028	144888.7531298576
0.7406851433468352	143631.058015503
0.7408085908707264	142263.41740967968
0.7409320589692048	140895.54886375603
0.7410555476456997	139527.4523397403
0.7411790569036406	138159.1277996382
0.7413025867464579	136790.57520544573
0.7414261371775823	135421.79451915383
0.7415497082004452	134052.7857027486
0.7416732998184786	132692.00818279618
0.741796912035115	131349.15108367955
0.7419205448537874	130006.07017504674
0.7420441982779297	128662.76541959586
0.742167872310976	127319.23678001782
0.7422915669563612	125975.4842189999
0.7424152822175206	124631.50769922217
0.7425390180978901	123287.30718335863
0.7426627746009065	122039.33193434766
0.7427865517300065	120908.7272930616
0.7429103494886282	119777.93421766748
0.7430341678802096	118646.95267676168
0.7431580069081896	117515.78263893245
0.7432818665760077	116384.42407276199
0.7434057468871037	115252.87694683144
0.7435296478449182	114121.14122971389
0.7436535694528923	112944.8193692308
0.7437775117144678	111737.90999034401
0.7439014746330868	110530.79945989588
0.7440254582121922	109323.48774435831
0.7441494624552276	108115.97481020099
0.7442734873656368	106908.26062388824
0.7443975329468645	105700.34515187681
0.7445215992023557	104492.22836062018
0.7446456861355559	103321.7096345743
0.7447697937499119	102164.92012401666
0.7448939220488703	101007.93781520751
0.7450180710358784	99850.76267601456
0.7451422407143843	98693.3946742983
0.7452664310878367	97535.833777914
0.7453906421596846	96378.07995471486
0.7455148739333779	95220.13317254483
0.7456391264123667	94097.39983611982
0.7457633996001021	92980.14067094344
0.7458876935000356	91862.6952959042
0.7460120081156189	90745.06367997125
0.7461363434503048	89627.24579210179
0.7462606995075466	88509.24160125
0.7463850762907978	87391.0510763681
0.7465094738035127	86272.92461742813
0.7466338920491467	85220.1231680704
0.746758331031155	84167.1462518034
0.7468827907529935	83113.99383938494
0.7470072712181189	82060.66590156438
0.7471317724299886	81007.16240908732
0.7472562943920602	79953.48333269558
0.7473808371077922	78899.62864312352
0.7475054005806435	77848.9527247826
0.7476299848140736	76818.76356653417
0.7477545898115426	75788.40271009244
0.7478792155765113	74757.87012684108
0.7480038621124406	73727.16578815998
0.7481285294227926	72696.28966542268
0.7482532175110298	71665.24172999716
0.7483779263806148	70634.02195325051
0.7485026560350116	69621.29416194647
0.7486274064776842	68658.9106083636
0.748752177712097	67696.36665752355
0.7488769697417158	66733.66228268965
0.749001782570006	65770.79745712777
0.7491266162004343	64807.77215409524
0.7492514706364677	63844.586346845106
0.7493763458815739	62881.24000862613
0.7495012419392209	61936.247445701825
0.7496261588128773	61017.71394407649
0.7497510965060128	60099.02735353357
0.7498760550220971	59180.18764855924
0.7500010343646007	58261.19480363393
0.7501260345369949	57342.04879323402
0.750251055542751	56422.74959183341
0.7503760973853414	55503.297173898674
0.7505011600682389	54620.54150735052
0.750626243594917	53768.40761677815
0.7507513479688495	52916.13170389199
0.7508764731935109	52063.71374502004
0.7510016192723765	51211.15371648807
0.7511267862089218	50358.45159461881
0.7512519740066232	49505.60735572893
0.7513771826689577	48652.62097613208
0.7515024121994025	47859.21240995368
0.7516276626014359	47093.516418749445
0.751752933878536	46327.69281154802
0.7518782260341824	45561.74156707847
0.7520035390718548	44795.66266406783
0.7521288729950334	44029.45608124042
0.7522542278071992	43263.12179731582
0.7523796035118337	42496.659791010185
0.7525050001124189	41766.808274066316
0.7526304176124378	41044.824859256616
0.7527558560153731	40322.72111387871
0.752881315324709	39600.497017875874
0.7530067955439299	38878.15255119011
0.7531322966765205	38155.68769376087
0.7532578187259665	37433.10242552183
0.7533833616957542	36710.396726404775
0.75350892558937	36039.71620173836
0.7536345104103016	35371.375933323725
0.7537601161620366	34702.924274864694
0.7538857428480638	34034.36120779528
0.7540113904718717	33365.68671354888
0.7541370590369503	32696.900773553585
0.7542627485467898	32028.00336923454
0.7543884590048808	31366.75632024437
0.7545141904147151	30782.80099374628
0.7546399427797842	30198.748341361385
0.7547657161035808	29614.598346867668
0.754891510389598	29030.350994041564
0.7550173256413296	28446.006266656423
0.7551431618622698	27861.56414848352
0.7552690190559135	27277.024623291054
0.7553948972257561	26704.38212390849
0.7555207963752938	26171.905033923897
0.755646716508023	25639.339197757945
0.755772657627441	25106.684600619115
0.7558986197370455	24573.941227714018
0.756024602840335	24041.109064246903
0.7561506069408084	23508.188095419217
0.7562766320419653	22975.17830642958
0.7564026781473054	22457.495777827742
0.75652874526033	21966.85518373212
0.7566548333845401	21476.1328162039
0.7567809425234375	20985.328661614596
0.7569070726805247	20494.442706333142
0.7570332238593047	20003.474936725874
0.7571593960632813	19512.425339156533
0.7572855892959586	19021.293899987573
0.7574118035608413	18568.870247946663
0.7575380388614347	18154.320365007803
0.7576642952012449	17739.701390421633
0.7577905725837782	17325.013312673625
0.7579168710125422	16910.256120245256
0.7580431904910444	16495.429801617993
0.7581695310227928	16080.534345271484
0.7582958926112967	15665.569739681729
0.7584222752600652	15282.444209261137
0.7585486789726085	14917.584888379493
0.7586751037524372	14552.664757610899
0.7588015496030628	14187.683806819796
0.7589280165279966	13822.642025870951
0.7590545045307512	13457.53940462528
0.7591810136148396	13092.375932942745
0.7593075437837755	12727.151600681056
0.7594340950410726	12397.422068609598
0.7595606673902461	12077.953582081971
0.7596872608348112	11758.43185080627
0.7598138753782836	11438.856865909042
0.75994051102418	11119.228618514031
0.7600671677760173	10799.547099744705
0.7601938456373134	10479.812300722006
0.7603205446115863	10160.024212566315
0.7604472647023548	9874.73840725915
0.7605740059131385	9592.83987492761
0.7607007682474575	9310.894359507072
0.7608275517088319	9028.901853167925
0.7609543563007835	8746.862348077095
0.7610811820268336	8464.775836402252
0.7612080288905045	8182.642310309339
0.7613348968953197	7901.561478217408
0.7614617860448022	7642.997548671668
0.7615886963424764	7384.390525137316
0.7617156277918667	7125.740400432626
0.7618425803964988	6867.047167373606
0.7619695541598982	6608.310818775811
0.7620965490855914	6349.5313474534405
0.7622235651771058	6090.708746218884
0.7623506024379685	5839.581875260993
0.7624776608717082	5622.3334503013075
0.7626047404818536	5405.0488172707865
0.7627318412719337	5187.727970135133
0.762858963245479	4970.370902858153
0.7629861064060198	4752.977609403275
0.7631132707570876	4535.548083732595
0.7632404563022137	4318.0823198078315
0.7633676630449308	4108.228193893268
0.7634948909887717	3914.618894471084
0.7636221401372697	3720.9773268325816
0.7637494104939593	3527.30348559929
0.7638767020623748	3333.597365392739
0.7640040148460518	3139.8589608326
0.7641313488485262	2946.0882665383742
0.7642587040733344	2752.2852771282132
0.7643860805240132	2567.0840364209303
0.7645134782041005	2392.1549377716897
0.7646408971171346	2217.196684272601
0.764768337266654	2042.2092710646602
0.7648957986561985	1867.192693287795
0.7650232812893079	1692.1469460813232
0.7651507851695227	1517.072024583649
