#wavelength	surface flux
0.8	48944286.81472169
0.8002000000000001	49500497.09509111
0.8004000500000003	50236460.7406826
0.8006001500125003	50974422.65859104
0.8008003000500035	51712569.06697901
0.8010005001250161	52450900.01196943
0.8012007502500472	53189415.539695024
0.8014010504376099	54331077.871298775
0.8016014007002193	55608005.636162125
0.8018018010503944	56885252.63296668
0.8020022515006572	58162818.94152101
0.8022027520635323	59440704.64165138
0.8024033027515483	60611542.29728964
0.8026039035772362	61677456.68116969
0.8028045545531306	62743637.54364577
0.8030052556917691	63810084.95133797
0.803206007005692	64876798.97088116
0.8034068085074435	65773778.22089389
0.8036076602095705	66194442.72028811
0.8038085621246229	66615212.38580684
0.8040095142651542	67036087.24374222
0.8042105166437206	67457067.32039194
0.8044115692728815	67890100.3497222
0.8046126721651998	68837133.59419307
0.8048138253332411	69784403.5969743
0.8050150287895745	70731910.41725709
0.805216282546772	71679654.11424471
0.8054175866174087	72627634.74715607
0.8056189410140631	73924470.55809924
0.8058203457493168	75320312.13459873
0.8060218008357541	76716502.67149055
0.8062233062859632	78113042.2560173
0.8064248621125346	79509930.9754392
0.806626468328063	80953337.1087722
0.8068281249451449	82436756.98517212
0.8070298319763813	83920547.71654294
0.8072315894343755	85404709.39559552
0.8074333973317341	86889242.1150684
0.8076352556810671	88429887.22889182
0.8078371644949874	90105096.02739443
0.8080391237861113	91780723.62809707
0.8082411335670578	93456770.13569885
0.8084431938504498	95133235.6549293
0.8086453046489125	96840993.96810466
0.8088474659750746	99123991.78430127
0.8090496778415686	101407560.34995496
0.809251940261029	103691699.80774844
0.8094542532460944	105976410.30040829
0.8096566168094059	108261691.97068872
0.8098590309636085	110628246.14779101
0.8100614957213493	113014280.73506075
0.8102640110952797	115400911.83097763
0.8104665770980536	117788139.58466941
0.8106691937423283	120175964.14530054
0.8108718610407639	122301433.18918332
0.8110745790060241	124226367.64572313
0.8112773476507757	126151783.33587876
0.8114801669876885	128077680.37995642
0.8116830370294355	130004058.89829397
0.8118859577886929	131949897.26583351
0.8120889292781401	133935640.75758839
0.8122919515104597	135921880.68521607
0.8124950244983374	137908617.17282572
0.8126981482544621	139895850.34455702
0.8129013227915257	141943891.45710564
0.8131045481222237	144683016.2679867
0.8133078242592543	147422825.86007082
0.8135111512153191	150163320.4045522
0.813714529003123	152904500.07267
0.8139179576353739	155646365.03570533
0.8141214371247829	158677123.15346974
0.8143249674840641	161764527.2791606
0.814528548725935	164852703.25588095
0.8147321808631167	167941651.2765997
0.8149358639083326	171031371.53432268
0.8151395978743097	173582970.21778145
0.8153433827737784	175771107.40154764
0.8155472186194719	177959791.619609
0.8157511054241268	180149023.00872445
0.815955043200483	182338801.7056887
0.8161590319612831	184276315.09642372
0.8163630717192736	185751064.3160829
0.8165671624872033	187226182.22304538
0.8167713042778252	188701668.90948606
0.8169754971038948	190177524.46759906
0.8171797409781707	190561615.23961568
0.8173840359134155	182226960.06419915
0.8175883819223938	173890221.22499838
0.8177927790178745	165551398.20108303
0.8179972272126291	157210490.47140953
0.8182017265194322	148867497.51481202
0.8184062769510622	147308336.92120728
0.8186108785203001	146793038.8981436
0.8188155312399301	146277612.0505748
0.8190202351227402	145762056.34629357
0.819224990181521	145246371.7530866
0.8194297964290664	150864172.33476096
0.8196346538781738	160180402.3831164
0.8198395625416434	169498961.4889802
0.8200445224322789	178819850.23462442
0.820249533562887	188143069.2024523
0.8204545959462778	194053318.68893144
0.8206597095952644	194468212.12831277
0.8208648745226633	194883209.29105425
0.8210700907412941	195298310.20308638
0.8212753582639793	195713514.89034608
0.8214806771035456	196274165.65870196
0.8216860472728215	197730442.1111597
0.8218914687846397	199187082.63273063
0.822096941651836	200644087.31443274
0.822302465887249	202101456.2473044
0.8225080415037209	203559189.52241006
0.8227136685140968	206092693.3339596
0.8229193469312254	208748911.5900467
0.8231250767679583	211405793.90069875
0.8233308580371503	214063340.431927
0.8235366907516598	216721551.34978998
0.8237425749243477	220170467.790112
0.8239485105680789	224038982.0619628
0.824154497695721	227908463.46237916
0.824360536320145	231778912.2331463
0.8245666264542252	235650328.61610597
0.8247727681108388	237987024.1612927
0.8249789613028664	238124908.63740438
0.8251852060431922	238262827.5846352
0.825391502344703	238400781.01160276
0.8255978502202894	238538768.9269272
0.8258042496828445	238179688.6626879
0.8260107007452654	235406304.47182915
0.8262172034204517	232632226.9349255
0.8264237577213068	229857455.87863693
0.8266303636607373	227081991.12958303
0.8268370212516525	224305832.51434326
0.8270437305069654	224125973.21794775
0.8272504914395923	224149007.10945374
0.8274573040624523	224172046.75943258
0.8276641683884679	224195092.16932392
0.8278710844305652	224218143.34056777
0.8280780522016729	224343925.62674272
0.8282850717147234	224516694.9267212
0.8284921429826521	224689507.41902444
0.8286992660183978	224862363.11445093
0.8289064408349024	225035262.02380115
0.8291136674451112	225093803.221382
0.8293209458619727	225008105.2058964
0.8295282760984382	224922385.76590708
0.829735658167463	224836644.89605764
0.8299430920820048	224750882.59099087
0.8301505778550254	224815482.8190924
0.8303581154994891	225480325.67457908
0.8305657050283641	226145334.74078032
0.8307733464546212	226810510.05924758
0.8309810397912352	227475851.67154557
0.8311887850511829	228141359.6192453
0.8313965822474458	229769292.68999594
0.8316044313930077	231442296.2625252
0.8318123325008561	233115718.08594918
0.8320202855839813	234789558.26482818
0.8322282906553774	236463816.90375206
0.8324363477280413	237976994.25762436
0.8326444568149735	239425530.63609132
0.8328526179291771	240874429.1486512
0.8330608310836596	242323689.88584143
0.8332690962914304	243773312.93821403
0.8334774135655034	244526809.33098814
0.833685782918895	244502492.93965942
0.8338942043646247	244478170.46923292
0.834102677915716	244453841.91818878
0.834311203585195	244429507.2850069
0.8345197813860912	244473674.7734723
0.8347284113314379	244748458.32948458
0.8349370934342709	245023310.5813857
0.8351458277076294	245298231.54634947
0.8353546141645565	245573221.24155495
0.8355634528180977	245848279.68418407
0.8357723436813022	246775404.61448348
0.8359812867672226	247710811.83659783
0.8361902820889144	248646452.91051725
0.8363993296594368	249582327.8947054
0.8366084294918518	250518436.84763998
0.8368175815992247	250794513.0667106
0.8370267859946247	250843255.6506123
0.8372360426911234	250892010.42015994
0.8374453517017962	250940777.37839994
0.8376547130397217	250989556.52837953
0.8378641267179816	251648140.58231595
0.8380735927496613	252911962.1659021
0.8382831111478488	254176099.70488343
0.8384926819256358	255440553.27824882
0.8387023050961173	256705322.96500862
0.8389119806723914	257525271.85659522
0.8391217086675596	257092664.7992335
0.8393314890947265	256659949.59010777
0.8395413219670003	256227126.2021797
0.8397512072974922	255794194.60840437
0.8399611450993165	255385855.92516387
0.8401711353855914	256204065.11242136
0.8403811781694378	257022478.85197544
0.8405912734639802	257841097.1949646
0.8408014212823464	258659920.1925399
0.8410116216376671	259478947.8958645
0.8412218745430766	258568122.87039015
0.8414321800117124	257153690.17092958
0.8416425380567154	255738903.8632935
0.8418529486912297	254323763.85908017
0.8420634119284025	252908270.06986696
0.8422739277813847	253420377.40994903
0.8424844962633302	255631215.94613066
0.842695117387396	257842607.1919435
0.8429057911667428	260054551.28556788
0.8431165176145345	262267048.36521673
0.8433272967439382	261799504.64733705
0.8435381285681244	254793132.1391617
0.8437490131002665	247785008.03786087
0.8439599503535415	240775131.9055391
0.84417094034113	233763503.30417916
0.8443819830762154	226982652.29744327
0.8445930785719846	224884452.9145499
0.8448042268416277	222785728.98181197
0.8450154278983382	220686480.36809114
0.8452266817553128	218586706.94221702
0.8454379884257517	216486408.5729862
0.8456493479228583	216644965.9492954
0.845860760259839	217347649.02068624
0.846072225449904	218050507.76284492
0.8462837435062666	218753542.21968928
0.8464953144421433	219456752.43514827
0.8467069382707537	220383671.5907788
0.8469186150053215	221485059.69187206
0.847130344659073	222586723.1399909
0.8473421272452377	223688662.00397068
0.8475539627770492	224790876.3526676
0.8477658512677435	225914793.121204
0.8479777927305605	227084487.99788615
0.8481897871787432	228254475.29828718
0.848401834625538	229424755.09551397
0.8486139350841944	230595327.46268937
0.8488260885679657	231720728.47066262
0.8490382950901076	232292220.7806995
0.8492505546638802	232863855.96381417
0.8494628673025462	233435634.05572444
0.8496752330193721	234007555.0921585
0.8498876518276269	234579619.1088509
0.8501001237405839	233993112.90834543
0.8503126487715191	233175160.56964922
0.850525226933712	232357003.74286878
0.8507378582404455	231538642.37688166
0.8509505427050057	230720076.42055255
0.8511632803406821	228951308.0863962
0.8513760711607672	226531523.07129243
0.8515889151785576	224111133.10993114
0.8518018124073523	221690138.05108154
0.8520147628604541	219268537.74346867
0.8522277665511693	217948879.997927
0.8524408234928071	218667921.52125186
0.8526539336986805	219387142.80495775
0.8528670971821053	220106543.8939846
0.8530803139564007	220826124.83328286
0.8532935840348901	221430193.1018255
0.8535069074308987	221057329.54862413
0.8537202841577566	220684372.77953416
0.8539337142287962	220311322.77125186
0.8541471976573534	219938179.50046772
0.8543607344567677	219564942.9438658
0.8545743246403821	214269429.21979773
0.8547879682215422	208190892.5628481
0.8550016652135977	202110836.271735
0.8552154156299011	196029259.9665488
0.8554292194838088	189946163.2672819
0.8556430767886797	186203794.33345643
0.855856987557877	183882641.25819978
0.8560709518047664	181560907.89467576
0.8562849695427177	179238594.09781003
0.8564990407851035	176915699.7224944
0.8567131655452999	174123587.08306614
0.8569273438366862	170562898.16556257
0.8571415756726455	167001319.07582894
0.8573558610665638	163438849.59132156
0.8575702000318304	159875489.48944697
0.8577845925818384	157673082.6492974
0.857999038729984	163976705.1746043
0.8582135384896665	170281903.6055411
0.858428091874289	176588678.336086
0.8586426988972576	182897029.76031184
0.8588573595719821	189206958.2723959
0.8590720739118751	186985970.69863722
0.8592868419303532	183758421.39131913
0.8595016636408359	180530065.1966742
0.8597165390567462	177300901.91298166
0.8599314681915105	174070931.3384674
0.8601464510585584	169684269.21411687
0.860361487671323	164682975.23550993
0.8605765780432408	159680430.93340978
0.8607917221877518	154676635.99523
0.8610069201182988	149671590.10831702
0.8612221718483286	144900961.7345521
0.8614374773912907	140468889.13539657
0.8616528367606385	136035708.51809248
0.8618682499698288	131601419.60563126
0.8620837170323213	127166022.12094265
0.8622992379615795	123270868.5308512
0.8625148127710699	122053688.47996719
0.8627304414742627	120836204.13407035
0.8629461240846313	119618415.41708682
0.8631618606156526	118400322.25292397
0.8633776510808066	117181924.5654703
0.8635934954935769	119188778.35085657
0.8638093938674504	121460538.51478902
0.8640253462159173	123732866.61876237
0.8642413525524714	126005762.80476166
0.8644574128906095	128279227.21480699
0.8646735272438323	126826068.65649071
0.8648896956256433	123639299.56244051
0.8651059180495498	120451733.77611662
0.8653221945290621	117263371.0983492
0.8655385250776946	114074211.32990788
0.8657549097089641	113881409.0728163
0.8659713484363913	117525575.61147624
0.8661878412735006	121170653.19177255
0.866404388233819	124816642.04146342
0.8666209893308775	128463542.38836505
0.8668376445782103	131415360.75023791
0.8670543539893549	131527213.42114475
0.8672711175778525	131639094.0552194
0.8674879353572469	131751002.65945244
0.8677048073410862	131862939.24083658
0.8679217335429217	131974903.80636613
0.8681387139763074	129493987.6335672
0.8683557486548015	126883642.13206217
0.8685728375919655	124272644.04417856
0.8687899808013633	121660993.20677866
0.8690071782965637	119048689.45666602
0.869224430091138	118001160.98981862
0.8694417361986609	117590341.46128744
0.8696590966327107	117179419.22787423
0.869876511406869	116768394.26390265
0.8700939805347206	116357266.54369028
0.8703115040298544	116663847.35289952
0.870529081905862	117791170.79126549
0.8707467141763385	118918776.06049065
0.8709644008548827	120046663.23103307
0.8711821419550964	121174832.37336744
0.8713999374905854	122309021.33377899
0.871617787474958	123463296.89646426
0.8718356919218269	124617861.02804123
0.8720536508448075	125772713.80065118
0.8722716642575187	126927855.2864536
0.8724897321735832	128083285.55762799
0.8727078546066265	130717020.03983358
0.8729260315702784	133373898.41765463
0.873144263078171	136031441.0150673
0.8733625491439405	138689647.99812958
0.8735808897812266	141348519.53293866
0.8737992850036719	141933845.0775608
0.874017734824923	141784665.62654373
0.8742362392586293	141635448.88066396
0.874454798318444	141486194.8305977
0.8746734120180236	141336903.46701896
0.8748920803710283	141074345.5276109
0.875110803391121	140697937.33870992
0.8753295810919689	140321435.04776153
0.875548413487242	139944838.6312404
0.8757673005906139	139568148.06561512
0.8759862424157616	140301663.81335342
0.8762052389763657	144248069.79437676
0.8764242902861098	148195462.3768926
0.8766433963586814	152143841.80755517
0.8768625572077712	156093208.3330766
0.8770817728470732	160012265.8364636
0.8773010432902849	161488761.98951524
0.8775203685511077	162965627.26660722
0.8777397486432454	164442861.76001668
0.8779591835804065	165920465.56205127
0.8781786733763015	167398438.7650344
0.8783982180446457	166608562.54303417
0.878617817599157	165143736.12004843
0.8788374720535569	163678543.49045765
0.8790571814215703	162212984.5627098
0.8792769457169257	160747059.24523002
0.879496764953355	160330294.02322352
0.8797166391445934	160857017.93660194
0.8799365683043796	161383873.53095874
0.8801565524464557	161910860.83921412
0.8803765915845676	162437979.89429703
0.8805966857324639	162834163.20282003
0.880816834903897	162901243.22348064
0.881037039112623	162968340.01414642
0.8812572983724012	163035453.57900986
0.8814776126969944	163102583.92226455
0.8816979821001687	163289882.6426785
0.8819184065956938	166305616.94783795
0.8821388861973429	169322105.1865768
0.8823594209188923	172339347.54737243
0.882580010774122	175357344.21875688
0.8828006557768155	178376095.38931084
0.8830213559407598	183137760.1900499
0.8832421112797452	188338786.06516466
0.8834629218075651	193541112.1967451
0.8836837875380171	198744738.90986
0.8839047084849018	203949666.52965397
0.884125684662023	204783801.41449928
0.8843467160831886	202114469.89929155
0.8845678027622095	199444471.051205
0.8847889447129001	196773804.70340592
0.8850101419490785	194102470.6890204
0.8852313944845657	192752459.59468284
0.885452702333187	194295786.61404344
0.8856740655087704	195839499.46515867
0.8858954840251476	197383598.24448627
0.8861169578961539	198928083.04850796
0.886338487135628	200093597.00625235
0.886560071757412	196211144.84395322
0.8867817117753515	192327722.0686136
0.8870034072032955	188443328.43757838
0.8872251580550963	184557963.70814
0.8874469643446101	180671627.63751683
0.8876688260856963	180404635.1192977
0.8878907432922178	180886846.4674789
0.8881127159780409	181369178.36849684
0.8883347441570356	181851630.8524906
0.8885568278430749	182334203.94960484
0.8887789670500358	182093575.94418195
0.8890011617917983	181339782.3986987
0.8892234120822464	180585800.40482873
0.8894457179352669	179831629.9154609
0.8896680793647509	179077270.88347015
0.8898904963845921	179317338.7776593
0.8901129690086883	181455219.27439082
0.8903354972509405	183593634.241246
0.8905580811252535	185732583.8118446
0.8907807206455347	187872068.11983293
0.8910034158256963	190073059.91687158
0.8912261666796527	192819512.0455542
0.8914489732213227	195566650.78726977
0.8916718354646282	198314476.31367347
0.8918947534234944	201062988.7964561
0.8921177271118502	203812188.40735772
0.8923407565436284	205736765.45931512
0.8925638417327644	207527193.1763232
0.8927869826931977	209318068.50026113
0.8930101794388711	211109391.54302993
0.8932334319837308	212901162.41655913
0.8934567403417267	214349555.06521136
0.8936801045268123	215584662.3223784
0.8939035245529441	216820078.35635895
0.8941270004340824	218055803.24434844
0.894350532184191	219291837.06355962
0.8945741198172371	221534704.17244208
0.8947977633471915	225447332.4565391
0.8950214627880284	229360938.897707
0.8952452181537254	233275523.74048287
0.8954690294582639	237191087.22947177
0.8956928967156286	240952919.1883942
0.8959168199398075	243711676.08565116
0.8961407991447926	246471122.67213312
0.8963648343445789	249231259.12026167
0.896588925553165	251992085.60250068
0.8968130727845534	254753602.2913606
0.8970372760527496	256645010.90284866
0.8972615353717629	258427937.94330308
0.8974858507556059	260211310.71551782
0.8977102222182949	261995129.3309251
0.8979346497738496	263779393.90098727
0.8981591334362931	265881527.9882676
0.8983836732196523	268157779.03071478
0.8986082691379572	270434599.13592106
0.8988329212052417	272711988.4461537
0.8990576294355432	274989947.1037158
0.8992823938429022	277001553.7711028
0.8995072144413631	278616785.02016133
0.8997320912449734	280232420.07703155
0.8999570242677847	281848459.04266566
0.9001820135238516	283464902.01804125
0.9004070590272328	285589092.9707119
0.9006321607919896	290373484.6066239
0.9008573188321878	295159072.3404497
0.9010825331618959	299945856.4712067
0.9013078037951865	304733837.2979971
0.9015331307461353	309523015.1199918
0.9017585140288219	312395499.4845334
0.9019839536573292	315103509.0685372
0.9022094496457435	317812195.65493494
0.9024350020081551	320521559.41298234
0.9026606107586572	323231600.5119684
0.902886275911347	325980597.4843889
0.9031119974803249	328748734.54151654
0.9033377754796951	331517563.6329085
0.903563609923565	334287084.93157214
0.903789500826046	337057298.61056226
0.9040154482012526	339066880.98906237
0.904241452063303	340090737.1851845
0.9044675124263188	341114849.34535533
0.9046936293044254	342139217.5335661
0.9049198027117517	343163841.8138244
0.9051460326624297	343853459.0926589
0.9053723191705955	343115620.2569367
0.9055986622503881	342377596.9615063
0.9058250619159507	341639389.16025203
0.9060515181814298	340900996.80704695
0.9062780310609752	340162419.85575414
0.9065046005687405	343227945.59403116
0.906731226718883	346506467.6566556
0.9069579095255627	349785809.3497914
0.907184649002944	353065970.87835073
0.907411445165195	356346952.44729555
0.9076382980264862	360308431.4042579
0.907865207600993	364553169.38947666
0.9080921739028933	368798968.55919045
0.9083191969463691	373045829.178696
0.9085462767456058	377293751.5133585
0.9087734133147922	380842687.4848158
0.9090006066681211	383583946.17593247
0.909227856819788	386325890.1817183
0.9094551637839932	389068519.67350936
0.9096825275749393	391811834.8226725
0.9099099482068329	394937183.24953574
0.9101374256938848	399418628.4593766
0.9103649600503083	403901194.0305178
0.9105925512903209	408384880.2430509
0.9108201994281437	412869687.37714183
0.9110479044780008	417355615.71301115
0.9112756664541204	424736826.22874343
0.911503485370734	432186128.875248
0.9117313612420768	439637293.8474142
0.9119592940823873	447090321.6108212
0.912187283905908	454545212.63117135
0.9124153307268845	458565609.30477536
0.9126434345595664	461339813.95884264
0.9128715954182063	464114712.1640708
0.9130998133170609	466890304.0938517
0.9133280882703902	469666589.9216148
0.913556420292458	474140668.67118907
0.9137848093975312	480366109.04315686
