#wavelength	surface flux
0.8	36777967.34063949
0.8002000000000001	37263995.77369551
0.8004000500000003	37925296.469561696
0.8006001500125003	38588531.685687415
0.8008003000500035	39251932.71061722
0.8010005001250161	39915499.58580357
0.8012007502500472	40579232.35270775
0.8014010504376099	41441417.30462824
0.8016014007002193	42370237.63927992
0.8018018010503944	43299290.17901525
0.8020022515006572	44228574.98188593
0.8022027520635323	45158092.10595653
0.8024033027515483	46057491.25841659
0.8026039035772362	46927373.0996329
0.8028045545531306	47797472.41130954
0.8030052556917691	48667789.24781453
0.803206007005692	49538323.66352787
0.8034068085074435	50345937.03549873
0.8036076602095705	50976765.33674104
0.8038085621246229	51607751.34505816
0.8040095142651542	52238895.09987774
0.8042105166437206	52870196.64063582
0.8044115692728815	53505838.23229119
0.8046126721651998	54321523.622186005
0.8048138253332411	55137412.93342763
0.8050150287895745	55953506.216997825
0.805216282546772	56769803.52388869
0.8054175866174087	57586304.90510585
0.8056189410140631	58622994.98298993
0.8058203457493168	59722214.13494577
0.8060218008357541	60821708.0916882
0.8062233062859632	61921476.92192036
0.8064248621125346	63021520.69435932
0.806626468328063	64217498.83581495
0.8068281249451449	65495935.788074106
0.8070298319763813	66774692.34957289
0.8072315894343755	68053768.6002111
0.8074333973317341	69333164.61991245
0.8076352556810671	70644894.28258505
0.8078371644949874	72034014.42546421
0.8080391237861113	73423481.84837943
0.8082411335670578	74813296.63814953
0.8084431938504498	76203458.8816185
0.8086453046489125	77605402.37637952
0.8088474659750746	79220571.56637418
0.8090496778415686	80836144.54866849
0.809251940261029	82452121.42420721
0.8094542532460944	84068502.2939662
0.8096566168094059	85685287.25894079
0.8098590309636085	87209349.22469102
0.8100614957213493	88711995.02542228
0.8102640110952797	90215016.4876039
0.8104665770980536	91718413.70515168
0.8106691937423283	93222186.7720044
0.8108718610407639	94605049.78963679
0.8110745790060241	95895517.490427
0.8112773476507757	97186307.80814354
0.8114801669876885	98477420.82343918
0.8116830370294355	99768856.61698788
0.8118859577886929	101130177.42140688
0.8120889292781401	102636322.1873708
0.8122919515104597	104142843.48952612
0.8124950244983374	105649741.42200705
0.8126981482544621	107157016.0789709
0.8129013227915257	108681663.24026296
0.8131045481222237	110401294.76257981
0.8133078242592543	112121356.19277744
0.8135111512153191	113841847.63833216
0.813714529003123	115562769.20674847
0.8139179576353739	117284121.00555718
0.8141214371247829	118853705.71111897
0.8143249674840641	120394169.1710134
0.814528548725935	121935017.74677187
0.8147321808631167	123476251.53467637
0.8149358639083326	125017870.63102737
0.8151395978743097	126049066.04249927
0.8153433827737784	126735395.20015492
0.8155472186194719	127421895.94009973
0.8157511054241268	128108568.30522938
0.815955043200483	128795412.3384508
0.8161590319612831	128468882.53746012
0.8163630717192736	126285072.43851589
0.8165671624872033	124100716.38704933
0.8167713042778252	121915814.24656777
0.8169754971038948	119730365.88055001
0.8171797409781707	116899749.13713866
0.8173840359134155	108922207.54590565
0.8175883819223938	100942671.56928402
0.8177927790178745	92961140.70866366
0.8179972272126291	84977614.46532607
0.8182017265194322	76992092.34043568
0.8184062769510622	75025336.04811421
0.8186108785203001	73984594.259562
0.8188155312399301	72943592.28556406
0.8190202351227402	71902330.06107147
0.819224990181521	70860807.52102341
0.8194297964290664	76561828.3268545
0.8196346538781738	86328487.37361273
0.8198395625416434	96097588.08512877
0.8200445224322789	105869131.07182679
0.820249533562887	115643116.94426861
0.8204545959462778	123149034.05486123
0.8206597095952644	127002499.46074489
0.8208648745226633	130856928.23298301
0.8210700907412941	134712320.6124136
0.8212753582639793	138568676.83993506
0.8214806771035456	142173351.27298364
0.8216860472728215	144222320.42214078
0.8218914687846397	146271801.8135853
0.822096941651836	148321795.57537878
0.822302465887249	150372301.8356115
0.8225080415037209	152423320.72241038
0.8227136685140968	154408510.37657863
0.8229193469312254	156386665.12605688
0.8231250767679583	158365314.41422316
0.8233308580371503	160344458.3647104
0.8235366907516598	162324097.1011867
0.8237425749243477	164648677.34950164
0.8239485105680789	167156401.49719363
0.824154497695721	169664752.57592097
0.824360536320145	172173730.74241844
0.8245666264542252	174683336.1534574
0.8247727681108388	176306237.55591315
0.8249789613028664	176658719.09759846
0.8251852060431922	177011288.7596695
0.825391502344703	177363946.56415594
0.8255978502202894	177716692.53309378
0.8258042496828445	177844741.9938738
0.8260107007452654	176881140.7672308
0.8262172034204517	175917298.64028215
0.8264237577213068	174953215.55280152
0.8266303636607373	173988891.44454858
0.8268370212516525	173024326.25526905
0.8270437305069654	173210243.18007886
0.8272504914395923	173486128.12780908
0.8274573040624523	173762082.04677626
0.8276641683884679	174038104.95422298
0.8278710844305652	174314196.86739686
0.8280780522016729	174635473.4798794
0.8282850717147234	174977452.7036192
0.8284921429826521	175319517.42216462
0.8286992660183978	175661667.65688992
0.8289064408349024	176003903.42917365
0.8291136674451112	176334469.3543221
0.8293209458619727	176650294.94294292
0.8295282760984382	176966199.48796046
0.829735658167463	177282183.00911465
0.8299430920820048	177598245.5261487
0.8301505778550254	178020926.49939457
0.8303581154994891	178868943.24902323
0.8305657050283641	179717172.00284016
0.8307733464546212	180565612.81384486
0.8309810397912352	181414265.73505372
0.8311887850511829	182263130.81949118
0.8313965822474458	183704102.48217142
0.8316044313930077	185172907.33607787
0.8318123325008561	186642079.39119917
0.8320202855839813	188111618.73933354
0.8322282906553774	189581525.47230506
0.8324363477280413	190844913.23594415
0.8326444568149735	192025325.09322584
0.8328526179291771	193206032.0534705
0.8330608310836596	194387034.19045696
0.8332690962914304	195568331.57797614
0.8334774135655034	196286900.32800323
0.833685782918895	196488435.74947482
0.8338942043646247	196690021.5548017
0.834102677915716	196891657.75658002
0.834311203585195	197093344.36740863
0.8345197813860912	197376076.36278957
0.8347284113314379	197931515.66061842
0.8349370934342709	198487093.81827143
0.8351458277076294	199042810.87046316
0.8353546141645565	199598666.85191888
0.8355634528180977	200154661.79736972
0.8357723436813022	201006300.49021202
0.8359812867672226	201861800.8234246
0.8361902820889144	202717515.03172004
0.8363993296594368	203573443.16856784
0.8366084294918518	204429585.2874501
0.8368175815992247	204689357.58123615
0.8370267859946247	204743725.20889267
0.8372360426911234	204798106.42845613
0.8374453517017962	204852501.24332443
0.8376547130397217	204906909.65689644
0.8378641267179816	205543988.3841763
0.8380735927496613	206759373.3011639
0.8382831111478488	207975062.06438002
0.8384926819256358	209191054.7497863
0.8387023050961173	210407351.43336496
0.8389119806723914	211301110.45814872
0.8391217086675596	211286510.79427418
0.8393314890947265	211271907.48048368
0.8395413219670003	211257300.51586473
0.8397512072974922	211242689.8995046
0.8399611450993165	211241829.0806014
0.8401711353855914	211923959.46379164
0.8403811781694378	212606260.3795775
0.8405912734639802	213288731.87059245
0.8408014212823464	213971373.97948048
0.8410116216376671	214654186.74889565
0.8412218745430766	214087805.65597308
0.8414321800117124	213157766.09052393
0.8416425380567154	212227494.01518297
0.8418529486912297	211296989.37182295
0.8420634119284025	210366252.1023029
0.8422739277813847	210855367.09177554
0.8424844962633302	212595754.2996466
0.842695117387396	214336576.60431743
0.8429057911667428	216077834.11456448
0.8431165176145345	217819526.9391899
0.8433272967439382	217450848.07325664
0.8435381285681244	211933233.16000247
0.8437490131002665	206414238.8430212
0.8439599503535415	200893864.77746415
0.84417094034113	195372110.61838672
0.8443819830762154	190025251.08946764
0.8445930785719846	188228131.17382586
0.8448042268416277	186430561.9782062
0.8450154278983382	184632543.39028782
0.8452266817553128	182834075.2977226
0.8454379884257517	181035157.58813405
0.8456493479228583	181236262.31226978
0.845860760259839	181919155.05204302
0.846072225449904	182602218.51500118
0.8462837435062666	183285452.74382526
0.8464953144421433	183968857.7812069
0.8467069382707537	184851679.653276
0.8469186150053215	185890028.3556979
0.847130344659073	186928636.6452957
0.8473421272452377	187967504.58696488
0.8475539627770492	189006632.24562052
0.8477658512677435	190028776.672322
0.8479777927305605	191014563.36577716
0.8481897871787432	192000596.50590542
0.848401834625538	192986876.15431926
0.8486139350841944	193973402.37264457
0.8488260885679657	194896240.8327964
0.8490382950901076	195039972.48857364
0.8492505546638802	195183740.0772649
0.8494628673025462	195327543.6078533
0.8496752330193721	195471383.08932456
0.8498876518276269	195615258.53066596
0.8501001237405839	192317184.90730712
0.8503126487715191	188331206.10181534
0.850525226933712	184344230.80162442
0.8507378582404455	180356258.75760847
0.8509505427050057	176367289.72057918
0.8511632803406821	172115397.04782805
0.8513760711607672	167683069.7855101
0.8515889151785576	163249634.44136965
0.8518018124073523	158815090.7383969
0.8520147628604541	154379438.39950103
0.8522277665511693	152838798.65321958
0.8524408234928071	156653800.3973102
0.8526539336986805	160469755.8918379
0.8528670971821053	164286665.37523943
0.8530803139564007	168104529.08600733
0.8532935840348901	171987009.5787388
0.8535069074308987	176408121.48195753
0.8537202841577566	180830338.66315576
0.8539337142287962	185253661.3986498
0.8541471976573534	189678089.96482494
0.8543607344567677	194103624.63814244
0.8545743246403821	193143372.03635034
0.8547879682215422	191327379.08927616
0.8550016652135977	189510932.14396545
0.8552154156299011	187694031.08691835
0.8554292194838088	185876675.80460563
0.8556430767886797	184258005.69164142
0.855856987557877	182759843.1609207
0.8560709518047664	181261306.0895683
0.8562849695427177	179762394.38394746
0.8564990407851035	178263107.9503998
0.8567131655452999	176198614.24784964
0.8569273438366862	173208107.60674465
0.8571415756726455	170216853.33897883
0.8573558610665638	167224851.25764495
0.8575702000318304	164232101.175794
0.8577845925818384	162338946.3641176
0.857999038729984	167318468.87047797
0.8582135384896665	172299236.2574638
0.858428091874289	177281248.83629668
0.8586426988972576	182264506.9182729
0.8588573595719821	187249010.81477135
0.8590720739118751	185843840.36174485
0.8592868419303532	183684809.99603975
0.8595016636408359	181525239.87274322
0.8597165390567462	179365129.8569166
0.8599314681915105	177204479.81358546
0.8601464510585584	173044337.57561764
0.860361487671323	167822125.51744115
0.8605765780432408	162598607.90625167
0.8607917221877518	157373784.41565508
0.8610069201182988	152147654.71918723
0.8612221718483286	144549739.828212
0.8614374773912907	133532559.66999964
0.8616528367606385	122512625.21675074
0.8618682499698288	111489935.77988154
0.8620837170323213	100464490.67065495
0.8622992379615795	91202399.15681106
0.8625148127710699	90677793.66606204
0.8627304414742627	90153057.0239403
0.8629461240846313	89628189.19765793
0.8631618606156526	89103190.15441895
0.8633776510808066	88578059.86141925
0.8635934954935769	93075041.25233606
0.8638093938674504	97984829.22797231
0.8640253462159173	102895844.65060234
0.8642413525524714	107808087.82708791
0.8644574128906095	112721559.06436656
0.8646735272438323	113951492.28752361
0.8648896956256433	113468214.52635871
0.8651059180495498	112984815.94575348
0.8653221945290621	112501296.51550356
0.8655385250776946	112017656.2053954
0.8657549097089641	113504917.44692332
0.8659713484363913	117515892.53549717
0.8661878412735006	121527870.36784504
0.866404388233819	125540851.19465044
0.8666209893308775	129554835.26666069
0.8668376445782103	132712884.82883014
0.8670543539893549	132374124.88506791
0.8672711175778525	132035280.25131951
0.8674879353572469	131696350.90641306
0.8677048073410862	131357336.82917026
0.8679217335429217	131018237.99840792
0.8681387139763074	128906710.20298913
0.8683557486548015	126706608.98170947
0.8685728375919655	124505957.73512177
0.8687899808013633	122304756.32572722
0.8690071782965637	120103004.61597747
0.869224430091138	118394566.88150872
0.8694417361986609	116886654.8430258
0.8696590966327107	115378365.82653362
0.869876511406869	113869699.7377872
0.8700939805347206	112360656.48251934
0.8703115040298544	111496658.08119926
0.870529081905862	111370347.87111565
0.8707467141763385	111244006.08347955
0.8709644008548827	111117632.71039657
0.8711821419550964	110991227.7439704
0.8713999374905854	111139592.07745536
0.871617787474958	112236426.75711784
0.8718356919218269	113333535.64545125
0.8720536508448075	114430918.8110068
0.8722716642575187	115528576.32235311
0.8724897321735832	116626508.24807774
0.8727078546066265	119005087.20174067
0.8729260315702784	121403739.46667394
0.873144263078171	123802991.39467087
0.8733625491439405	126202843.13565004
0.8735808897812266	128603294.8395654
0.8737992850036719	128914672.11191694
0.874017734824923	128485998.86496954
0.8742362392586293	128057218.44971056
0.874454798318444	127628330.83934781
0.8746734120180236	127199336.00708249
0.8748920803710283	127159921.06724419
0.875110803391121	127512094.71849914
0.8753295810919689	127864356.4131671
0.875548413487242	128216706.17325874
0.8757673005906139	128569144.0207904
0.8759862424157616	130292956.32388528
0.8762052389763657	135985081.33722478
0.8764242902861098	141678629.38181368
0.8766433963586814	147373600.81341526
0.8768625572077712	153069995.98787647
0.8770817728470732	158725565.02036756
0.8773010432902849	161083755.7536234
0.8775203685511077	163442536.03456593
0.8777397486432454	165801906.01057574
0.8779591835804065	168161865.82908246
0.8781786733763015	170522415.63754067
0.8783982180446457	167836066.7065094
0.878617817599157	163647512.59214994
0.8788374720535569	159457911.3392639
0.8790571814215703	155267262.6860656
0.8792769457169257	151075566.370704
0.879496764953355	148975715.10201767
0.8797166391445934	148756987.11490464
0.8799365683043796	148538204.44579482
0.8801565524464557	148319367.08101773
0.8803765915845676	148100475.00689924
0.8805966857324639	148513681.23452443
0.880816834903897	150514769.65019354
0.881037039112623	152516358.3379674
0.8812572983724012	154518447.42291299
0.8814776126969944	156521037.03013068
0.8816979821001687	158512027.91726738
0.8819184065956938	160218695.40505108
0.8821388861973429	161925789.55970854
0.8823594209188923	163633310.48790297
0.882580010774122	165341258.2963287
0.8828006557768155	167049633.09170747
0.8830213559407598	172623830.76902828
0.8832421112797452	179171608.2730513
0.8834629218075651	185721022.72144634
0.8836837875380171	192272074.52345547
0.8839047084849018	198824764.08841613
0.884125684662023	198008051.46834087
0.8843467160831886	191284187.2138215
0.8845678027622095	184558641.99323848
0.8847889447129001	177831415.38634908
0.8850101419490785	171102506.97280917
0.8852313944845657	168218974.29191425
0.885452702333187	173755458.75750154
0.8856740655087704	179293327.34420446
0.8858954840251476	184832580.39805254
0.8861169578961539	190373218.2651615
0.886338487135628	195102090.26073352
0.886560071757412	189011212.893687
0.8867817117753515	182918812.8072989
0.8870034072032955	176824889.62088647
0.8872251580550963	170729442.95368457
0.8874469643446101	164632472.4248121
0.8876688260856963	164092388.19532636
0.8878907432922178	164702553.2416442
0.8881127159780409	165312870.82922322
0.8883347441570356	165923340.99619988
0.8885568278430749	166533963.78071767
0.8887789670500358	165903868.56076849
0.8890011617917983	164393374.87431288
0.8892234120822464	162882503.56443498
0.8894457179352669	161371254.53673083
0.8896680793647509	159859627.69676855
0.8898904963845921	159459021.4991554
0.8901129690086883	161178892.83682323
0.8903354972509405	162899194.14232504
0.8905580811252535	164619925.52315456
0.8907807206455347	166341087.08682695
0.8910034158256963	168177808.108617
0.8912261666796527	171043893.52268732
0.8914489732213227	173910695.45811197
0.8916718354646282	176778214.0940233
0.8918947534234944	179646449.60959083
0.8921177271118502	182515402.18403545
0.8923407565436284	183440212.33845678
0.8925638417327644	184047994.2019437
0.8927869826931977	184655928.0108967
0.8930101794388711	185264013.8033019
0.8932334319837308	185872251.6171551
0.8934567403417267	186246140.9983009
0.8936801045268123	186474409.40014946
0.8939035245529441	186702734.86909837
0.8941270004340824	186931117.41941458
0.894350532184191	187159557.0653683
0.8945741198172371	189671180.75542232
0.8947977633471915	195969726.0318767
0.8950214627880284	202269845.94464996
0.8952452181537254	208571540.88739765
0.8954690294582639	214874811.25388482
0.8956928967156286	220952470.89962563
0.8959168199398075	225557290.25674886
0.8961407991447926	230163260.81871256
0.8963648343445789	234770382.8733166
0.896588925553165	239378656.70843172
0.8968130727845534	243988082.6120062
0.8970372760527496	245893220.10154745
0.8972615353717629	247460328.75249064
0.8974858507556059	249027829.18059677
0.8977102222182949	250595721.4838095
0.8979346497738496	252164005.76009887
0.8981591334362931	253341697.85801092
0.8983836732196523	254305864.28635305
0.8986082691379572	255270271.7563016
0.8988329212052417	256234920.3281177
0.8990576294355432	257199810.06207755
0.8992823938429022	257598786.40792203
0.8995072144413631	257156062.53919715
0.8997320912449734	256713227.98950526
0.8999570242677847	256270282.73117602
0.9001820135238516	255827226.73653218
0.9004070590272328	256269913.60912642
0.9006321607919896	261356658.10903636
0.9008573188321878	266444674.29507643
0.9010825331618959	271533962.4851606
0.9013078037951865	276624522.99729306
0.9015331307461353	281716356.1495509
0.9017585140288219	284564935.0828703
0.9019839536573292	287220899.21734065
0.9022094496457435	289877527.3428427
0.9024350020081551	292534819.62537915
0.9026606107586572	295192776.23098534
0.902886275911347	298208018.5619283
0.9031119974803249	301395930.9624302
0.9033377754796951	304584640.34103227
0.903563609923565	307774146.89697754
0.903789500826046	310964450.829564
0.9040154482012526	312402872.7624026
0.904241452063303	311571210.9450611
0.9044675124263188	310739341.21226543
0.9046936293044254	309907263.5120367
0.9049198027117517	309074977.7923825
0.9051460326624297	307328721.5431006
0.9053723191705955	301691015.60873604
0.9055986622503881	296051900.2478932
0.9058250619159507	290411375.10820997
0.9060515181814298	284769439.83723825
0.9062780310609752	279126094.0824527
0.9065046005687405	283281521.11588407
0.906731226718883	287984710.2760806
0.9069579095255627	292689075.233561
0.907184649002944	297394616.2822811
0.907411445165195	302101333.7162682
0.9076382980264862	305490630.54084194
0.907865207600993	308333163.67775875
0.9080921739028933	311176407.44795895
0.9083191969463691	314020362.02910125
0.9085462767456058	316865027.5988902
0.9087734133147922	320286586.8646665
0.9090006066681211	324374499.48386556
0.909227856819788	328463434.08121395
0.9094551637839932	332553390.9122174
0.9096825275749393	336644370.23242724
0.9099099482068329	340430577.45722806
0.9101374256938848	343130931.0692778
0.9103649600503083	345831959.7697294
0.9105925512903209	348533663.7273555
0.9108201994281437	351236043.11097383
0.9110479044780008	353939098.089435
0.9112756664541204	361005840.66377485
0.911503485370734	368174218.4954153
0.9117313612420768	375344388.4215137
0.9119592940823873	382516350.89009136
0.912187283905908	389690106.34928846
0.9124153307268845	391577106.21232337
0.9126434345595664	391545143.6496006
0.9128715954182063	391513173.09623724
0.9130998133170609	391481194.55023545
0.9133280882703902	391449208.0095972
0.913556420292458	392610749.52866316
0.9137848093975312	395003492.79104525
