#wavelength	surface flux
0.7	19095413.121612467
0.7001166666666666	19174972.289805863
0.7002333527777778	19185590.20785156
0.700350058336574	19196209.89555026
0.7004667833462966	19206831.353196893
0.7005835278101878	19217454.581086498
0.7007002917314895	19228079.579514064
0.7008170751134447	19238706.348774705
0.7009338779592968	19249334.88916355
0.7010507002722901	19237539.05075082
0.7011675420556689	19198450.11249679
0.701284403312678	19159354.659419782
0.7014012840465635	19120252.690433867
0.7015181842605713	19081144.204453133
0.701635103957948	19042029.200391427
0.701752043141941	19002907.677162386
0.701869001815798	18963779.633679416
0.7019859799827672	18892357.844316218
0.7021029776460976	18798454.06106231
0.7022199948090387	18704534.62717774
0.7023370314748403	18610599.540054232
0.7024540876467528	18516648.797082886
0.702571163328027	18422682.39565453
0.7026882585219152	18328700.33315902
0.7028053732316688	18234702.60698656
0.7029225074605406	18228690.614634253
0.7030396612117841	18256658.99671215
0.7031568344886527	18284632.040187065
0.7032740272944008	18312609.74583587
0.7033912396322832	18340592.114435636
0.7035084715055552	18368579.146763474
0.7036257229174727	18396570.843596708
0.7037429938712924	18424567.205712777
0.7038602843702709	18530460.994287048
0.7039775944176659	18649583.613995925
0.7040949240167356	18768726.087474797
0.7042122731707383	18887888.418032523
0.7043296418829335	19007070.60897874
0.7044470301565806	19126272.66362343
0.70456443799494	19245494.585277136
0.7046818654012724	19364736.37725119
0.7047993123788394	19295110.59906577
0.7049167789309024	19225256.459860057
0.7050342650607243	19155390.678297702
0.7051517707715678	19085513.252438452
0.7052692960666963	19015624.180341594
0.705386840949374	18945723.46006608
0.7055044054228656	18875811.08967041
0.7056219894904361	18820018.66107912
0.7057395931553511	18854021.708392665
0.705857216420877	18888030.422880787
0.7059748592902804	18922044.80548797
0.7060925217668288	18956064.85715896
0.70621020385379	18990090.578838553
0.7063279055544321	19024121.97147172
0.7064456268720246	19058159.03600371
0.7065633678098366	19100074.86896739
0.7066811283711383	19163680.337524302
0.7067989085592001	19227296.40699264
0.7069167083772933	19290923.079139184
0.7070345278286895	19354560.355731126
0.707152366916661	19418208.238535844
0.7072702256444803	19481866.72932096
0.7073881040154211	19545535.829854622
0.7075060020327569	19563587.68156201
0.7076239196997625	19515192.527740132
0.7077418570197124	19466789.308059335
0.7078598139958823	19418378.021175254
0.7079777906315483	19369958.665743317
0.7080957869299869	19321531.240418844
0.7082138028944751	19273095.743856844
0.7083318385282908	19224652.174712043
0.7084498938347124	19199812.06612537
0.708567968817018	19194986.158916026
0.7086860634784875	19190159.447388805
0.7088041778224007	19185331.93140966
0.7089223118520377	19180503.610844526
0.7090404655706796	19175674.4855593
0.709158638981608	19170844.555419855
0.709276832088105	19166013.820292052
0.7093950448934531	19201079.205905847
0.7095132774009353	19255177.71010399
0.7096315296138355	19309285.23071952
0.7097498015354378	19363401.76925514
0.7098680931690269	19417527.327213794
0.7099864045178884	19471661.906098846
0.7101047355853081	19525805.5074137
0.7102230863745722	19579958.13266207
0.7103414568889679	19482799.507292405
0.7104598471317828	19351241.156991374
0.7105782571063047	19219660.880298726
0.7106966868158224	19088058.67355997
0.710815136263625	18956434.533120114
0.7109336054530023	18824788.45532344
0.7110520943872445	18693120.436513845
0.7111706030696424	18561430.473034367
0.7112891315034873	18575668.54764586
0.7114076796920712	18596872.689452484
0.7115262476386865	18618080.36528274
0.7116448353466263	18639291.575725622
0.711763442819184	18660506.321370255
0.711882070059654	18681724.602805845
0.7120007170713306	18702946.420621667
0.7121193838575091	18729232.4818939
0.7122380704214853	18808304.79742558
0.7123567767665555	18887390.291676432
0.7124755028960166	18966488.96684303
0.7125942488131658	19045600.8251221
0.7127130145213015	19124725.8687111
0.7128318000237216	19203864.099807117
0.7129506053237256	19283015.520608433
0.7130694304246129	19328982.226971027
0.7131882753296837	19258885.01888242
0.7133071400422386	19188776.127925776
0.7134260245655789	19118655.552154023
0.7135449289030065	19048523.28961962
0.7136638530578235	18978379.33837483
0.7137827970333332	18908223.6964714
0.7139017608328388	18838056.361961003
0.7140207444596443	18788924.515895355
0.7141397479170543	18777330.56676364
0.7142587712083737	18765734.68530709
0.7143778143369084	18754136.871203616
0.7144968773059646	18742537.124131124
0.7146159601188489	18730935.44376746
0.7147350627788687	18719331.8297904
0.7148541852893318	18707726.281877678
0.7149733276535467	18726768.685004823
0.7150924898748222	18776720.921135586
0.715211671956468	18826681.48263905
0.7153308739017941	18876650.370902795
0.715450095714111	18926627.587314565
0.71556933739673	18976613.13326241
0.7156885989529628	19026607.010134574
0.7158078803861218	19076609.219319627
0.7159271816995193	19056908.064337205
0.7160465028964692	18996287.208385404
0.7161658439802853	18935656.24895761
0.7162852049542819	18875015.184369925
0.7164045858217744	18814364.01293811
0.716523986586078	18753702.73297774
0.7166434072505089	18693031.342804078
0.716762847818384	18632349.84073203
0.7168823082930204	18628585.121281937
0.7170017886777359	18641567.42498438
0.7171212889758488	18654551.892404098
0.7172408091906781	18667538.523901723
0.7173603493255433	18680527.31983794
0.7174799093837642	18693518.280573465
0.7175994893686615	18706511.40646912
0.7177190892835562	18719506.697885755
0.7178387091317702	18770460.18771714
0.7179583489166254	18825232.305364978
0.7180780086414448	18880013.551699135
0.7181976883095517	18934803.928241014
0.7183173879242699	18989603.436512325
0.718437107488924	19044412.078035023
0.7185568470068389	19099229.85433133
0.7186766064813399	19151201.267475873
0.7187963859157535	19131787.563339196
0.7189161853134061	19112370.623585165
0.719036004677625	19092950.44767451
0.7191558440117378	19073527.03506788
0.7192757033190732	19054100.385225784
0.7193955826029597	19034670.49760874
0.7195154818667269	19015237.37167708
0.7196354011137046	18983736.44536287
0.7197553403472235	18896682.871068403
0.7198752995706147	18809614.787844922
0.7199952787872098	18722532.193274178
0.720115278000341	18635435.084937677
0.7202352972133411	18548323.46041644
0.7203553364295432	18461197.317291252
0.7204753956522815	18374056.65314208
0.7205954748848902	18299712.801340733
0.7207155741307044	18253600.766138114
0.7208356933930594	18207481.045596376
0.7209558326752915	18161353.638434537
0.7210759919807375	18115218.543371443
0.7211961713127342	18069075.7591259
0.7213163706746197	18022925.28441624
0.7214365900697322	17976767.117960844
0.7215568295014103	17980980.725035664
0.721677088972994	18045306.22505632
0.7217973684878227	18109642.445993543
0.7219176680492374	18173989.38963433
0.7220379876605789	18238347.05776568
0.722158327325189	18302715.45217508
0.7222786870464099	18367094.574650183
0.7223990668275843	18431484.426979057
0.7225194666720555	18425259.24973944
0.7226398865831676	18368978.78989208
0.7227603265642646	18312688.94996822
0.722880786618692	18256389.728404246
0.7230012667497951	18200081.12363672
0.7231217669609201	18143763.134101722
0.7232422872554135	18087435.758235186
0.7233628276366229	18031098.99447258
0.7234833881078956	17948229.581240427
0.7236039686725803	17855276.49819403
0.7237245693340255	17762307.92296728
0.7238451900955812	17669323.852977816
0.7239658309605971	17576324.285643462
0.7240864919324239	17483309.2183811
0.7242071730144127	17390278.64860752
0.724327874209915	17297232.57373917
0.7244485955222832	17291649.5222328
0.7245693369548704	17300529.3762637
0.7246900985110294	17309410.710270256
0.7248108801941148	17318293.52449917
0.7249316820074803	17327177.819197092
0.7250525039544815	17336063.594610814
0.7251733460384739	17344950.850987107
0.7252942082628137	17353724.151488975
0.7254150906308574	17295611.01161983
0.7255359931459625	17237488.186227363
0.7256569158114868	17179355.673697315
0.7257778586307888	17121213.472415153
0.7258988216072273	17063061.580766123
0.7260198047441617	17004899.99713522
0.7261408080449525	16946728.71990694
0.72626183151296	16881836.889072377
0.7263828751515454	16772336.738514883
0.7265039389640706	16662818.337932318
0.726625022953898	16553281.684282921
0.7267461271243904	16443726.774524532
0.7268672514789111	16334153.605614586
0.7269883960208241	16224562.174509918
0.7271095607534942	16114952.47816666
0.7272307456802866	16005094.149442501
0.7273519508045666	15894595.241964499
0.7274731761297006	15784077.918001968
0.7275944216590555	15673542.174485447
0.7277156873959987	15562988.008344967
0.7278369733438982	15452415.41650995
0.727958279506122	15341824.395909926
0.7280796058860397	15231214.943472998
0.7282009524870207	15143428.807933088
0.7283223193124353	15089413.535945598
0.7284437063656539	15035389.261412887
0.7285651136500483	14981355.982834332
0.7286865411689898	14927313.698709458
0.7288079889258514	14873262.4075371
0.7289294569240056	14819202.107816339
0.7290509451668262	14765132.79804556
0.7291724536576875	14731048.785659082
0.7292939823999636	14713526.52989931
0.7294155313970303	14696001.353763543
0.7295371006522632	14678473.25676509
0.7296586901690385	14660942.238417152
0.7297802999507332	14643408.29823283
0.7299019300007252	14625871.435725098
0.7300235803223919	14608331.650406998
0.7301452509191123	14579147.505673865
0.7302669417942654	14544585.165658932
0.7303886529512311	14510017.065253988
0.7305103843933897	14475443.203498967
0.7306321361241218	14440863.579433681
0.7307539081468093	14406278.192097656
0.7308757004648336	14371687.04053048
0.7309975130815778	14337090.123771338
0.7311193460004248	14309313.323404497
0.7312411992247582	14283077.186239745
0.7313630727579622	14256836.676385473
0.7314849666034219	14230591.793112867
0.7316068807645224	14204342.535693064
0.7317288152446498	14178088.903397013
0.7318507700471907	14151830.895495564
0.7319727451755319	14125568.511259476
0.732094740633061	14095316.690914148
0.7322167564231665	14064880.419978442
0.7323387925492371	14034439.076330911
0.7324608490146619	14003992.659126114
0.732582925822831	13973541.167518442
0.7327050229771347	13943084.600662204
0.7328271404809642	13912622.957711458
0.7329492783377112	13877934.747470113
0.7330714365507675	13801739.038094958
0.7331936151235259	13725530.629434926
0.7333158140593796	13649309.519373538
0.7334380333617229	13573075.70579369
0.7335602730339499	13496829.18657821
0.7336825330794556	13420569.959609512
0.7338048135016354	13344298.0227698
0.7339271143038857	13258139.722996753
0.734049435489603	13138883.562441256
0.7341717770621846	13019607.52585898
0.7342941390250283	12900311.609937334
0.7344165213815324	12780995.811363079
0.734538924135096	12661660.126822222
0.7346613472891185	12542304.553000763
0.734783790847	12422929.086583626
0.7349062548121412	12301757.448727738
0.7350287391879431	12177425.976059759
0.7351512439778078	12053073.781479415
0.7352737691851374	11928700.861533456
0.735396314813335	11804307.212767396
0.7355188808658037	11679892.831726748
0.7356414673459482	11555457.714955674
0.7357640742571725	11431001.858998556
0.7358867016028818	11336274.259274652
0.7360093493864824	11270910.6907821
0.7361320176113801	11205536.228361554
0.736254706280982	11140150.870197272
0.7363774153986956	11074754.61447321
0.7365001449679286	11009347.459373329
0.7366228949920899	10943929.403080877
0.7367456654745885	10878500.443779044
0.7368684564188344	10814302.685350288
0.7369912678282374	10750796.239259958
0.7371140997062088	10687279.208761921
0.7372369520561599	10623751.592092074
0.7373598248815024	10560213.387486259
0.7374827181856494	10496664.593179569
0.7376056319720137	10433105.207407156
0.7377285662440091	10369535.228403771
0.7378515210050496	10305730.389074134
0.7379744962585505	10241847.440989222
0.738097492007927	10177953.845746312
0.7382205082565949	10114049.6015709
0.738343545007971	10050134.706688141
0.7384666022654723	9986209.159322836
0.7385896800325165	9922272.957699733
0.7387127783125219	9858326.100042945
0.7388358971089073	9797280.299235003
0.7389590364250921	9736516.376334226
0.7390821962644963	9675742.326112919
0.7392053766305403	9614958.14688333
0.7393285775266454	9554163.836957159
0.7394517989562333	9493359.39464594
0.7395750409227259	9432544.818261104
0.7396983034295463	9372095.241676696
0.739821586480118	9319980.759946305
0.7399448900778645	9267857.592469063
0.7400682142262109	9215725.737797081
0.740191558928582	9163585.19448271
0.7403149241884034	9111435.961077828
0.7404383100091014	9059278.036134033
0.7405617163941028	9007111.41820278
0.7406851433468352	8948015.63753814
0.7408085908707264	8857250.529427497
0.7409320589692048	8766470.293798879
0.7410555476456997	8675674.928130915
0.7411790569036406	8584864.429902075
0.7413025867464579	8494038.79659017
0.7414261371775823	8403198.025672687
0.7415497082004452	8312342.1146267885
0.7416732998184786	8225128.709054728
0.741796912035115	8145747.143281521
0.7419205448537874	8066352.34724737
0.7420441982779297	7986944.318747215
0.742167872310976	7907523.05557557
0.7422915669563612	7828088.5555267325
0.7424152822175206	7748640.816394575
0.7425390180978901	7669179.835972611
0.7426627746009065	7591898.018708953
0.7427865517300065	7517276.021849465
0.7429103494886282	7442641.587990422
0.7430341678802096	7367994.715059127
0.7431580069081896	7293335.400982347
0.7432818665760077	7218663.64368645
0.7434057468871037	7143979.441097733
0.7435296478449182	7069282.79114196
0.7436535694528923	6994653.880505961
0.7437775117144678	6920067.42338502
0.7439014746330868	6845468.535188004
0.7440254582121922	6770857.213842892
0.7441494624552276	6696233.457277525
0.7442734873656368	6621597.263419413
0.7443975329468645	6546948.630195599
0.7445215992023557	6472287.555532922
0.7446456861355559	6397930.795822778
0.7447697937499119	6323678.328727078
0.7448939220488703	6249413.486220211
0.7450180710358784	6175136.266239659
0.7451422407143843	6100846.666722435
0.7452664310878367	6026544.685605221
0.7453906421596846	5952230.320824569
0.7455148739333779	5877903.570316427
0.7456391264123667	5804537.918225265
0.7457633996001021	5731315.693587163
0.7458876935000356	5658081.265244824
0.7460120081156189	5584834.631164568
0.7461363434503048	5511575.78931193
0.7462606995075466	5438304.737652251
0.7463850762907978	5365021.474150738
0.7465094738035127	5291730.907782927
0.7466338920491467	5219712.819455908
0.746758331031155	5147682.7281140955
0.7468827907529935	5075640.631757146
0.7470072712181189	5003586.528384134
0.7471317724299886	4931520.4159938805
0.7472562943920602	4859442.292584945
0.7473808371077922	4787352.156155378
0.7475054005806435	4715609.198438989
0.7476299848140736	4646066.776109249
0.7477545898115426	4576512.763375772
0.7478792155765113	4506947.158306822
0.7480038621124406	4437369.958970416
0.7481285294227926	4367781.163434137
0.7482532175110298	4298180.7697651945
0.7483779263806148	4228568.776030738
0.7485026560350116	4160487.6339584677
0.7486274064776842	4096569.7380975513
0.748752177712097	4032641.189254108
0.7488769697417158	3968701.9856523876
0.749001782570006	3904752.125516811
0.7491266162004343	3840791.6070712307
0.7492514706364677	3776820.4285392137
0.7493763458815739	3712838.5881440435
0.7495012419392209	3650067.3501226353
0.7496261588128773	3589041.3656609375
0.7497510965060128	3528005.2102017878
0.7498760550220971	3466958.8820500835
0.7500010343646007	3405902.3795103445
0.7501260345369949	3344835.7008868186
0.750251055542751	3283758.8444835916
0.7503760973853414	3222671.8086042595
0.7505011600682389	3163611.551419524
0.750626243594917	3106242.265770381
0.7507513479688495	3048863.418573717
0.7508764731935109	2991475.008235834
0.7510016192723765	2934077.03316288
0.7511267862089218	2876669.491760801
0.7512519740066232	2819252.3824351346
0.7513771826689577	2761825.703591214
0.7515024121994025	2708429.274465094
0.7516276626014359	2656907.5374309253
0.751752933878536	2605377.2134406744
0.7518782260341824	2553838.3010630747
0.7520035390718548	2502290.7988667223
0.7521288729950334	2450734.7054200303
0.7522542278071992	2399170.0192910936
0.7523796035118337	2347596.7390477764
0.7525050001124189	2298958.564240946
0.7526304176124378	2250952.4722012663
0.7527558560153731	2202938.379146308
0.752881315324709	2154916.2837424614
0.7530067955439299	2106886.1846560296
0.7531322966765205	2058848.0805531477
0.7532578187259665	2010801.9700995674
0.7533833616957542	1962747.851960913
0.75350892558937	1918513.381240384
0.7536345104103016	1874451.525453274
0.7537601161620366	1830382.3260235556
0.7538857428480638	1786305.781727223
0.7540113904718717	1742221.891340231
0.7541370590369503	1698130.6536381845
0.7542627485467898	1654032.0673964932
0.7543884590048808	1610486.1801420697
0.7545141904147151	1572517.9048513123
0.7546399427797842	1534543.3015147343
0.7547657161035808	1496562.3690775945
0.754891510389598	1458575.1064850502
0.7550173256413296	1420581.5126820586
0.7551431618622698	1382581.5866134425
0.7552690190559135	1344575.327223823
0.7553948972257561	1307508.2027953595
0.7555207963752938	1273608.4851273948
0.755646716508023	1239703.117506505
0.755772657627441	1205792.0989909999
0.7558986197370455	1171875.4286390704
0.756024602840335	1137953.1055087578
0.7561506069408084	1104025.1286579235
0.7562766320419653	1070091.4971442504
0.7564026781473054	1037450.2475215618
0.75652874526033	1007087.7573778355
0.7566548333845401	976720.2068190696
0.7567809425234375	946347.595001888
0.7569070726805247	915969.9210827542
0.7570332238593047	885587.1842179713
0.7571593960632813	855199.383563682
0.7572855892959586	824806.5182759485
0.7574118035608413	797239.4265084538
0.7575380388614347	772437.2424027617
0.7576642952012449	747630.9245997093
0.7577905725837782	722820.4724103922
0.7579168710125422	698005.8851456661
0.7580431904910444	673187.1621163865
0.7581695310227928	648364.3026333001
0.7582958926112967	623537.3060069352
0.7584222752600652	601242.2380218229
0.7585486789726085	580400.3275944755
0.7586751037524372	559554.9435153824
0.7588015496030628	538706.0852055687
0.7589280165279966	517853.7520860779
0.7590545045307512	496997.94357773394
0.7591810136148396	476138.6591013057
0.7593075437837755	455275.8980774339
0.7594340950410726	437332.45490908495
0.7595606673902461	420234.03088309075
0.7596872608348112	403132.75711974176
0.7598138753782836	386028.6331441178
0.75994051102418	368921.6584811485
0.7600671677760173	351811.8326557487
0.7601938456373134	334699.1551926983
0.7603205446115863	317583.62561674695
0.7604472647023548	303501.4249088971
0.7605740059131385	289718.67324166547
0.7607007682474575	275933.6244491426
0.7608275517088319	262146.2781485182
0.7609543563007835	248356.63395681314
0.7610811820268336	234564.6914910844
0.7612080288905045	220770.45036830456
0.7613348968953197	207106.0117247728
0.7614617860448022	196149.72716820624
0.7615886963424764	185191.61656419863
0.7617156277918667	174231.6796084343
0.7618425803964988	163269.91599650163
0.7619695541598982	152306.32542396992
0.7620965490855914	141340.90758635086
0.7622235651771058	130373.66217907953
0.7623506024379685	120069.30349072398
0.7624776608717082	112676.74403043652
0.7626047404818536	105282.95247690534
0.7627318412719337	97887.92862479461
0.762858963245479	90491.67226870387
0.7629861064060198	83094.1832032198
0.7631132707570876	75695.4612228838
0.7632404563022137	68295.50612222437
0.7633676630449308	61757.07602548167
0.7634948909887717	57054.08222192244
0.7636221401372697	52350.30458606874
0.7637494104939593	47645.742987271304
0.7638767020623748	42940.39729488085
0.7640040148460518	38234.267378202974
0.7641313488485262	33527.35310653916
0.7642587040733344	28819.65434915806
0.7643860805240132	25123.779243053435
0.7645134782041005	22635.63337144721
0.7646408971171346	20147.072808861347
0.764768337266654	17658.097486182633
0.7648957986561985	15168.707334282666
0.7650232812893079	12678.90228402438
0.7651507851695227	10188.682266257694
