#wavelength	surface flux
0.8	37590043.21892233
0.8002000000000001	37970731.23426158
0.8004000500000003	38412569.79897131
0.8006001500125003	38855135.54274851
0.8008003000500035	39297811.92796169
0.8010005001250161	39740598.98227138
0.8012007502500472	40183496.733344
0.8014010504376099	40646242.27754797
0.8016014007002193	41115714.823160276
0.8018018010503944	41585304.73690897
0.8020022515006572	42055012.04813632
0.8022027520635323	42524836.786191076
0.8024033027515483	42974373.178054266
0.8026039035772362	43404025.06296066
0.8028045545531306	43833784.36083832
0.8030052556917691	44263651.09854064
0.803206007005692	44693625.30292701
0.8034068085074435	45108547.18870257
0.8036076602095705	45481077.627749085
0.8038085621246229	45853701.19940507
0.8040095142651542	46226417.926954195
0.8042105166437206	46599227.833685085
0.8044115692728815	46972556.738594964
0.8046126721651998	47364293.19909155
0.8048138253332411	47756127.59370295
0.8050150287895745	48148059.94691337
0.805216282546772	48540090.28321198
0.8054175866174087	48932218.62709446
0.8056189410140631	49406707.86396713
0.8058203457493168	49904601.448230386
0.8060218008357541	50402619.50588907
0.8062233062859632	50900762.06806242
0.8064248621125346	51399029.16587597
0.806626468328063	51913968.70594662
0.8068281249451449	52443249.60407465
0.8070298319763813	52972662.82242786
0.8072315894343755	53502208.394085266
0.8074333973317341	54031886.35213578
0.8076352556810671	54561092.36367753
0.8078371644949874	55088975.86684699
0.8080391237861113	55616991.340892375
0.8082411335670578	56145138.81880593
0.8084431938504498	56673418.33358953
0.8086453046489125	57205578.16837369
0.8088474659750746	57807656.7450814
0.8090496778415686	58409885.84143409
0.809251940261029	59012265.495060444
0.8094542532460944	59614795.74360071
0.8096566168094059	60217476.62470243
0.8098590309636085	60857680.79101859
0.8100614957213493	61506792.37407294
0.8102640110952797	62156066.23502314
0.8104665770980536	62805502.41443883
0.8106691937423283	63455100.95289963
0.8108718610407639	64078944.56934451
0.8110745790060241	64683126.531132765
0.8112773476507757	65287459.53841199
0.8114801669876885	65891943.62894288
0.8116830370294355	66496578.84049604
0.8118859577886929	67097517.75970963
0.8120889292781401	67690615.58938885
0.8122919515104597	68283861.69352543
0.8124950244983374	68877256.1091881
0.8126981482544621	69470798.87345459
0.8129013227915257	70075542.71038195
0.8131045481222237	70806992.68885998
0.8133078242592543	71538625.5298327
0.8135111512153191	72270441.27901548
0.813714529003123	73002439.98213564
0.8139179576353739	73734621.6849317
0.8141214371247829	74569538.6827873
0.8143249674840641	75424551.01600611
0.814528548725935	76279777.1023077
0.8147321808631167	77135216.99513204
0.8149358639083326	77990870.74792932
0.8151395978743097	78676939.52777848
0.8153433827737784	79248456.5730341
0.8155472186194719	79820116.49755083
0.8157511054241268	80391919.33704856
0.815955043200483	80963865.12725657
0.8161590319612831	81076653.5815091
0.8163630717192736	80347858.37847507
0.8165671624872033	79618880.97664109
0.8167713042778252	78889721.33045594
0.8169754971038948	78160379.39435887
0.8171797409781707	77019021.48090026
0.8173840359134155	72589582.71612528
0.8175883819223938	68159036.5916642
0.8177927790178745	63727382.83066948
0.8179972272126291	59294621.15623335
0.8182017265194322	54860751.29138309
0.8184062769510622	53647499.3557004
0.8186108785203001	52929720.11553148
0.8188155312399301	52211761.43055349
0.8190202351227402	51493623.255903445
0.819224990181521	50775305.54671019
0.8194297964290664	54648341.58873727
0.8196346538781738	61289884.46032991
0.8198395625416434	67933087.71763782
0.8200445224322789	74577951.77576284
0.820249533562887	81224477.04990044
0.8204545959462778	86490888.32387365
0.8206597095952644	89534685.62483263
0.8208648745226633	92579243.87511918
0.8210700907412941	95624563.26496783
0.8212753582639793	98670643.98466085
0.8214806771035456	101476796.8805751
0.8216860472728215	102800711.71317342
0.8218914687846397	104124957.52447996
0.822096941651836	105449534.39724
0.822302465887249	106774442.41421746
0.8225080415037209	108099681.65819988
0.8227136685140968	109281548.58354425
0.8229193469312254	110447397.61040081
0.8231250767679583	111613538.09951448
0.8233308580371503	112779970.1237498
0.8235366907516598	113946693.75599203
0.8237425749243477	115230495.10305983
0.8239485105680789	116576516.05147289
0.824154497695721	117922873.5051222
0.824360536320145	119269567.54813516
0.8245666264542252	120616598.26465882
0.8247727681108388	121728416.10812765
0.8249789613028664	122503160.50140038
0.8251852060431922	123278098.5807721
0.825391502344703	124053230.39466332
0.8255978502202894	124828555.9915087
0.8258042496828445	125631206.16994597
0.8260107007452654	126565819.40989694
0.8262172034204517	127500666.30315696
0.8264237577213068	128435746.90814053
0.8266303636607373	129371061.28327574
0.8268370212516525	130306609.4870043
0.8270437305069654	131115264.31107448
0.8272504914395923	131914187.12917629
0.8274573040624523	132713309.6779828
0.8276641683884679	133512632.00742583
0.8278710844305652	134312154.16745216
0.8280780522016729	135101236.14687586
0.8282850717147234	135885651.84455088
0.8284921429826521	136670263.64614946
0.8286992660183978	137455071.6006991
0.8289064408349024	138240075.7572368
0.8291136674451112	139073852.18149242
0.8293209458619727	139969088.97277373
0.8295282760984382	140864549.57325166
0.829735658167463	141760234.03888077
0.8299430920820048	142656142.42562512
0.8301505778550254	143527765.91501716
0.8303581154994891	144301785.21522593
0.8305657050283641	145075998.02026054
0.8307733464546212	145850404.37849578
0.8309810397912352	146625004.33832186
0.8311887850511829	147399797.94813636
0.8313965822474458	148354139.35826442
0.8316044313930077	149317044.126352
0.8318123325008561	150280189.6206325
0.8320202855839813	151243575.90128613
0.8322282906553774	152207203.02850997
0.8324363477280413	153231127.91401565
0.8326444568149735	154279487.4572845
0.8328526179291771	155328109.09043795
0.8330608310836596	156376992.8790013
0.8332690962914304	157426138.88851038
0.8334774135655034	158318332.4762647
0.833685782918895	159035135.12047574
0.8338942043646247	159752116.9653474
0.834102677915716	160469278.0556808
0.834311203585195	161186618.4362862
0.8345197813860912	161941253.78682324
0.8347284113314379	162821012.49396664
0.8349370934342709	163700991.14078635
0.8351458277076294	164581189.78226668
0.8353546141645565	165461608.47340885
0.8355634528180977	166342247.26922345
0.8357723436813022	166954785.51928
0.8359812867672226	167564163.8268719
0.8361902820889144	168173694.4790404
0.8363993296594368	168783377.51387215
0.8366084294918518	169393212.96946278
0.8368175815992247	170067367.64250103
0.8370267859946247	170763790.5449311
0.8372360426911234	171460387.55308658
0.8374453517017962	172157158.71049398
0.8376547130397217	172854104.0606907
0.8378641267179816	173542981.0154887
0.8380735927496613	174223851.356165
0.8382831111478488	174904891.91442603
0.8384926819256358	175586102.73282626
0.8387023050961173	176267483.8539317
0.8389119806723914	176911821.60194954
0.8391217086675596	177451588.87095433
0.8393314890947265	177991491.08177593
0.8395413219670003	178531528.26815033
0.8397512072974922	179071700.46382165
0.8399611450993165	179604813.75536707
0.8401711353855914	179780811.479538
0.8403811781694378	179956853.20313993
0.8405912734639802	180132938.93717283
0.8408014212823464	180309068.6926393
0.8410116216376671	180485242.4805446
0.8412218745430766	181153140.2924632
0.8414321800117124	181964264.9799032
0.8416425380567154	182775592.44851542
0.8418529486912297	183587122.748995
0.8420634119284025	184398855.932049
0.8422739277813847	185523031.6332339
0.8424844962633302	186922583.5686453
0.842695117387396	188322485.39203873
0.8429057911667428	189722737.1908881
0.8431165176145345	191123339.05268785
0.8433272967439382	192044068.61345288
0.8435381285681244	191793632.631641
0.8437490131002665	191543134.0408337
0.8439599503535415	191292572.8253789
0.84417094034113	191041948.96962005
0.8443819830762154	190802238.3380621
0.8445930785719846	190783577.82306403
0.8448042268416277	190764912.6429372
0.8450154278983382	190746242.79651535
0.8452266817553128	190727568.2826319
0.8454379884257517	190708889.10011998
0.8456493479228583	191676347.64614862
0.845860760259839	192881522.99823308
0.846072225449904	194086999.64415553
0.8462837435062666	195292777.65923974
0.8464953144421433	196498857.1188284
0.8467069382707537	197552130.07661778
0.8469186150053215	198486323.35198224
0.847130344659073	199420750.1756658
0.8473421272452377	200355410.60605437
0.8475539627770492	201290304.7015515
0.8477658512677435	202058446.81144395
0.8479777927305605	202472208.79255834
0.8481897871787432	202886074.2141679
0.848401834625538	203300043.10213307
0.8486139350841944	203714115.48231998
0.8488260885679657	204051407.41235712
0.8490382950901076	203451595.38640118
0.8492505546638802	202851633.4074384
0.8494628673025462	202251521.4379811
0.8496752330193721	201651259.44053057
0.8498876518276269	201050847.37758148
0.8501001237405839	194773351.31567624
0.8503126487715191	187361070.17105034
0.850525226933712	179946935.9561424
0.8507378582404455	172530948.2076808
0.8509505427050057	165113106.46227777
0.8511632803406821	157975439.3002083
0.8513760711607672	151029125.9720904
0.8515889151785576	144081076.06562963
0.8518018124073523	137131289.1466981
0.8520147628604541	130179764.78104094
0.8522277665511693	127325836.17824103
0.8524408234928071	132052416.15261772
0.8526539336986805	136780177.7719893
0.8528670971821053	141509121.331766
0.8530803139564007	146239247.1274271
0.8532935840348901	151074481.85176128
0.8535069074308987	156788636.91574433
0.8537202841577566	162504220.51849815
0.8539337142287962	168221233.01715332
0.8541471976573534	173939674.7689296
0.8543607344567677	179659546.13114485
0.8545743246403821	177553032.53088295
0.8547879682215422	174202845.82383323
0.8550016652135977	170851821.5701072
0.8552154156299011	167499959.56031752
0.8554292194838088	164147259.585023
0.8556430767886797	161775119.96641746
0.855856987557877	159998266.58107132
0.8560709518047664	158220968.98237997
0.8562849695427177	156443227.0592883
0.8564990407851035	154665040.70071533
0.8567131655452999	152463727.6793106
0.8569273438366862	149569285.5760764
0.8571415756726455	146674119.86231586
0.8573558610665638	143778230.35712585
0.8575702000318304	140881616.8795627
0.8577845925818384	138961475.06420428
0.857999038729984	143144778.27946842
0.8582135384896665	147329127.32053542
0.858428091874289	151514522.4488629
0.8586426988972576	155700963.9259714
0.8588573595719821	159888452.01345056
0.8590720739118751	158067621.44704992
0.8592868419303532	155537813.52158195
0.8595016636408359	153007373.1441326
0.8597165390567462	150476300.15658975
0.8599314681915105	147944594.40079936
0.8601464510585584	144108270.27455458
0.860361487671323	139578840.69627285
0.8605765780432408	135048278.76059785
0.8607917221877518	130516584.18443522
0.8610069201182988	125983756.68462977
0.8612221718483286	118887663.53325686
0.8614374773912907	108096135.70592262
0.8616528367606385	97301909.99663447
0.8618682499698288	86504985.73091218
0.8620837170323213	75705362.23412523
0.8622992379615795	66664651.451001436
0.8625148127710699	66339226.43774854
0.8627304414742627	66013720.068242304
0.8629461240846313	65688132.32214364
0.8631618606156526	65362463.17910842
0.8633776510808066	65036712.6187875
0.8635934954935769	69054067.30404891
0.8638093938674504	73428445.19564839
0.8640253462159173	77803916.68172063
0.8642413525524714	82180482.03566429
0.8644574128906095	86558141.53094551
0.8646735272438323	88076821.2777274
0.8648896956256433	88265866.95958404
0.8651059180495498	88454959.90286115
0.8653221945290621	88644100.11937389
0.8655385250776946	88833287.62094104
0.8657549097089641	90284627.02368474
0.8659713484363913	93352100.59739666
0.8661878412735006	96420341.03950343
0.866404388233819	99489348.5417203
0.8666209893308775	102559123.29581133
0.8668376445782103	104900936.85342938
0.8670543539893549	104269024.35178901
0.8672711175778525	103636953.87202281
0.8674879353572469	103004725.37463735
0.8677048073410862	102372338.82012732
0.8679217335429217	101739794.16897827
0.8681387139763074	101841833.7188543
0.8683557486548015	101980398.906008
0.8685728375919655	102118998.73445868
0.8687899808013633	102257633.21286617
0.8690071782965637	102396302.34989345
0.869224430091138	101749295.58739075
0.8694417361986609	100782422.4368124
0.8696590966327107	99815307.56794663
0.869876511406869	98847950.92036359
0.8700939805347206	97880352.43361911
0.8703115040298544	97334129.99133222
0.870529081905862	97269802.27304624
0.8707467141763385	97205458.47283071
0.8709644008548827	97141098.58666514
0.8711821419550964	97076722.61052805
0.8713999374905854	97019280.58044696
0.871617787474958	96985811.18946478
0.8718356919218269	96952333.43113482
0.8720536508448075	96918847.30336529
0.8722716642575187	96885352.80406381
0.8724897321735832	96851849.93113752
0.8727078546066265	98599177.99860041
0.8729260315702784	100374035.30592588
0.873144263078171	102149336.32757628
0.8733625491439405	103925081.17448226
0.8735808897812266	105701269.95760067
0.8737992850036719	105825172.60401638
0.874017734824923	105363736.37042165
0.8742362392586293	104902184.7777687
0.874454798318444	104440517.79721761
0.8746734120180236	103978735.39992142
0.8748920803710283	103529166.94503446
0.875110803391121	103091875.95815593
0.8753295810919689	102654475.64853042
0.875548413487242	102216965.98882751
0.8757673005906139	101779346.95170966
0.8759862424157616	102460989.67917158
0.8762052389763657	106381756.12196073
0.8764242902861098	110303502.75635786
0.8766433963586814	114226229.82741466
0.8768625572077712	118149937.58024041
0.8770817728470732	122030081.76182728
0.8773010432902849	122433273.95807768
0.8775203685511077	122836566.95237774
0.8777397486432454	123239960.76992585
0.8779591835804065	123643455.43592885
0.8781786733763015	124047050.97559781
0.8783982180446457	121598881.92649437
0.878617817599157	118301724.15800007
0.8788374720535569	115003742.10006517
0.8790571814215703	111704935.54661663
0.8792769457169257	108405304.29152966
0.879496764953355	107159582.76456186
0.8797166391445934	107760891.20231348
0.8799365683043796	108362349.96717457
0.8801565524464557	108963959.09672688
0.8803765915845676	109565718.62856212
0.8805966857324639	110140331.4910841
0.880816834903897	110646525.85185947
0.881037039112623	111152846.76122524
0.8812572983724012	111659294.2508183
0.8814776126969944	112165868.35228398
0.8816979821001687	112698150.95856011
0.8819184065956938	113832767.95606
0.8821388861973429	114967668.60781045
0.8823594209188923	116102852.98472275
0.882580010774122	117238321.15772876
0.8828006557768155	118374073.19777864
0.8830213559407598	120961968.17599747
0.8832421112797452	123915667.40391125
0.8834629218075651	126870105.05663021
0.8836837875380171	129825281.31876324
0.8839047084849018	132781196.37496229
0.884125684662023	132677270.72976325
0.8843467160831886	130120655.37051088
0.8845678027622095	127563400.85741869
0.8847889447129001	125005507.03069775
0.8850101419490785	122446973.73052059
0.8852313944845657	123615625.50576943
0.885452702333187	132944320.51122843
0.8856740655087704	142275347.6904374
0.8858954840251476	151608707.6264387
0.8861169578961539	160944400.90241966
0.886338487135628	169270083.59706312
0.886560071757412	164126167.54073986
0.8867817117753515	158980965.50540265
0.8870034072032955	153834477.1695543
0.8872251580550963	148686702.21162802
0.8874469643446101	143537640.30995908
0.8876688260856963	142651807.0246934
0.8878907432922178	142648348.4958229
0.8881127159780409	142644889.1023202
0.8883347441570356	142641428.84396914
0.8885568278430749	142637967.72055346
0.8887789670500358	140958755.50476453
0.8890011617917983	138090390.43985763
0.8892234120822464	135221308.2836832
0.8894457179352669	132351508.85697207
0.8896680793647509	129480991.98040198
0.8898904963845921	127653957.0719869
0.8901129690086883	127818825.72298643
0.8903354972509405	127983735.59114867
0.8905580811252535	128148686.68677807
0.8907807206455347	128313679.02018116
0.8910034158256963	128649924.70667583
0.8912261666796527	130516370.85069479
0.8914489732213227	132383283.60625029
0.8916718354646282	134250663.08999652
0.8918947534234944	136118509.41861185
0.8921177271118502	137986822.7088082
0.8923407565436284	139147960.08648127
0.8925638417327644	140193951.9349712
0.8927869826931977	141240205.28142363
0.8930101794388711	142286720.19121256
0.8932334319837308	143333496.7297288
0.8934567403417267	144453743.12349397
0.8936801045268123	145619759.83328995
0.8939035245529441	146786068.04726258
0.8941270004340824	147952667.83828917
0.894350532184191	149119559.27926323
0.8945741198172371	152754003.27480748
0.8947977633471915	160481013.66669145
0.8950214627880284	168209955.81117308
0.8952452181537254	175940830.19118625
0.8954690294582639	183673637.28979903
0.8956928967156286	190908875.9253774
0.8959168199398075	194904335.5026585
0.8961407991447926	198900793.94483492
0.8963648343445789	202898251.50162178
0.896588925553165	206896708.4227956
0.8968130727845534	210896164.95820022
0.8970372760527496	210541590.89685288
0.8972615353717629	209642026.17906547
0.8974858507556059	208742236.57009852
0.8977102222182949	207842222.0137296
0.8979346497738496	206941982.45372105
0.8981591334362931	206218538.12362838
0.8983836732196523	205591721.16657224
0.8986082691379572	204964747.50527725
0.8988329212052417	204337617.10056692
0.8990576294355432	203710329.9132549
0.8992823938429022	202940778.18254286
0.8995072144413631	201959737.94099855
0.8997320912449734	200978452.43939418
0.8999570242677847	199996921.61641464
0.9001820135238516	199015145.4107293
0.9004070590272328	199175124.61833462
0.9006321607919896	205321901.92359227
0.9008573188321878	211470215.92318246
0.9010825331618959	217620067.0012696
0.9013078037951865	223771455.54212725
0.9015331307461353	229924381.9301169
0.9017585140288219	235146802.27669424
0.9019839536573292	240290248.83926782
0.9022094496457435	245434981.2634783
0.9024350020081551	250580999.8708007
0.9026606107586572	255728304.98277327
0.902886275911347	258596965.2414324
0.9031119974803249	260367256.89766836
0.9033377754796951	262137991.12681842
0.903563609923565	263909168.03952497
0.903789500826046	265680787.74646088
0.9040154482012526	264826066.66146058
0.904241452063303	260568362.97373778
0.9044675124263188	256309594.860094
0.9046936293044254	252049762.05442247
0.9049198027117517	247788864.29054743
0.9051460326624297	243750540.50078553
0.9053723191705955	240663514.86403397
0.9055986622503881	237575717.47087616
0.9058250619159507	234487148.1283699
0.9060515181814298	231397806.6435261
0.9062780310609752	228307692.82331324
0.9065046005687405	234532247.66843796
0.906731226718883	241278039.57521403
0.9069579095255627	248025517.929958
0.907184649002944	254774683.15429115
0.907411445165195	261525535.66993725
0.9076382980264862	265070557.08833987
0.907865207600993	267284388.14076227
0.9080921739028933	269498772.65094715
0.9083191969463691	271713710.7572592
0.9085462767456058	273929202.59809893
0.9087734133147922	274600941.12679464
0.9090006066681211	273489153.6492778
0.909227856819788	272377088.2248931
0.9094551637839932	271264744.7841507
0.9096825275749393	270152123.2575485
0.9099099482068329	270038505.1788135
0.9101374256938848	273476322.8406668
0.9103649600503083	276914999.9569339
0.9105925512903209	280354536.74247944
0.9108201994281437	283794933.41222495
0.9110479044780008	287236190.181134
0.9112756664541204	293319203.9230737
0.911503485370734	299464188.07739043
0.9117313612420768	305610708.47774583
0.9119592940823873	311758765.5081994
0.912187283905908	317908359.55291253
0.9124153307268845	319708899.23969555
0.9126434345595664	319930878.5527285
0.9128715954182063	320152913.3605895
0.9130998133170609	320375003.67715263
0.9133280882703902	320597149.51629484
0.913556420292458	320220765.74739283
0.9137848093975312	319226958.18467444
0.9140132555998806	318232902.1700654
