#wavelength	surface flux
0.8	1683144.5037148397
0.8002000000000001	1707962.6600911445
0.8004000500000003	1733618.7918345598
0.8006001500125003	1759289.7393152243
0.8008003000500035	1784967.1045327608
0.8010005001250161	1810650.8890916137
0.8012007502500472	1836341.0945965692
0.8014010504376099	1861052.988640056
0.8016014007002193	1885441.2048474508
0.8018018010503944	1909835.5181088974
0.8020022515006572	1934235.9299486703
0.8022027520635323	1958642.441891382
0.8024033027515483	1984316.6787449517
0.8026039035772362	2011233.6758057768
0.8028045545531306	2038157.4021158689
0.8030052556917691	2065087.859357551
0.803206007005692	2092025.04921352
0.8034068085074435	2118925.5928319343
0.8036076602095705	2145711.2595833233
0.8038085621246229	2172503.622751379
0.8040095142651542	2199302.684010243
0.8042105166437206	2226108.445034413
0.8044115692728815	2252919.688108973
0.8046126721651998	2279685.1858881605
0.8048138253332411	2306457.3750417707
0.8050150287895745	2333236.257242695
0.805216282546772	2360021.8341641617
0.8054175866174087	2386814.1074798447
0.8056189410140631	2413414.0059884507
0.8058203457493168	2439964.2039364083
0.8060218008357541	2466521.039433819
0.8062233062859632	2493084.514140117
0.8064248621125346	2519654.6297150734
0.806626468328063	2547557.57048344
0.8068281249451449	2576606.5174618657
0.8070298319763813	2605662.726677072
0.8072315894343755	2634726.1999445595
0.8074333973317341	2663796.9390803752
0.8076352556810671	2691202.660883908
0.8078371644949874	2714589.7648411333
0.8080391237861113	2737982.7155743535
0.8082411335670578	2761381.5145452423
0.8084431938504498	2784786.1632158984
0.8086453046489125	2808034.7058108742
0.8088474659750746	2828273.7069334094
0.8090496778415686	2848517.7678062515
0.809251940261029	2868766.889694298
0.8094542532460944	2889021.0738628334
0.8096566168094059	2909280.321577388
0.8098590309636085	2933496.071660928
0.8100614957213493	2958642.741906795
0.8102640110952797	2983795.6988202273
0.8104665770980536	3008954.9439728977
0.8106691937423283	3034120.478936866
0.8108718610407639	3059753.159999458
0.8110745790060241	3085744.6406442043
0.8112773476507757	3111742.619159134
0.8114801669876885	3137747.0971686863
0.8116830370294355	3163758.0762977256
0.8118859577886929	3188150.336204253
0.8120889292781401	3209173.03708221
0.8122919515104597	3230200.993635385
0.8124950244983374	3251234.207177699
0.8126981482544621	3272272.6790233953
0.8129013227915257	3294134.6188632855
0.8131045481222237	3325370.635187533
0.8133078242592543	3356614.4605158656
0.8135111512153191	3387866.0968005215
0.813714529003123	3419125.5459942524
0.8139179576353739	3450392.8100502873
0.8141214371247829	3495474.749953237
0.8143249674840641	3543245.3425361067
0.814528548725935	3591027.8777670935
0.8147321808631167	3638822.358631952
0.8149358639083326	3686628.788117013
0.8151395978743097	3727774.0414208258
0.8153433827737784	3764420.9359237324
0.8155472186194719	3801076.992150252
0.8157511054241268	3837742.212390821
0.815955043200483	3874416.598936476
0.8161590319612831	3914470.7585207024
0.8163630717192736	3960711.153424956
0.8165671624872033	4006963.108427884
0.8167713042778252	4053226.626419608
0.8169754971038948	4099501.7102908534
0.8171797409781707	4137963.0005762666
0.8173840359134155	4113961.6149028293
0.8175883819223938	4089954.2288830015
0.8177927790178745	4065940.841016655
0.8179972272126291	4041921.4498033356
0.8182017265194322	4017896.053742237
0.8184062769510622	4038069.728631721
0.8186108785203001	4065050.9540683688
0.8188155312399301	4092038.9248113395
0.8190202351227402	4119033.6425470263
0.819224990181521	4146035.10896213
0.8194297964290664	4219905.843833215
0.8196346538781738	4322041.346041329
0.8198395625416434	4424202.382124955
0.8200445224322789	4526388.958467646
0.820249533562887	4628601.081454391
0.8204545959462778	4711997.160432814
0.8206597095952644	4765089.046652854
0.8208648745226633	4818194.205844492
0.8210700907412941	4871312.641325919
0.8212753582639793	4924444.356416162
0.8214806771035456	4973364.733558526
0.8216860472728215	4996268.529147598
0.8218914687846397	5019178.050685569
0.822096941651836	5042093.299603936
0.822302465887249	5065014.27733452
0.8225080415037209	5087940.985309548
0.8227136685140968	5110928.830771687
0.8229193469312254	5133928.712912638
0.8231250767679583	5156934.345024129
0.8233308580371503	5179945.728543637
0.8235366907516598	5202962.864909042
0.8237425749243477	5260716.460471067
0.8239485105680789	5336892.3785811
0.824154497695721	5413087.340670613
0.824360536320145	5489301.351500662
0.8245666264542252	5565534.4158334145
0.8247727681108388	5630419.09133951
0.8249789613028664	5679039.664279094
0.8251852060431922	5727672.392361955
0.825391502344703	5776317.2786268145
0.8255978502202894	5824974.326113285
0.8258042496828445	5873743.037995808
0.8260107007452654	5923007.171465416
0.8262172034204517	5972283.620968342
0.8264237577213068	6021572.389583657
0.8266303636607373	6070873.480391146
0.8268370212516525	6120186.896471313
0.8270437305069654	6151395.66157205
0.8272504914395923	6181196.504674067
0.8274573040624523	6211004.797986866
0.8276641683884679	6240820.543372967
0.8278710844305652	6270643.742695451
0.8280780522016729	6313842.83336826
0.8282850717147234	6363163.4109477615
0.8284921429826521	6412496.3186716065
0.8286992660183978	6461841.559622422
0.8289064408349024	6511199.13688344
0.8291136674451112	6557203.518627152
0.8293209458619727	6598975.630587528
0.8295282760984382	6640758.185575839
0.829735658167463	6682551.186202946
0.8299430920820048	6724354.635080156
0.8301505778550254	6766916.283912642
0.8303581154994891	6812473.05875672
0.8305657050283641	6858041.222794556
0.8307733464546212	6903620.778873364
0.8309810397912352	6949211.729841268
0.8311887850511829	6994814.078546823
0.8313965822474458	7066949.192365562
0.8316044313930077	7140333.33678171
0.8318123325008561	7213735.827234031
0.8320202855839813	7287156.668308929
0.8322282906553774	7360595.864594102
0.8324363477280413	7414181.919204607
0.8326444568149735	7459781.173939409
0.8328526179291771	7505391.828487842
0.8330608310836596	7551013.885699981
0.8332690962914304	7596647.3484263625
0.8334774135655034	7631670.467767881
0.833685782918895	7654837.497373283
0.8338942043646247	7678010.318736071
0.834102677915716	7701188.933304217
0.834311203585195	7724373.342525987
0.8345197813860912	7754837.046122178
0.8347284113314379	7809791.641017054
0.8349370934342709	7864759.974560621
0.8351458277076294	7919742.050187509
0.8353546141645565	7974737.871333393
0.8355634528180977	8029747.441434542
0.8357723436813022	8064056.35946876
0.8359812867672226	8098118.084618018
0.8361902820889144	8132188.325198546
0.8363993296594368	8166267.083339229
0.8366084294918518	8200354.361169458
0.8368175815992247	8268506.055002017
0.8370267859946247	8348403.986507969
0.8372360426911234	8428321.892496772
0.8374453517017962	8508259.777962064
0.8376547130397217	8588217.647898713
0.8378641267179816	8655235.641589602
0.8380735927496613	8709410.834063249
0.8382831111478488	8763599.570334978
0.8384926819256358	8817801.853790749
0.8387023050961173	8872017.68781743
0.8389119806723914	8924548.066471137
0.8391217086675596	8972310.010292107
0.8393314890947265	9020083.894598998
0.8395413219670003	9067869.722376969
0.8397512072974922	9115667.496611917
0.8399611450993165	9163364.029733103
0.8401711353855914	9205451.484365702
0.8403811781694378	9247549.460861946
0.8405912734639802	9289657.961852327
0.8408014212823464	9331776.989967974
0.8410116216376671	9373906.547840644
0.8412218745430766	9418220.604302755
0.8414321800117124	9463178.279552681
0.8416425380567154	9508147.194221443
0.8418529486912297	9553127.351118881
0.8420634119284025	9598118.753055507
0.8422739277813847	9692589.549883446
0.8424844962633302	9830667.321502294
0.842695117387396	9968779.61256387
0.8429057911667428	10106926.431698216
0.8431165176145345	10245107.787537415
0.8433272967439382	10342265.462039173
0.8435381285681244	10339295.025643375
0.8437490131002665	10336323.846638478
0.8439599503535415	10333351.924838832
0.84417094034113	10330379.260058735
0.8443819830762154	10330880.699766573
0.8445930785719846	10401383.367882192
0.8448042268416277	10471903.661664803
0.8450154278983382	10542441.585520849
0.8452266817553128	10612997.143857855
0.8454379884257517	10683570.341084452
0.8456493479228583	10786165.586667823
0.845860760259839	10896493.526443614
0.846072225449904	11006849.048204347
0.8462837435062666	11117232.158845544
0.8464953144421433	11227642.865264464
0.8467069382707537	11313820.719014635
0.8469186150053215	11381109.837368593
0.847130344659073	11448415.778002158
0.8473421272452377	11515738.545120815
0.8475539627770492	11583078.142931322
0.8477658512677435	11643459.842460424
0.8479777927305605	11689046.709952412
0.8481897871787432	11734644.97416126
0.848401834625538	11780254.637936186
0.8486139350841944	11825875.704127029
0.8488260885679657	11863149.519606657
0.8490382950901076	11798543.604507161
0.8492505546638802	11733921.537928857
0.8494628673025462	11669283.31583393
0.8496752330193721	11604628.934183385
0.8498876518276269	11539958.388937514
0.8501001237405839	11051255.351055926
0.8503126487715191	10477789.032014566
0.850525226933712	9904179.346393764
0.8507378582404455	9330426.258351563
0.8509505427050057	8756529.732037017
0.8511632803406821	8311701.88917759
0.8513760711607672	7955249.506390855
0.8515889151785576	7598708.010507869
0.8518018124073523	7242077.37925121
0.8520147628604541	6885357.590336948
0.8522277665511693	6781183.635110913
0.8524408234928071	7144201.556352029
0.8526539336986805	7507310.232073552
0.8528670971821053	7870509.684964028
0.8530803139564007	8233799.937717299
0.8532935840348901	8647258.28053749
0.8535069074308987	9483748.101537306
0.8537202841577566	10320447.044993076
0.8539337142287962	11157355.163184803
0.8541471976573534	11994472.508405555
0.8543607344567677	12831799.132962765
0.8545743246403821	13142578.270792538
0.8547879682215422	13369780.100117723
0.8550016652135977	13597038.72990021
0.8552154156299011	13824354.174340153
0.8554292194838088	14051726.447641373
0.8556430767886797	14213100.911387814
0.855856987557877	14334409.07828438
0.8560709518047664	14455747.57222259
0.8562849695427177	14577116.400784332
0.8564990407851035	14698515.571553249
0.8567131655452999	14807242.694059325
0.8569273438366862	14895183.69521678
0.8571415756726455	14983146.681624541
0.8573558610665638	15071131.658778936
0.8575702000318304	15159138.632177522
0.8577845925818384	15249091.550433874
0.857999038729984	15351084.614398846
0.8582135384896665	15453103.176629787
0.858428091874289	15555147.243501293
0.8586426988972576	15657216.821389487
0.8588573595719821	15759311.91667219
0.8590720739118751	15809827.631403418
0.8592868419303532	15854271.602648476
0.8595016636408359	15898726.684886344
0.8597165390567462	15943192.880894756
0.8599314681915105	15987670.193452183
0.8601464510585584	15898083.358573437
0.860361487671323	15737307.911321279
0.8605765780432408	15576492.270207353
0.8607917221877518	15415636.425183019
0.8610069201182988	15254740.36619747
0.8612221718483286	14930170.499468544
0.8614374773912907	14369619.534778062
0.8616528367606385	13808928.43234656
0.8618682499698288	13248097.157139095
0.8620837170323213	12687125.67411292
0.8622992379615795	12226368.28870009
0.8625148127710699	12262110.897384405
0.8627304414742627	12297862.441720894
0.8629461240846313	12333622.923943473
0.8631618606156526	12369392.346286612
0.8633776510808066	12405170.710985327
0.8635934954935769	12644092.844552925
0.8638093938674504	12899726.037596863
0.8640253462159173	13155423.138939055
0.8642413525524714	13411184.164556576
0.8644574128906095	13667009.130430447
0.8646735272438323	13869080.048761886
0.8648896956256433	14046174.621837227
0.8651059180495498	14223313.468555847
0.8653221945290621	14400496.599985978
0.8655385250776946	14577724.027199214
0.8657549097089641	14763407.630706657
0.8659713484363913	14959906.697137259
0.8661878412735006	15156454.888334561
0.866404388233819	15353052.216579635
0.8666209893308775	15549698.69415668
0.8668376445782103	15716664.005335832
0.8670543539893549	15762326.496886395
0.8672711175778525	15808000.404059876
0.8674879353572469	15853685.7297101
0.8677048073410862	15899382.476691755
0.8679217335429217	15945090.647860184
0.8681387139763074	16073927.914377088
0.8683557486548015	16206926.464211142
0.8685728375919655	16339958.263682818
0.8687899808013633	16473023.321104072
0.8690071782965637	16606121.644789854
0.869224430091138	16638625.502241366
0.8694417361986609	16630192.185127497
0.8696590966327107	16621756.75968435
0.869876511406869	16613319.225384843
0.8700939805347206	16604879.581701765
0.8703115040298544	16622529.493234903
0.870529081905862	16670014.13852388
0.8707467141763385	16717510.654974166
0.8709644008548827	16765019.045553561
0.8711821419550964	16812539.313230574
0.8713999374905854	16859876.446830533
0.871617787474958	16906552.353240397
0.8718356919218269	16953239.928626906
0.8720536508448075	16999939.175907265
0.8722716642575187	17046650.097999416
0.8724897321735832	17093372.697822113
0.8727078546066265	17223042.040707488
0.8729260315702784	17354005.515287317
0.873144263078171	17485001.730735652
0.8733625491439405	17616030.69523786
0.8735808897812266	17747092.416981246
0.8737992850036719	17786153.39756678
0.874017734824923	17792627.38864985
0.8742362392586293	17799102.99823069
0.874454798318444	17805580.22671392
0.8746734120180236	17812059.07450427
0.8748920803710283	17838473.57498306
0.875110803391121	17884926.48277953
0.8753295810919689	17931391.003802978
0.875548413487242	17977867.140956677
0.8757673005906139	18024354.89714467
0.8759862424157616	18144337.648876082
0.8762052389763657	18476978.005699556
0.8764242902861098	18809701.52261201
0.8766433963586814	19142508.22040378
0.8768625572077712	19475398.1198701
0.8770817728470732	19804853.728442594
0.8773010432902849	19859753.132606734
0.8775203685511077	19914666.26162199
0.8777397486432454	19969593.118919432
0.8779591835804065	20024533.707931265
0.8781786733763015	20079488.03209028
0.8783982180446457	19968067.669805754
0.878617817599157	19807122.00602376
0.8788374720535569	19646136.105825897
0.8790571814215703	19485109.959153023
0.8792769457169257	19324043.555943478
0.879496764953355	19308260.498314198
0.8797166391445934	19423128.96729771
0.8799365683043796	19538026.153398477
0.8801565524464557	19652952.063795768
0.8803765915845676	19767906.705670767
0.8805966857324639	19873948.428918
0.880816834903897	19957557.90008719
0.881037039112623	20041188.273624204
0.8812572983724012	20124839.554754596
0.8814776126969944	20208511.748705305
0.8816979821001687	20290132.61558249
0.8819184065956938	20322992.888706792
0.8821388861973429	20355861.376899414
0.8823594209188923	20388738.08221405
0.882580010774122	20421623.006705
0.8828006557768155	20454516.152427092
0.8830213559407598	20645241.86341105
0.8832421112797452	20875709.679859836
0.8834629218075651	21106235.11326259
0.8836837875380171	21336818.178023767
0.8839047084849018	21567458.88855117
0.884125684662023	21614252.929410532
0.8843467160831886	21513682.835694686
0.8845678027622095	21413087.599455412
0.8847889447129001	21312467.21440706
0.8850101419490785	21211821.674262464
0.8852313944845657	21350221.31356298
0.885452702333187	22011951.206713732
0.8856740655087704	22673846.532337673
0.8858954840251476	23335907.331792843
0.8861169578961539	23998133.64644757
0.886338487135628	24584031.732569866
0.886560071757412	24152142.37507186
0.8867817117753515	23720145.045234486
0.8870034072032955	23288039.716064464
0.8872251580550963	22855826.360562652
0.8874469643446101	22423504.951721698
0.8876688260856963	22420592.790274672
0.8878907432922178	22506574.016350307
0.8881127159780409	22592576.7377324
0.8883347441570356	22678600.959794946
0.8885568278430749	22764646.687912915
0.8887789670500358	22693411.153629247
0.8890011617917983	22510571.368478835
0.8892234120822464	22327685.87338205
0.8894457179352669	22144754.65691164
0.8896680793647509	21961777.70763697
0.8898904963845921	21807439.10800917
0.8901129690086883	21707791.929910567
0.8903354972509405	21608119.840017457
0.8905580811252535	21508422.8321018
0.8907807206455347	21408700.8999343
0.8910034158256963	21299731.208817884
0.8912261666796527	21108310.19052611
0.8914489732213227	20916841.316979706
0.8916718354646282	20725324.576214727
0.8918947534234944	20533759.956264745
0.8921177271118502	20342147.445159893
0.8923407565436284	19506309.815265547
0.8925638417327644	18565180.406086836
0.8927869826931977	17623815.714555513
0.8930101794388711	16682215.681851372
0.8932334319837308	15740380.249139205
0.8934567403417267	15133861.05669917
0.8936801045268123	14735696.115987806
0.8939035245529441	14337431.634041533
0.8941270004340824	13939067.585974617
0.894350532184191	13540603.946895787
0.8945741198172371	13752646.762892615
0.8947977633471915	14977359.922958855
0.8950214627880284	16202379.26131506
0.8952452181537254	17427704.85450513
0.8954690294582639	18653336.779094227
0.8956928967156286	19870141.871498387
0.8959168199398075	21027979.690016106
0.8961407991447926	22186106.967988744
0.8963648343445789	23344523.77778085
0.896588925553165	24503230.19177475
0.8968130727845534	25662226.282372292
0.8970372760527496	25838544.602503065
0.8972615353717629	25891917.970375773
0.8974858507556059	25945304.681590453
0.8977102222182949	25998704.73948292
0.8979346497738496	26052118.147389892
0.8981591334362931	26326357.052175745
0.8983836732196523	26721421.485906433
0.8986082691379572	27116584.685745295
0.8988329212052417	27511846.676384117
0.8990576294355432	27907207.482520938
0.8992823938429022	28158125.096419986
0.8995072144413631	28194189.805964094
0.8997320912449734	28230263.531685576
0.8999570242677847	28266346.27583848
0.9001820135238516	28302438.040677425
0.9004070590272328	28403457.152502365
0.9006321607919896	28844825.521490365
0.9008573188321878	29286304.23257106
0.9010825331618959	29727893.313329317
0.9013078037951865	30169592.791357834
0.9015331307461353	30611402.694255624
0.9017585140288219	31420603.332150638
0.9019839536573292	32261641.072928105
0.9022094496457435	33102889.073140156
0.9024350020081551	33944347.385353215
0.9026606107586572	34786016.062144056
0.902886275911347	35103908.60866157
0.9031119974803249	35169282.63961084
0.9033377754796951	35234673.01406785
0.903563609923565	35300079.73611845
0.903789500826046	35365502.809849605
0.9040154482012526	35262776.390177995
0.904241452063303	34942180.11465107
0.9044675124263188	34621503.69005534
0.9046936293044254	34300747.09635351
0.9049198027117517	33979910.313503094
0.9051460326624297	33743839.70498133
0.9053723191705955	33869005.71817408
0.9055986622503881	33994203.02287001
0.9058250619159507	34119431.62689213
0.9060515181814298	34244691.53806532
0.9062780310609752	34369982.76421622
0.9065046005687405	34656731.53934391
0.906731226718883	34952557.49356415
0.9069579095255627	35248457.40427256
0.907184649002944	35544431.28995866
0.907411445165195	35840479.16911649
0.9076382980264862	36415151.238294184
0.907865207600993	37105648.34853489
0.9080921739028933	37796318.083052956
0.9083191969463691	38487160.485004544
0.9085462767456058	39178175.597556956
0.9087734133147922	39349396.10565627
0.9090006066681211	38920090.67500821
0.909227856819788	38490677.91800304
0.9094551637839932	38061157.80780803
0.9096825275749393	37631530.3175856
0.9099099482068329	37290821.858907804
0.9101374256938848	37266429.72893285
0.9103649600503083	37242031.50092541
0.9105925512903209	37217627.17336097
0.9108201994281437	37193216.744714625
0.9110479044780008	37168800.21346114
0.9112756664541204	38032369.580976345
0.911503485370734	38916480.82123073
0.9117313612420768	39800813.08929518
0.9119592940823873	40685366.44042638
0.912187283905908	41570140.92989564
0.9124153307268845	41592726.892140925
0.9126434345595664	41302314.181411125
0.9128715954182063	41011828.86750392
0.9130998133170609	40721270.93226808
0.9133280882703902	40430640.35754846
0.913556420292458	40312580.36222905
0.9137848093975312	40372540.371420264
0.9140132555998806	40432515.37061376
0.9142417589137806	40492505.36355707
