#wavelength	surface flux
0.428837	28700.575836141004
0.43312537	38197.46798366823
0.43745662370000005	35897.371955021365
0.4418311899370001	36158.26644093095
0.44624950183637	47228.97808891707
0.4507119968547338	62204.09175702343
0.45521911682328114	81238.51313144185
0.4597713079915139	108433.42316247198
0.4643690210714291	114186.13595009176
0.4690127112821433	116494.25674794434
0.47370283839496474	117291.13603028508
0.47843986677891437	115510.19878436765
0.48322426544670355	111613.40515971437
0.48805650810117057	106707.03888834002
0.4929370731821824	97250.54507579657
0.49786644391400414	86565.26321780472
0.5028451083531442	75399.55864698018
0.5078735594366757	65143.042212250184
0.5129522950310424	57037.026312646914
0.5180818179813528	48498.831471163445
0.5232626361611664	41169.87418879893
0.5284952625227781	33928.66817053889
0.5337802151480058	27232.462462115953
0.5391180172994858	21388.19696409641
0.5445091974724807	16316.845885785018
0.5499542894472055	12021.783603650876
0.5554538323416777	8459.357754002347
0.5610083706650945	5584.485955917554
0.5666184543717453	3374.699463233341
0.5722846389154628	1796.4756424789714
0.5780074853046174	778.8977613539458
0.5837875601576636	217.25172979744045
0.5896254357592402	19.455797576650344
0.5955216901168326	382.13093806821837
0.6014769070180009	1549.2449027032733
0.607491676088181	4136.1047195492365
0.6135665928490629	8959.370902951083
0.6197022587775535	16989.638411046046
0.625899281365329	29332.38329963955
0.6321582741789823	47180.10131310682
0.6384798569207721	71780.53768597156
0.6448646554899798	104103.26228304992
0.6513133020448797	145917.63856094703
0.6578264350653285	197421.79475492652
0.6644046994159818	258044.9293116065
0.6710487464101416	222314.07166751268
0.677759233874243	410854.1464648413
0.6845368262129854	500688.92588921357
0.6913821944751153	573284.8401862478
0.6982960164198664	657974.9594973782
0.7052789765840651	710833.4305143621
0.7123317663499058	734800.8951614087
0.7194550840134049	687156.9000930882
0.7266496348535388	627016.6727485376
0.7339161312020743	523819.58902564633
0.741255292514095	387702.0777432502
0.748667845439236	236478.6171784021
0.7561545238936284	99768.79858784107
0.7637160691325647	14131.978118981015
0.7713532298238903	10789.54740988146
0.7790667621221293	105073.7454026952
0.7868574297433505	364144.64471782
0.7947260040407841	387442.6483477376
0.8026732640811919	1210123.72552631
0.8106999967220039	1731429.9251358202
0.8188069966892239	2424959.8695354145
0.8269950666561161	3395442.5930671454
0.8352650173226772	4383079.599563062
0.8436176674959041	5598461.838953922
0.852053844170863	5468656.213659786
0.8605743826125718	8803574.69137776
0.8691801264386976	10446494.767452657
0.8778719277030844	12331686.342024542
0.8866506469801153	14011560.813033069
0.8955171534499164	11572305.065199872
0.9044723249844157	19519056.241151266
0.9135170482342599	21584566.40622427
0.9226522187166025	22227376.160217006
0.9318787409037684	9270005.029878035
0.941197528312806	14682712.45759975
0.9506095035959342	10710438.597812204
0.9601155986318936	12450986.212145142
0.9697167546182125	15610899.811723333
0.9794139221643946	23213902.942653872
0.9892080613860387	30189191.769390617
0.9991001419998989	34303293.41049301
1.0090911434198981	41143431.14197936
1.019182054854097	50772990.13793782
1.0293738754026378	53035403.88396392
1.0396676141566643	62625309.91861865
1.050064290298231	65778087.8479614
1.0605649332012133	71741139.80176318
1.0711705825332256	73235180.8569107
1.0818822883585577	77468992.01365933
1.0927011112421434	53381041.152953
1.1036281223545648	16610231.589458471
1.1146644035781104	11527810.984559156
1.1258110476138916	7616489.230090871
1.1370691580900303	12127430.922157949
1.1484398496709307	15519870.73649797
1.1599242481676402	7907453.417893835
1.1715234906493166	10994452.888387855
1.1832387255558097	33558381.8372322
1.1950711128113678	54186353.75147911
1.2070218239394814	67978589.69049373
1.2190920421788762	81124292.79124548
1.2312829626006652	93756551.93598083
1.2435957922266716	90943661.61084339
1.2560317501489384	100771100.05147858
1.2685920676504279	101573033.42803682
1.281277988326932	92293920.95568207
1.2940907682102014	74611497.36103132
1.3070316758923035	74068458.39816397
1.3201019926512265	63030447.98825344
1.3333030125777388	10982369.891136916
1.3466360427035162	1111122.9535436174
1.3601024031305513	503828.2281566199
1.373703427161857	893402.8203650921
1.3874404614334754	217667.70694376936
1.4013148660478103	1070868.2330328661
1.4153280147082883	467436.1802531066
1.4294812948553712	1223680.4000514653
1.443776107803925	2118377.258166565
1.4582138688819641	4704777.049934642
1.4727960075707838	5947252.847432104
1.4875239676464918	7134235.112863212
1.5023992073229566	13247131.795910787
1.5174231993961862	19616473.621341523
1.532597431390148	29207949.088113446
1.5479234057040496	38785294.53484809
1.5634026397610903	47130978.786195695
1.579036666158701	56239389.860335544
1.594827032820288	64199098.79388588
1.610775303148491	61152648.80420127
1.6268830561799759	49902129.257976495
1.6431518867417756	58651934.71532964
1.6595834056091934	56833117.39751741
1.6761792396652853	41558460.734421626
1.6929410320619382	24788310.60047305
1.7098704423825577	26573285.525757365
1.7269691468063835	24846656.384367514
1.744238838274447	14756575.729886781
1.7616812266571917	8028163.930200273
1.7792980389237634	2922559.6782307755
1.7970910193130012	1552195.803391418
1.815061929506131	376513.23662964586
1.8332125488011928	359162.0559316022
1.8515446742892046	893150.2983486528
1.8700601210320964	684642.3476057602
1.8887607222424174	2195667.583715383
1.9076483294648416	1411095.9630883536
1.92672481275949	429227.7892972708
1.9459920608870853	1336733.4408539054
1.9654519814959561	2404006.1210961407
1.9851065013109155	5849279.629731491
2.0049575663240247	9007754.18618219
2.025007141987265	15422288.343648808
2.0452572134071376	22346206.56866192
2.065709785541209	30583735.008410756
2.086366883396621	32765924.374464802
2.107230552230587	32106075.263214268
2.1283028577528933	32188176.75878208
2.1495858863304225	25055119.498432495
2.1710817451937263	20269132.756191995
2.1927925626456637	10351140.15064845
2.2147204882721203	5160382.497377134
2.2368676931548412	3121235.8084200127
2.25923637008639	2304885.7108387416
2.281828733787254	2249817.644185938
2.3046470211251266	3026565.489661355
2.327693491336378	1442321.4151679843
2.3509704262497415	1475851.3740387408
2.374480130512239	1175425.788640869
2.3982249318173614	2033524.750441283
2.4222071811355352	2769991.1917850636
2.4464292529468903	3095823.3401132245
2.4708935454763594	2155334.878812726
2.4956024809311232	1045916.0327448986
2.5205585057404343	454895.6756100502
2.5457640907978387	212406.01829892
2.5712217317058172	347530.8527069595
2.5969339490228753	106328.68932657233
2.622903288513104	180183.78377668615
2.6491323213982354	842470.6540854697
2.6756236446122177	96164.94138345022
2.7023798810583397	403528.37844362564
2.729403679868923	833795.8927357572
2.7566977166676123	433480.32950613747
2.7842646938342885	427154.66606900527
2.812107340772631	322137.77963902254
2.8402284141803578	872829.6043764678
2.8686306983221614	815019.5448330572
2.897317005305383	1195027.881267773
2.926290175358437	1781933.3191371528
2.9555530771120213	1943304.703106961
2.9851086078831415	2706989.944041582
3.014959693961973	3715823.8593910937
3.0451092909015927	3425417.9952357872
3.0755603838106085	3287133.264009369
3.1063159876487147	1793504.735371728
3.137379147525202	1182921.9272251683
3.168752939000454	455995.01803939155
3.200440468390459	375632.6373107568
3.232444873074363	528561.0238184464
3.264769321805107	598040.6122604683
3.297417015023158	1178549.3644405059
3.330391185173389	271292.8435554593
3.3636950970251234	762015.0847197006
3.397332047995375	864243.575669367
3.4313053684753285	607523.0775035457
3.465618422160081	707607.6355335014
3.5002746063816828	999330.4734528892
3.5352773524454997	1456402.5744688134
3.570630125969955	2135631.9353031665
3.606336427229654	2790806.937397028
3.6423997915019504	3771450.896294393
3.67882378941697	4991335.282450141
3.7156120273111397	5817738.317488322
3.7527681475842516	6964889.41174572
3.7902958290600934	6961838.64817258
3.8281987873506953	9701259.214862837
3.8664807752242023	9842586.905401222
3.905145582976444	10807875.84192828
3.9441970388062084	12138592.724322647
3.983639009194271	12784114.827557
4.023475399286213	13413840.616752729
4.063710153279075	13691441.905642163
4.1043472548118665	12816415.57875706
4.145390727359985	11660418.730330171
4.186844634633585	10768181.889922759
4.2287130809799205	9412970.131771049
4.27100021178972	9006512.230293075
4.313710213907617	8128367.7597501045
4.356847316046694	7644899.715196546
4.40041578920716	6494555.043664888
4.444419947099232	5368444.628927701
4.488864146570225	5124382.799525707
4.533752788035927	4292884.024360414
4.579090315916286	4383804.262922927
4.624881219075449	4176865.4786451138
4.671130031266204	3989007.2451581345
4.717841331578866	3857948.0696219075
4.765019744894654	4295567.772873572
4.812669942343601	3736984.3608398885
4.8607966417670365	4026995.4617433404
4.9094046081847065	3319584.739566033
4.958498654266554	2604737.2566063968
5.008083640809219	2970471.6598826176
5.058164477217312	3304109.236485059
5.108746121989485	2357804.1726966435
5.15983358320938	1718924.4280754456
5.211431919041474	1115061.7076946436
5.263546238231889	1628842.037210832
5.316181700614208	1672203.7384458731
5.36934351762035	1058894.9702463439
5.423036952796553	837859.0570476014
5.4772673223245185	733593.0973172762
5.532039995547764	902816.7801192282
5.587360395503242	557130.4688322769
5.643233999458275	557262.3258234888
5.6996663394528575	698053.5096972702
5.756663002847385	498500.0660667223
5.814229632875859	613938.5853694056
5.872371929204618	510531.15097680286
5.931095648496664	495344.2810804926
5.990406604981631	588783.5540883502
6.050310671031448	507991.8045621885
6.110813777741763	684414.3851418297
6.17192191551918	546591.823552714
6.233641134674372	1431965.0233070815
6.295977546021115	1688241.3782691744
6.358937321481327	899503.0324668149
6.42252669469614	333282.1454227994
6.486751961643101	329917.8196629916
6.551619481259532	399962.71997172176
6.617135676072128	332761.0644761002
6.683307032832849	455317.24066932267
6.750140103161177	643530.6952977313
6.81764150419279	590077.8610335496
6.885817919234718	492450.0373235268
6.954676098427065	601782.6688555714
7.024222859411336	465742.88170745026
7.094465088005449	633023.2261098546
7.165409738885503	417030.64779266756
7.237063836274358	499218.33309965354
7.309434474637103	406922.88262873556
7.382528819383473	359171.9132997543
7.456354107577308	332058.9465492047
7.530917648653081	444246.26289046044
7.606226825139612	470383.4101369655
7.682289093391009	262612.39844039053
7.759111984324918	376515.5485901767
7.836703104168168	441499.026600396
7.91507013520985	405877.32046171994
7.994220836561947	458704.13438601285
8.074163044927568	446857.4723072154
8.154904675376844	489039.40300033573
8.23645372213061	544348.0654825524
8.318818259351918	638620.3595444291
8.402006441945437	644229.4273396174
8.486026506364892	744595.0092820054
8.57088677142854	828348.4013530563
8.656595639142825	881074.872028806
8.743161595534254	969891.2162673392
8.830593211489598	1003797.4275684907
8.918899143604493	1034551.4132156384
9.00808813504054	1049457.7656663079
9.098169016390944	1133351.3796527628
9.189150706554853	1145555.5273739449
9.281042213620402	1133740.4197497123
9.373852635756606	1062192.110135679
9.467591162114172	1099110.9080514463
9.562267073735315	1290385.8694341448
9.657889744472667	1025705.5424750679
9.754468641917395	1224098.281826382
9.852013328336568	977241.1240839736
9.950533461619933	1125461.2017107755
10.050038796236134	1081156.5172342458
10.150539184198495	1141936.7084109609
10.252044576040479	1039644.2151822124
10.354565021800884	531251.4863985068
10.458110672018893	680720.7228884716
10.562691778739081	887351.2347870634
10.668318696526473	830209.8673990612
10.775001883491738	707327.5830991977
10.882751902326655	694919.5618363409
10.991579421349924	534952.0507318684
11.101495215563421	744407.2398889104
11.212510167719055	632657.5694337733
11.324635269396246	508959.4041351283
11.43788162209021	708002.295379489
11.552260438311112	303946.74022484286
11.667783042694223	429448.9666936174
11.784460873121166	456697.461627777
11.902305481852377	517134.8318920693
12.0213285366709	529228.573766964
12.14154182203761	554288.9672115034
12.262957240257986	419491.9989731925
12.385586812660566	345289.2134960155
12.509442680787172	308725.28071140713
12.634537107595044	374615.8153389262
12.760882478670995	369873.0966651135
12.888491303457704	370878.4629543058
13.01737621649228	310587.9164391842
13.147549978657205	324324.50546724116
13.279025478443776	250013.20860039277
13.411815733228213	246443.54331046485
13.545933890560496	272767.88891920645
13.681393229466101	252256.02773060213
13.818207161760762	278452.39138326794
13.956389233378369	240264.1440307736
14.095953125712155	257358.6088192315
14.236912656969274	186199.64008797813
14.379281783538968	173691.7703535331
14.523074601374358	156666.38993485816
14.6683053473881	213355.91282942035
14.814988400861985	197532.19451814692
