#wavelength	surface flux
0.8	32255745.704450134
0.8002000000000001	32710792.19815112
0.8004000500000003	33207573.25714694
0.8006001500125003	33704898.92250419
0.8008003000500035	34202348.91927782
0.8010005001250161	34699923.27855086
0.8012007502500472	35197622.03141302
0.8014010504376099	35700344.00754293
0.8016014007002193	36204832.61202669
0.8018018010503944	36709447.338661574
0.8020022515006572	37214188.21897834
0.8022027520635323	37719055.28451475
0.8024033027515483	38221397.05217873
0.8026039035772362	38721266.0242757
0.8028045545531306	39221259.963615716
0.8030052556917691	39721378.90144081
0.803206007005692	40221622.86899991
0.8034068085074435	40725464.04050009
0.8036076602095705	41239164.0982891
0.8038085621246229	41752992.581092164
0.8040095142651542	42266949.52101623
0.8042105166437206	42781034.95017512
0.8044115692728815	43294773.96102688
0.8046126721651998	43788213.41488855
0.8048138253332411	44281776.2286133
0.8050150287895745	44775462.43304194
0.805216282546772	45269272.059021555
0.8054175866174087	45763205.1374074
0.8056189410140631	46297220.835262835
0.8058203457493168	46842681.06427717
0.8060218008357541	47388277.65834807
0.8062233062859632	47934010.65156775
0.8064248621125346	48479880.07803537
0.806626468328063	49048858.10539357
0.8068281249451449	49637708.66092748
0.8070298319763813	50226706.42910099
0.8072315894343755	50815851.4467161
0.8074333973317341	51405143.75058584
0.8076352556810671	51993045.44071099
0.8078371644949874	52577392.03552529
0.8080391237861113	53161884.71698844
0.8082411335670578	53746523.521621585
0.8084431938504498	54331308.485956505
0.8086453046489125	54917062.64242201
0.8088474659750746	55518285.94643004
0.8090496778415686	56119659.55626487
0.809251940261029	56721183.509501725
0.8094542532460944	57322857.8437274
0.8096566168094059	57924682.59653595
0.8098590309636085	58518176.12967452
0.8100614957213493	59109832.83070578
0.8102640110952797	59701637.445912376
0.8104665770980536	60293590.012273006
0.8106691937423283	60885690.566775456
0.8108718610407639	61470453.518231556
0.8110745790060241	62049638.793445654
0.8112773476507757	62628968.86497907
0.8114801669876885	63208443.76903021
0.8116830370294355	63788063.54180703
0.8118859577886929	64381191.06146478
0.8120889292781401	65002222.07003493
0.8122919515104597	65623408.33635717
0.8124950244983374	66244749.89924603
0.8126981482544621	66866246.79752552
0.8129013227915257	67491483.37079974
0.8131045481222237	68157917.04502109
0.8133078242592543	68824517.32766107
0.8135111512153191	69491284.26037152
0.813714529003123	70158217.88481525
0.8139179576353739	70825318.24266519
0.8141214371247829	71474364.83413687
0.8143249674840641	72120040.41779909
0.814528548725935	72765877.42035681
0.8147321808631167	73411875.88216606
0.8149358639083326	74058035.84359056
0.8151395978743097	74527818.86662626
0.8153433827737784	74878442.53250973
0.8155472186194719	75229153.85430954
0.8157511054241268	75579952.85393974
0.815955043200483	75930839.5533201
0.8161590319612831	75824535.07880211
0.8163630717192736	74880296.19202913
0.8165671624872033	73935821.24553551
0.8167713042778252	72991110.18030433
0.8169754971038948	72046162.93730639
0.8171797409781707	70801602.59257363
0.8173840359134155	67166712.87524621
0.8175883819223938	63530914.43549363
0.8177927790178745	59894207.04612905
0.8179972272126291	56256590.47991617
0.8182017265194322	52618064.5095654
0.8184062769510622	51403040.55781288
0.8186108785203001	50560793.919927575
0.8188155312399301	49718336.72038394
0.8190202351227402	48875668.90653948
0.819224990181521	48032790.42574209
0.8194297964290664	50820321.170110464
0.8196346538781738	55796898.5288666
0.8198395625416434	60774720.03196044
0.8200445224322789	65753785.99043216
0.820249533562887	70734096.71539202
0.8204545959462778	74796770.60450119
0.8206597095952644	77381544.52880374
0.8208648745226633	79966964.64658935
0.8210700907412941	82553031.119404
0.8212753582639793	85139744.10883424
0.8214806771035456	87534392.87044795
0.8216860472728215	88742306.3244516
0.8218914687846397	89950521.75681882
0.822096941651836	91159039.24304476
0.822302465887249	92367858.85864155
0.8225080415037209	93576980.67914289
0.8227136685140968	94573083.58185074
0.8229193469312254	95545219.0958926
0.8231250767679583	96517597.64381328
0.8233308580371503	97490219.28637043
0.8235366907516598	98463084.08433892
0.8237425749243477	99541804.61550547
0.8239485105680789	100676771.317422
0.824154497695721	101812021.7610133
0.824360536320145	102947556.0172157
0.8245666264542252	104083374.15698211
0.8247727681108388	105008875.03954989
0.8249789613028664	105632986.7243007
0.8251852060431922	106257254.43697326
0.825391502344703	106881678.21657369
0.8255978502202894	107506258.1021196
0.8258042496828445	108061038.03890024
0.8260107007452654	108276209.97485334
0.8262172034204517	108491435.7037902
0.8264237577213068	108706715.23915936
0.8266303636607373	108922048.59441245
0.8268370212516525	109137435.78300425
0.8270437305069654	109565948.38284492
0.8272504914395923	110011218.26881416
0.8274573040624523	110456599.472255
0.8276641683884679	110902092.02099632
0.8278710844305652	111347695.94287536
0.8280780522016729	111813075.88120042
0.8282850717147234	112287560.82382433
0.8284921429826521	112762164.3876834
0.8286992660183978	113236886.60243382
0.8289064408349024	113711727.49773759
0.8291136674451112	114188132.58644284
0.8293209458619727	114666479.45827526
0.8295282760984382	115144945.916825
0.829735658167463	115623531.99198994
0.8299430920820048	116102237.71367304
0.8301505778550254	116623808.57817046
0.8303581154994891	117316119.50920828
0.8305657050283641	118008603.51797953
0.8307733464546212	118701260.64775245
0.8309810397912352	119394090.94180894
0.8311887850511829	120087094.44343758
0.8313965822474458	120973814.94837794
0.8316044313930077	121869740.52279218
0.8318123325008561	122765890.07860084
0.8320202855839813	123662263.67179804
0.8322282906553774	124558861.3583936
0.8324363477280413	125326598.81021234
0.8326444568149735	126042559.27870813
0.8328526179291771	126758698.73732021
0.8330608310836596	127475017.23079802
0.8332690962914304	128191514.80389826
0.8334774135655034	128759107.0322982
0.833685782918895	129160308.91095226
0.8338942043646247	129561611.09007573
0.834102677915716	129963013.59474427
0.834311203585195	130364516.45003864
0.8345197813860912	130801527.43543993
0.8347284113314379	131357833.48606884
0.8349370934342709	131914278.6132101
0.8351458277076294	132470862.85163246
0.8353546141645565	133027586.23611537
0.8355634528180977	133584448.80144414
0.8357723436813022	134223347.31706282
0.8359812867672226	134863416.77331012
0.8361902820889144	135503646.24692115
0.8363993296594368	136144035.7779008
0.8366084294918518	136784585.40626338
0.8368175815992247	137287079.90812504
0.8370267859946247	137742097.27709278
0.8372360426911234	138197228.40040264
0.8374453517017962	138652473.30649325
0.8376547130397217	139107832.02381036
0.8378641267179816	139731801.11505657
0.8380735927496613	140523118.56137142
0.8382831111478488	141314633.83704737
0.8384926819256358	142106346.99154183
0.8387023050961173	142898258.07432556
0.8389119806723914	143581710.84279254
0.8391217086675596	143959540.16396016
0.8393314890947265	144337463.9424578
0.8395413219670003	144715482.20190006
0.8397512072974922	145093594.96590748
0.8399611450993165	145477135.76717326
0.8401711353855914	146125632.60785508
0.8403811781694378	146774291.57274687
0.8405912734639802	147423112.70238006
0.8408014212823464	148072096.03729597
0.8410116216376671	148721241.6180455
0.8412218745430766	148758909.867472
0.8414321800117124	148618624.00756353
0.8416425380567154	148478303.07619
0.8418529486912297	148337947.06458357
0.8420634119284025	148197555.9639744
0.8422739277813847	148662066.87611198
0.8424844962633302	149659666.9841648
0.842695117387396	150657516.49224335
0.8429057911667428	151655615.46269894
0.8431165176145345	152653963.95789763
0.8433272967439382	152669324.73577678
0.8435381285681244	150286300.91645986
0.8437490131002665	147902681.34118864
0.8439599503535415	145518465.8610251
0.84417094034113	143133654.32698977
0.8443819830762154	140828322.94185448
0.8445930785719846	140135560.17604432
0.8448042268416277	139442624.21954304
0.8450154278983382	138749515.02905273
0.8452266817553128	138056232.56126487
0.8454379884257517	137362776.77286
0.8456493479228583	137657770.67587554
0.845860760259839	138190910.64081344
0.846072225449904	138724183.89074257
0.8462837435062666	139257590.4589843
0.8464953144421433	139791130.37886837
0.8467069382707537	140421928.46244928
0.8469186150053215	141128590.02768725
0.847130344659073	141835428.2583167
0.8473421272452377	142542443.1985031
0.8475539627770492	143249634.8924253
0.8477658512677435	143939838.71463388
0.8479777927305605	144593768.1721042
0.8481897871787432	145247861.11193871
0.848401834625538	145902117.57500857
0.8486139350841944	146556537.6021938
0.8488260885679657	147138411.4215993
0.8490382950901076	146834123.90368393
0.8492505546638802	146529760.31388894
0.8494628673025462	146225320.63319662
0.8496752330193721	145920804.84258366
0.8498876518276269	145616212.92302346
0.8501001237405839	141180141.54312524
0.8503126487715191	135918260.48506463
0.850525226933712	130655063.95674239
0.8507378582404455	125390551.62928814
0.8509505427050057	120124723.17374897
0.8511632803406821	115256138.59060414
0.8513760711607672	110659277.70394957
0.8515889151785576	106061267.6020662
0.8518018124073523	101462107.9976612
0.8520147628604541	96861798.60335782
0.8522277665511693	95448837.01679265
0.8524408234928071	99932263.61223665
0.8526539336986805	104416811.06433071
0.8528670971821053	108902479.65328807
0.8530803139564007	113389269.65938738
0.8532935840348901	118166341.57286254
0.8535069074308987	125386713.4877707
0.8537202841577566	132608890.49566366
0.8539337142287962	139832873.0478094
0.8541471976573534	147058661.59558868
0.8543607344567677	154286256.5905062
0.8545743246403821	156383174.66961083
0.8547879682215422	157665519.8871231
0.8550016652135977	158948185.6909396
0.8552154156299011	160231172.16120714
0.8554292194838088	161514479.37809315
0.8556430767886797	162195529.0649945
0.855856987557877	162510879.3511132
0.8560709518047664	162826308.47480324
0.8562849695427177	163141816.4557743
0.8564990407851035	163457403.3137407
0.8567131655452999	163564420.25600657
0.8569273438366862	163329585.91015896
0.8571415756726455	163094692.85572484
0.8573558610665638	162859741.07802704
0.8575702000318304	162624730.56238505
0.8577845925818384	162605984.01197392
0.857999038729984	163938464.1646432
0.8582135384896665	165271277.43735033
0.858428091874289	166604423.91337574
0.8586426988972576	167937903.67601976
0.8588573595719821	169271716.80860493
0.8590720739118751	168929664.5538302
0.8592868419303532	168389897.93421528
0.8595016636408359	167849996.37294546
0.8597165390567462	167309959.83628547
0.8599314681915105	166769788.29049122
0.8601464510585584	164044189.35922378
0.860361487671323	160157971.10756034
0.8605765780432408	156270781.3013351
0.8607917221877518	152382619.6976551
0.8610069201182988	148493486.05357528
0.8612221718483286	141329310.89267993
0.8614374773912907	129443330.80791013
0.8616528367606385	117554379.22812235
0.8618682499698288	105662455.4104321
0.8620837170323213	93767558.6117894
0.8622992379615795	83820940.90996183
0.8625148127710699	83527839.20370279
0.8627304414742627	83234664.22201717
0.8629461240846313	82941415.94658609
0.8631618606156526	82648094.35908611
0.8633776510808066	82354699.44118932
0.8635934954935769	86036430.93645623
0.8638093938674504	90044937.17876805
0.8640253462159173	94054445.54764031
0.8642413525524714	98064956.2936047
0.8644574128906095	102076469.66725475
0.8646735272438323	105164063.91385593
0.8648896956256433	107822315.69813813
0.8651059180495498	110481232.04536656
0.8653221945290621	113140813.12167923
0.8655385250776946	115801059.09326473
0.8657549097089641	118428097.09947069
0.8659713484363913	121012426.94463223
0.8661878412735006	123597402.87225628
0.866404388233819	126183025.04386187
0.8666209893308775	128769293.62100917
0.8668376445782103	130873424.27750264
0.8670543539893549	131007592.39101091
0.8672711175778525	131141794.04654764
0.8674879353572469	131276029.2524981
0.8677048073410862	131410298.0172501
0.8679217335429217	131544600.34919338
0.8681387139763074	131482228.6770156
0.8683557486548015	131410069.48051684
0.8685728375919655	131337892.24421886
0.8687899808013633	131265696.96361196
0.8690071782965637	131193483.63418482
0.869224430091138	130042223.49129352
0.8694417361986609	128451620.09491725
0.8696590966327107	126860619.04769225
0.869876511406869	125269220.25020537
0.8700939805347206	123677423.60301986
0.8703115040298544	122545619.9456425
0.870529081905862	121939893.36673185
0.8707467141763385	121334015.35617667
0.8709644008548827	120727985.87611888
0.8711821419550964	120121804.88869146
0.8713999374905854	119766499.58464752
0.871617787474958	120277487.51696149
0.8718356919218269	120788603.196259
0.8720536508448075	121299846.65447637
0.8722716642575187	121811217.923558
0.8724897321735832	122322717.03545712
0.8727078546066265	123998050.87870668
0.8729260315702784	125691507.3541188
0.873144263078171	127385387.19364797
0.8733625491439405	129079690.50313717
0.8735808897812266	130774417.38845441
0.8737992850036719	131109830.0692371
0.874017734824923	130963729.80173777
0.8742362392586293	130817593.00917163
0.874454798318444	130671419.68240736
0.8746734120180236	130525209.81231143
0.8748920803710283	130666952.15591837
0.875110803391121	131098131.20360513
0.8753295810919689	131529418.04605405
0.875548413487242	131960812.71021359
0.8757673005906139	132392315.22303918
0.8759862424157616	133822313.39097133
0.8762052389763657	138141551.21499553
0.8764242902861098	142461868.8484727
0.8766433963586814	146783266.56135944
0.8768625572077712	151105744.6236757
0.8770817728470732	155392416.983234
0.8773010432902849	156800170.0406657
0.8775203685511077	158208275.03636378
0.8777397486432454	159616732.05830905
0.8779591835804065	161025541.1945115
0.8781786733763015	162434702.53299615
0.8783982180446457	160453069.14219517
0.878617817599157	157462137.49010307
0.8788374720535569	154470458.10509935
0.8790571814215703	151478030.8002501
0.8792769457169257	148484855.38857463
0.879496764953355	147377573.03531545
0.8797166391445934	147966228.35399008
0.8799365683043796	148555030.8364944
0.8801565524464557	149143980.51961932
0.8803765915845676	149733077.44016558
0.8805966857324639	150616554.67680332
0.880816834903897	152239277.97645307
0.881037039112623	153862406.95692834
0.8812572983724012	155485941.7196486
0.8814776126969944	157109882.36606023
0.8816979821001687	158674911.94723403
0.8819184065956938	158843999.43522978
0.8821388861973429	159013129.1950977
0.8823594209188923	159182301.23740545
0.882580010774122	159351515.57272366
0.8828006557768155	159520772.2116258
0.8830213559407598	163173765.8650531
0.8832421112797452	167703857.34603482
0.8834629218075651	172235081.34988406
0.8836837875380171	176767438.15973562
0.8839047084849018	181300928.0587904
0.884125684662023	180864776.28065437
0.8843467160831886	176445074.10329834
0.8845678027622095	172024267.00039795
0.8847889447129001	167602354.69572103
0.8850101419490785	163179336.91296872
0.8852313944845657	161498242.36115143
0.885452702333187	165820881.55035213
0.8856740655087704	170144601.3993495
0.8858954840251476	174469402.17830795
0.8861169578961539	178795284.15745914
0.886338487135628	182477167.63121545
0.886560071757412	177575629.9013159
0.8867817117753515	172672866.786984
0.8870034072032955	167768877.9818713
0.8872251580550963	162863663.17956308
0.8874469643446101	157957222.07355127
0.8876688260856963	158068115.89448673
0.8878907432922178	159217693.06562734
0.8881127159780409	160367557.63105997
0.8883347441570356	161517709.6626354
0.8885568278430749	162668149.23221746
0.8887789670500358	162389854.22531953
0.8890011617917983	161097778.96808013
0.8892234120822464	159805380.69202587
0.8894457179352669	158512659.31640366
0.8896680793647509	157219614.76043648
0.8898904963845921	156660156.23802742
0.8901129690086883	157500876.10388532
0.8903354972509405	158341806.1497095
0.8905580811252535	159182946.42804575
0.8907807206455347	160024296.99145046
0.8910034158256963	160889558.50204933
0.8912261666796527	161966847.81922576
0.8914489732213227	163044406.4587318
0.8916718354646282	164122234.48789877
0.8918947534234944	165200331.97407195
0.8921177271118502	166278698.98461604
0.8923407565436284	164213263.87380826
0.8925638417327644	161634428.8164815
0.8927869826931977	159054949.05038956
0.8930101794388711	156474824.41435623
0.8932334319837308	153894054.74716434
0.8934567403417267	152179286.47471243
0.8936801045268123	151002608.3467699
0.8939035245529441	149825636.04929617
0.8941270004340824	148648369.5087476
0.894350532184191	147470808.6515642
0.8945741198172371	149658361.2510586
0.8947977633471915	157427588.21440482
0.8950214627880284	165198757.48449153
0.8952452181537254	172971869.54689115
0.8954690294582639	180746924.88731104
0.8956928967156286	188222357.5182628
0.8959168199398075	193742600.02216
0.8961407991447926	199264222.58668458
0.8963648343445789	204787225.55685014
0.896588925553165	210311609.27775514
0.8968130727845534	215837374.09459105
0.8970372760527496	216908190.99406135
0.8972615353717629	217421699.05275837
0.8974858507556059	217935335.48847014
0.8977102222182949	218449100.33329067
0.8979346497738496	218962993.61932272
0.8981591334362931	219609655.11672792
0.8983836732196523	220329015.83341816
0.8986082691379572	221048556.39028713
0.8988329212052417	221768276.8322953
0.8990576294355432	222488177.20441458
0.8992823938429022	222946134.75950822
0.8995072144413631	223014463.52281493
0.8997320912449734	223082809.36831242
0.8999570242677847	223151172.30027127
0.9001820135238516	223219552.3229631
0.9004070590272328	223937637.18423957
0.9006321607919896	228061786.36811543
0.9008573188321878	232186966.58929145
0.9010825331618959	236313178.1055208
0.9013078037951865	240440421.17462987
0.9015331307461353	244568696.05450404
0.9017585140288219	247224224.1310087
0.9019839536573292	249753475.69524887
0.9022094496457435	252283359.57237828
0.9024350020081551	254813875.92047983
0.9026606107586572	257345024.8976676
0.902886275911347	258828739.21997774
0.9031119974803249	259807583.01152354
0.9033377754796951	260786671.51401722
0.903563609923565	261766004.78863612
0.903789500826046	262745582.8965743
0.9040154482012526	262660035.24620613
0.904241452063303	261194371.55070072
0.9044675124263188	259728341.43927178
0.9046936293044254	258261944.82031518
0.9049198027117517	256795181.60220313
0.9051460326624297	255120733.0822041
0.9053723191705955	252563055.07431814
0.9055986622503881	250004737.64693263
0.9058250619159507	247445780.64019015
0.9060515181814298	244886183.8941944
0.9062780310609752	242325947.24901393
0.9065046005687405	246126584.98765805
0.906731226718883	250283062.96858412
0.9069579095255627	254440580.069
0.907184649002944	258599136.54869133
0.907411445165195	262758732.66750678
0.9076382980264862	266001176.39569575
0.907865207600993	268863107.17750084
0.9080921739028933	271725753.44200057
0.9083191969463691	274589115.36806595
0.9085462767456058	277453193.1346143
0.9087734133147922	279638621.5696144
0.9090006066681211	281039920.9604408
0.909227856819788	282441570.676113
0.9094551637839932	283843570.8042161
0.9096825275749393	285245921.43235075
0.9099099482068329	286710096.5567041
0.9101374256938848	288393117.06180775
0.9103649600503083	290076558.3220369
0.9105925512903209	291760420.4425808
0.9108201994281437	293444703.52865654
0.9110479044780008	295129407.68550193
0.9112756664541204	299867860.8857854
0.911503485370734	304677388.8359649
0.9117313612420768	309488119.16813207
0.9119592940823873	314300052.1828807
0.912187283905908	319113188.1808846
0.9124153307268845	319877217.67480946
0.9126434345595664	319171412.4699989
0.9128715954182063	318465430.8138878
0.9130998133170609	317759272.66236234
0.9133280882703902	317052937.971299
0.913556420292458	317115630.82542324
0.9137848093975312	317971630.9284592
0.9140132555998806	318827845.0315209
