#wavelength	surface flux
0.8	48608941.4733117
0.8002000000000001	49098444.67973283
0.8004000500000003	49675793.53984827
0.8006001500125003	50254172.82865746
0.8008003000500035	50832696.712288916
0.8010005001250161	51411365.22689154
0.8012007502500472	51990178.408621974
0.8014010504376099	52631866.33935558
0.8016014007002193	53294727.3409101
0.8018018010503944	53957754.057715
0.8020022515006572	54620946.5311994
0.8022027520635323	55284304.80280161
0.8024033027515483	55896307.14821644
0.8026039035772362	56457973.17173161
0.8028045545531306	57019779.61175269
0.8030052556917691	57581726.50338404
0.803206007005692	58143813.8817378
0.8034068085074435	58688607.02236775
0.8036076602095705	59184664.17280226
0.8038085621246229	59680845.33752399
0.8040095142651542	60177150.5475372
0.8042105166437206	60673579.83385275
0.8044115692728815	61170774.441277586
0.8046126721651998	61695673.0821091
0.8048138253332411	62220702.9476004
0.8050150287895745	62745864.07055857
0.805216282546772	63271156.48379733
0.8054175866174087	63796580.22013912
0.8056189410140631	64447890.779699095
0.8058203457493168	65134961.120450795
0.8060218008357541	65822203.228786804
0.8062233062859632	66509617.147650234
0.8064248621125346	67197202.91999291
0.806626468328063	67924754.00883542
0.8068281249451449	68686664.71930002
0.8070298319763813	69448765.90744317
0.8072315894343755	70211057.62088278
0.8074333973317341	70973539.90725105
0.8076352556810671	71744007.75966705
0.8078371644949874	72533431.96442017
0.8080391237861113	73323053.52522464
0.8082411335670578	74112872.49141884
0.8084431938504498	74902888.91235541
0.8086453046489125	75699877.94859599
0.8088474659750746	76623206.66443494
0.8090496778415686	77546766.21245408
0.809251940261029	78470556.65035956
0.8094542532460944	79394578.0358753
0.8096566168094059	80318830.42673638
0.8098590309636085	81253308.84003013
0.8100614957213493	82190360.27477013
0.8102640110952797	83127645.97236893
0.8104665770980536	84065165.99139251
0.8106691937423283	85002920.39042118
0.8108718610407639	85896578.60577853
0.8110745790060241	86756562.93559122
0.8112773476507757	87616762.26148713
0.8114801669876885	88477176.63721427
0.8116830370294355	89337806.11653484
0.8118859577886929	90227251.25010379
0.8120889292781401	91176323.22761025
0.8122919515104597	92125632.47311102
0.8124950244983374	93075179.04592322
0.8126981482544621	94024963.00537848
0.8129013227915257	94992526.72115073
0.8131045481222237	96161194.4630491
0.8133078242592543	97330154.37188308
0.8135111512153191	98499406.52069396
0.813714529003123	99668950.98254216
0.8139179576353739	100838787.83050603
0.8141214371247829	102082915.3502564
0.8143249674840641	103341703.39994052
0.814528548725935	104600806.1466363
0.8147321808631167	105860223.66902047
0.8149358639083326	107119956.04578486
0.8151395978743097	108065504.03980891
0.8153433827737784	108798799.48780176
0.8155472186194719	109532278.25965634
0.8157511054241268	110265940.40120374
0.815955043200483	110999785.95828705
0.8161590319612831	111040889.18586174
0.8163630717192736	109812300.64159808
0.8165671624872033	108583404.95019971
0.8167713042778252	107354202.03487729
0.8169754971038948	106124691.81882542
0.8171797409781707	104300965.51335464
0.8173840359134155	97735426.0904065
0.8175883819223938	91168245.2826102
0.8177927790178745	84599422.67960817
0.8179972272126291	78028957.8709537
0.8182017265194322	71456850.44610366
0.8184062769510622	69726393.91479182
0.8186108785203001	68740816.01934752
0.8188155312399301	67754991.72943068
0.8190202351227402	66768920.98344026
0.819224990181521	65782603.719763964
0.8194297964290664	70715946.43529907
0.8196346538781738	79218735.66389519
0.8198395625416434	87723650.58979508
0.8200445224322789	96230691.74443005
0.820249533562887	104739859.65935114
0.8204545959462778	110939001.83715877
0.8206597095952644	113418345.92011604
0.8208648745226633	115898309.83909595
0.8210700907412941	118378893.7490552
0.8212753582639793	120860097.80498944
0.8214806771035456	123168143.33664058
0.8216860472728215	124406076.5932098
0.8218914687846397	125644319.33309323
0.822096941651836	126882871.63366227
0.822302465887249	128121733.57230572
0.8225080415037209	129360905.22643451
0.8227136685140968	130662275.30533016
0.8229193469312254	131970996.37992807
0.8231250767679583	133280044.63479507
0.8233308580371503	134589420.15172505
0.8235366907516598	135899123.01253527
0.8237425749243477	137597663.54246157
0.8239485105680789	139502545.96630767
0.824154497695721	141407904.61075848
0.824360536320145	143313739.59487078
0.8245666264542252	145220051.03772902
0.8247727681108388	146476612.41355157
0.8249789613028664	146802240.99327573
0.8251852060431922	147127950.9801451
0.825391502344703	147453742.39451104
0.8255978502202894	147779615.25673088
0.8258042496828445	147968451.44153774
0.8260107007452654	147491410.90474874
0.8262172034204517	147014251.10782602
0.8264237577213068	146536972.02095395
0.8266303636607373	146059573.61430997
0.8268370212516525	145582055.85806456
0.8270437305069654	145808514.73890832
0.8272504914395923	146090050.76214066
0.8274573040624523	146371657.16937888
0.8276641683884679	146653333.97821864
0.8278710844305652	146935081.20626098
0.8280780522016729	147270210.59608346
0.8282850717147234	147629792.45901448
0.8284921429826521	147989464.21741086
0.8286992660183978	148349225.89374712
0.8289064408349024	148709077.51050222
0.8291136674451112	149066731.6625203
0.8293209458619727	149421590.89644247
0.8295282760984382	149776538.8451727
0.829735658167463	150131575.5308905
0.8299430920820048	150486700.97577927
0.8301505778550254	150896314.2942332
0.8303581154994891	151523152.72311166
0.8305657050283641	152150147.861598
0.8307733464546212	152777299.74886847
0.8309810397912352	153404608.42411178
0.8311887850511829	154032073.92652264
0.8313965822474458	155049925.1950069
0.8316044313930077	156086143.51375535
0.8318123325008561	157122620.88708445
0.8320202855839813	158159357.3797564
0.8322282906553774	159196353.0565516
0.8324363477280413	160113164.76913762
0.8326444568149735	160981715.67195386
0.8328526179291771	161850483.71249476
0.8330608310836596	162719468.94504714
0.8332690962914304	163588671.4239065
0.8334774135655034	164135657.54494482
0.833685782918895	164322611.42754906
0.8338942043646247	164509612.04862383
0.834102677915716	164696659.41985402
0.834311203585195	164883753.55292687
0.8345197813860912	165117718.05242318
0.8347284113314379	165509353.63547048
0.8349370934342709	165901087.1274133
0.8351458277076294	166292918.55272865
0.8353546141645565	166684847.935901
0.8355634528180977	167076875.30141893
0.8357723436813022	167677031.46606266
0.8359812867672226	168279906.31996787
0.8361902820889144	168882931.89258626
0.8363993296594368	169486108.22159797
0.8366084294918518	170089435.34469214
0.8368175815992247	170478391.83072975
0.8370267859946247	170793562.15863904
0.8372360426911234	171108811.27913022
0.8374453517017962	171424139.2119015
0.8376547130397217	171739545.9766559
0.8378641267179816	172326168.16136938
0.8380735927496613	173181974.95953587
0.8382831111478488	174037995.70940137
0.8384926819256358	174894230.46445388
0.8387023050961173	175750679.2781959
0.8389119806723914	176463502.94084647
0.8391217086675596	176771694.1215467
0.8393314890947265	177079962.3500418
0.8395413219670003	177388307.6455941
0.8397512072974922	177696730.02747047
0.8399611450993165	178008271.5129808
0.8401711353855914	178470955.41931775
0.8403811781694378	178933754.9966312
0.8405912734639802	179396670.2738391
0.8408014212823464	179859701.2798665
0.8410116216376671	180322848.04364535
0.8412218745430766	180102157.38440952
0.8414321800117124	179682407.5613286
0.8416425380567154	179262552.80079174
0.8418529486912297	178842593.07656464
0.8420634119284025	178422528.36240682
0.8422739277813847	179006474.4199401
0.8424844962633302	180475231.43654048
0.842695117387396	181944355.64239317
0.8429057911667428	183413847.12929735
0.8431165176145345	184883705.98907396
0.8433272967439382	184953212.4714054
0.8435381285681244	181605992.21550488
0.8437490131002665	178257935.15454113
0.8439599503535415	174909041.07931423
0.84417094034113	171559309.7805661
0.8443819830762154	168320965.78736296
0.8445930785719846	167342589.15638247
0.8448042268416277	166363967.93124476
0.8450154278983382	165385102.05080092
0.8452266817553128	164405991.45388702
0.8454379884257517	163426636.0793238
0.8456493479228583	163806026.67481685
0.845860760259839	164512773.43770128
0.846072225449904	165219696.88727644
0.8462837435062666	165926797.06771412
0.8464953144421433	166634074.02319735
0.8467069382707537	167396399.85072786
0.8469186150053215	168201687.33966264
0.847130344659073	169007176.15046987
0.8473421272452377	169812866.33347902
0.8475539627770492	170618757.93903473
0.8477658512677435	171377984.91358545
0.8479777927305605	172037887.6946622
0.8481897871787432	172697955.4514341
0.848401834625538	173358188.22514552
0.8486139350841944	174018586.05705
0.8488260885679657	174627198.98511124
0.8490382950901076	174602711.96848786
0.8492505546638802	174578218.83011028
0.8494628673025462	174553719.56844816
0.8496752330193721	174529214.18197057
0.8498876518276269	174504702.6691464
0.8501001237405839	171465915.24693647
0.8503126487715191	167824666.9403476
0.850525226933712	164182508.32168418
0.8507378582404455	160539439.16336608
0.8509505427050057	156895459.23775628
0.8511632803406821	153060907.8958487
0.8513760711607672	149095515.2575145
0.8515889151785576	145129131.27101457
0.8518018124073523	141161755.68852133
0.8520147628604541	137193388.26213482
0.8522277665511693	135824787.60989246
0.8524408234928071	139265633.95822355
0.8526539336986805	142707340.51814264
0.8528670971821053	146149907.50470194
0.8530803139564007	149593335.1330038
0.8532935840348901	153087533.54575598
0.8535069074308987	157004120.35017732
0.8537202841577566	160921686.30130306
0.8539337142287962	164840231.64391705
0.8541471976573534	168759756.62286422
0.8543607344567677	172680261.48305684
0.8545743246403821	171998380.28818804
0.8547879682215422	170585261.45958766
0.8550016652135977	169171789.3512803
0.8552154156299011	167757963.8749458
0.8554292194838088	166343784.94224116
0.8556430767886797	165282967.70452237
0.855856987557877	164436651.81387722
0.8560709518047664	163590124.34425992
0.8562849695427177	162743385.2427749
0.8564990407851035	161896434.45651427
0.8567131655452999	160728312.72597918
0.8569273438366862	159033996.59370705
0.8571415756726455	157339256.88240153
0.8573558610665638	155644093.48616755
0.8575702000318304	153948506.29908636
0.8577845925818384	152915739.49603078
0.857999038729984	156025582.62056133
0.8582135384896665	159136203.20587233
0.858428091874289	162247601.44632983
0.8586426988972576	165359777.5363466
0.8588573595719821	168472731.67038697
0.8590720739118751	167574043.8978996
0.8592868419303532	166202055.1292967
0.8595016636408359	164829723.36350164
0.8597165390567462	163457048.51476556
0.8599314681915105	162084030.497317
0.8601464510585584	159203957.96719578
0.860361487671323	155523413.60094446
0.8605765780432408	151841949.09860262
0.8607917221877518	148159564.23013222
0.8610069201182988	144476258.76544565
0.8612221718483286	137030764.41118127
0.8614374773912907	124161031.75740713
0.8616528367606385	111288081.67047304
0.8618682499698288	98411913.34600908
0.8620837170323213	85532525.97946611
0.8622992379615795	74745663.47233877
0.8625148127710699	74327141.88211782
0.8627304414742627	73908515.6614993
0.8629461240846313	73489784.78432555
0.8631618606156526	73070949.22443248
0.8633776510808066	72652008.95564952
0.8635934954935769	78027461.10699618
0.8638093938674504	83879242.53332728
0.8640253462159173	89732486.90501478
0.8642413525524714	95587194.58779506
0.8644574128906095	101443365.94749482
0.8646735272438323	103265778.07439007
0.8648896956256433	103212155.17041275
0.8651059180495498	103158518.86070944
0.8653221945290621	103104869.14192875
0.8655385250776946	103051206.01071829
0.8657549097089641	104835328.03743884
0.8659713484363913	108972682.26377165
0.8661878412735006	113111070.82866296
0.866404388233819	117250493.99069493
0.8666209893308775	121390952.00851549
0.8668376445782103	124536658.11595422
0.8670543539893549	123618838.2995664
0.8672711175778525	122700789.02822384
0.8674879353572469	121782510.24456449
0.8677048073410862	120864001.89120886
0.8679217335429217	119945263.91076432
0.8681387139763074	119614396.09636526
0.8683557486548015	119312660.86727075
0.8685728375919655	119010850.20436862
0.8687899808013633	118708964.0888014
0.8690071782965637	118407002.5017049
0.869224430091138	117222600.71730088
0.8694417361986609	115678869.74864547
0.8696590966327107	114134752.84724823
0.869876511406869	112590249.91662556
0.8700939805347206	111045360.86027098
0.8703115040298544	110021336.21803787
0.870529081905862	109592995.8392262
0.8707467141763385	109164548.37531996
0.8709644008548827	108735993.79954778
0.8711821419550964	108307332.0851319
0.8713999374905854	108043036.96017097
0.871617787474958	108346331.75552519
0.8718356919218269	108649702.37457852
0.8720536508448075	108953148.83628663
0.8722716642575187	109256671.15961
0.8724897321735832	109560269.36351435
0.8727078546066265	111811119.35981365
0.8729260315702784	114092155.00143927
0.873144263078171	116373760.90197286
0.8733625491439405	118655937.20398179
0.8735808897812266	120938684.05006713
0.8737992850036719	121071601.21900906
0.874017734824923	120442915.16690761
0.8742362392586293	119814071.9432934
0.874454798318444	119185071.50887331
0.8746734120180236	118555913.82434468
0.8748920803710283	118125923.66088226
0.875110803391121	117896128.44141038
0.8753295810919689	117666275.77313349
0.875548413487242	117436365.64168954
0.8757673005906139	117206398.03271271
0.8759862424157616	118394949.06054129
0.8762052389763657	123688514.20099953
0.8764242902861098	128983402.73273921
0.8766433963586814	134279614.98661324
0.8768625572077712	139577151.29355237
0.8770817728470732	144821229.36870405
0.8773010432902849	145789330.04617488
0.8775203685511077	146757672.7488165
0.8777397486432454	147726257.53713253
0.8779591835804065	148695084.47164685
0.8781786733763015	149664153.6128935
0.8783982180446457	146169937.94422868
0.878617817599157	141347032.84589297
0.8788374720535569	136522922.02128494
0.8790571814215703	131697605.16897196
0.8792769457169257	126871081.98744579
0.879496764953355	124720448.59789684
0.8797166391445934	124976163.06892796
0.8799365683043796	125231941.46857685
0.8801565524464557	125487783.81282565
0.8803765915845676	125743690.11766076
0.8805966857324639	126254053.72834717
0.880816834903897	127403504.70907882
0.881037039112623	128553243.0525561
0.8812572983724012	129703268.83061914
0.8814776126969944	130853582.1151272
0.8816979821001687	132021293.83121733
0.8819184065956938	133592089.84109682
0.8821388861973429	135163278.54998037
0.8823594209188923	136734860.05603963
0.882580010774122	138306834.4574747
0.8828006557768155	139879201.85251102
0.8830213559407598	143716694.0591313
0.8832421112797452	148124748.6549682
0.8834629218075651	152533905.2644514
0.8836837875380171	156944164.16308832
0.8839047084849018	161355525.6264506
0.884125684662023	160758461.40391752
0.8843467160831886	156146750.59195033
0.8845678027622095	151533886.8522801
0.8847889447129001	146919869.89667413
0.8850101419490785	142304699.43683007
0.8852313944845657	141571478.5168049
0.885452702333187	149337711.22102648
0.8856740655087704	157105885.483423
0.8858954840251476	164876001.789383
0.8861169578961539	172648060.62441587
0.886338487135628	179477320.61786714
0.886560071757412	173736223.69901624
0.8867817117753515	167993691.50593576
0.8870034072032955	162249723.67980444
0.8872251580550963	156504319.8617233
0.8874469643446101	150757479.6926841
0.8876688260856963	149607936.93008178
0.8878907432922178	149409873.74341258
0.8881127159780409	149211761.0409468
0.8883347441570356	149013598.8103052
0.8885568278430749	148815387.03910616
0.8887789670500358	147231182.89483362
0.8890011617917983	144663431.38997528
0.8892234120822464	142095037.94723955
0.8894457179352669	139526002.40614524
0.8896680793647509	136956324.6061636
0.8898904963845921	135465783.84670535
0.8901129690086883	136035118.08460385
0.8903354972509405	136604594.65606168
0.8905580811252535	137174213.59666282
0.8907807206455347	137743974.94199833
0.8910034158256963	138476798.67442778
0.8912261666796527	140665815.29021978
0.8914489732213227	142855379.16016632
0.8916718354646282	145045490.42108253
0.8918947534234944	147236149.20981184
0.8921177271118502	149427355.66323698
0.8923407565436284	150837825.72171262
0.8925638417327644	152121199.70112392
0.8927869826931977	153404894.52403048
0.8930101794388711	154688910.2706427
0.8932334319837308	155973247.02119136
0.8934567403417267	157085495.7255442
0.8936801045268123	158090890.51268914
0.8939035245529441	159096536.64853016
0.8941270004340824	160102434.19590554
0.894350532184191	161108583.2176675
0.8945741198172371	163938183.39886937
0.8947977633471915	169792050.0754764
0.8950214627880284	175647380.21875232
0.8952452181537254	181504174.1945606
0.8954690294582639	187362432.36886632
0.8956928967156286	192860826.04316455
0.8959168199398075	196015697.40260184
0.8961407991447926	199171357.4798798
0.8963648343445789	202327806.47217697
0.896588925553165	205485044.57672045
0.8968130727845534	208643071.9907905
0.8970372760527496	208987735.05855203
0.8972615353717629	208980376.9731901
0.8974858507556059	208973017.0483068
0.8977102222182949	208965655.28344232
0.8979346497738496	208958291.6781366
0.8981591334362931	208937013.40822396
0.8983836732196523	208908121.22259906
0.8986082691379572	208879221.81392777
0.8988329212052417	208850315.18040434
0.8990576294355432	208821401.32022247
0.8992823938429022	208558419.66528285
0.8995072144413631	207947353.94739354
0.8997320912449734	207336135.463075
0.8999570242677847	206724764.17413554
0.9001820135238516	206113240.04237378
0.9004070590272328	206358034.71614933
0.9006321607919896	211092807.36621228
0.9008573188321878	215828763.70944256
0.9010825331618959	220565904.0417564
0.9013078037951865	225304228.65915406
0.9015331307461353	230043737.85770354
0.9017585140288219	233631165.75933802
0.9019839536573292	237120156.71310022
0.9022094496457435	240610019.91459832
0.9024350020081551	244100755.58190075
0.9026606107586572	247592363.93311888
0.902886275911347	250145696.05219868
0.9031119974803249	252246931.25078487
0.9033377754796951	254348691.75817075
0.903563609923565	256450977.70568252
0.903789500826046	258553789.2246826
0.9040154482012526	258776418.3602896
0.904241452063303	256562810.04088032
0.9044675124263188	254348648.31939167
0.9046936293044254	252133933.05747297
0.9049198027117517	249918664.11673772
0.9051460326624297	247551671.5052519
0.9053723191705955	244540370.74179623
0.9055986622503881	241528317.1531525
0.9058250619159507	238515510.5511115
0.9060515181814298	235501950.74741808
0.9062780310609752	232487637.55377585
0.9065046005687405	236724502.50421134
0.906731226718883	241366990.50121483
0.9069579095255627	246010639.1202115
0.907184649002944	250655448.6513633
0.907411445165195	255301419.3849026
0.9076382980264862	258306446.23807573
0.907865207600993	260630261.0278633
0.9080921739028933	262954656.77134758
0.9083191969463691	265279633.6137674
0.9085462767456058	267605191.70039895
0.9087734133147922	269201600.89697784
0.9090006066681211	269955561.67777205
0.909227856819788	270709710.94876045
0.9094551637839932	271464048.7570677
0.9096825275749393	272218575.1498267
0.9099099482068329	273510816.7590948
0.9101374256938848	276713760.2320507
0.9103649600503083	279917504.4408734
0.9105925512903209	283122049.5857476
0.9108201994281437	286327395.8669114
0.9110479044780008	289533543.48464185
0.9112756664541204	295509238.904795
0.911503485370734	301549804.3627023
0.9117313612420768	307591879.96197414
0.9119592940823873	313635466.0801439
0.912187283905908	319680563.0948452
0.9124153307268845	321824183.4563761
0.9126434345595664	322551783.2411129
0.9128715954182063	323279564.92579514
0.9130998133170609	324007528.55589896
0.9133280882703902	324735674.1769103
0.913556420292458	325540610.96964735
0.9137848093975312	326424757.1290025
