#wavelength	surface flux
0.676892	391042.6887629205
0.678297	416248.9078047631
0.679702	439764.2449234969
0.681109	462354.3120674073
0.682517	484554.4687186945
0.683926	506441.703710124
0.685337	527436.1031403969
0.686749	547646.3583455802
0.688164	567847.9843061086
0.689581	586719.5149379354
0.691	601708.1383770289
0.692422	613451.2732387524
0.693847	632242.8913577895
0.695274	653036.0496925542
0.696705	672263.7868103612
0.698139	687824.9760347932
0.699576	700532.1211574234
0.701017	709843.8067514353
0.702461	717738.6846774503
0.70391	727509.4922319471
0.705362	734310.0756435763
0.706819	738302.3609163064
0.70828	740675.2628547689
0.709745	739814.6079427939
0.711216	738002.2227320614
0.71269	731578.6579895254
0.71417	722218.545129566
0.715655	706249.9863063537
0.717145	682980.7025712347
0.71864	667107.2380034932
0.72014	652020.0954207341
0.721647	636443.1773624731
0.723158	613366.4601694534
0.724676	585634.6642373124
0.726199	557002.6900337741
0.727728	530464.3737403519
0.729264	496905.4153711743
0.730805	464924.0456677463
0.732353	434658.4799098066
0.733907	401495.4221404238
0.735468	367367.5246173526
0.737035	331380.1684974748
0.738609	295922.3126335021
0.74019	263374.2158198828
0.741777	229613.44474593416
0.743372	196986.21743568731
0.744973	166664.0876542491
0.746582	138041.85138711488
0.748197	111935.14968539104
0.74982	88343.98900450894
0.751451	67564.68997258571
0.753088	50286.27751854646
0.754734	35939.6962296773
0.756386	24559.357818162494
0.758047	16094.35335675022
0.759715	10048.012353465536
0.76139	5814.871597493581
0.763074	3019.8778557531637
0.764765	1219.727008030368
0.766464	317.4992116817099
0.768172	444.0108235513541
0.769887	430.67690886146147
0.77161	1861.3436794416561
0.773341	4926.6403571890405
0.775081	9838.047121111282
0.776829	17078.28136659026
0.778585	23560.40136952472
0.780349	29992.206098333012
0.782121	59432.637664342416
0.783902	92881.14235718611
0.785691	129389.58715472097
0.787489	173436.0809131617
0.789295	224498.82430586603
0.79111	273764.3146489768
0.792933	228726.61076768607
0.794764	119764.6834991852
0.796604	395755.8875844383
0.798453	604041.206181492
0.80031	737383.3151008086
0.802176	867733.3057011106
0.804051	1008340.4718478619
0.805934	1156665.2070961455
0.807826	1310191.583382568
0.809727	1457686.3189737496
0.811636	1613962.3997066326
0.813554	1789277.612858354
0.81548	2018263.9794799155
0.817416	2228112.7760357372
0.81936	2429453.833635956
0.821313	2750949.871293469
0.823274	2991273.900298627
0.825244	3317495.7185124923
0.827223	3627884.6292815343
0.829211	3923206.3745087646
0.831208	4259163.260587964
0.833213	4624997.219939318
0.835227	4939472.014018298
0.837249	5322070.598326024
0.83928	5735105.078201028
0.841321	6124614.31479528
0.843369	6629348.498158389
0.845427	7073648.070130473
0.847493	7589545.298898562
0.849567	7235006.122689953
0.851651	5169189.243452513
0.853742	6809451.838177202
0.855843	9620261.861905865
0.857952	10557799.54579477
0.86007	10818488.263661029
0.862196	9537736.042261025
0.864331	9853470.884192178
0.866474	11082077.429115519
0.868626	11905012.19072868
0.870786	12409733.91228713
0.872955	13009443.334518246
0.875132	13688930.145561183
0.877317	14719779.254795277
0.879511	15234719.450546147
0.881713	15852782.712359183
0.883923	16630035.496192256
0.886142	17798251.948316295
0.888369	17935320.59449157
0.890604	17453478.228082128
0.892847	13744281.303477114
0.895099	13342836.393034643
0.897358	19881071.60285634
0.899626	22924047.898148347
0.901901	25697806.847447608
0.904185	27804553.393133752
0.906476	28464775.392793547
0.908776	30468352.746046867
0.911083	31272136.346667532
0.913398	32893700.945738558
0.915721	33406116.961842656
0.918051	33021751.85466672
0.92039	35691506.83211593
0.922736	37514783.75433101
0.925089	34426015.640404165
0.927451	21768941.11074786
0.929819	15979640.356323648
0.932195	22038206.346631363
0.934579	22780711.59715289
0.93697	27916322.030315667
0.939369	33275432.424157128
0.941774	32377996.372491147
0.944187	22657641.58573562
0.946607	24351170.210507162
0.949035	24335122.383463927
0.951469	28381103.617020965
0.953911	31765309.271542966
0.956359	36413202.28966628
0.958814	31760590.50191235
0.961277	27621661.178520937
0.963746	27218557.87264562
0.966222	29114096.151294697
0.968705	30502888.106374975
0.971194	40435673.62149802
0.97369	47336424.7588936
0.976193	46321513.35983169
0.978702	47615817.153348744
0.981217	45864561.61722619
0.983739	50455641.63959854
0.986268	53521191.341918446
0.988802	53087546.24426992
0.991343	52083368.89421121
0.99389	52958878.05122984
0.996444	51999302.98985465
0.999003	45768083.26511177
1.00157	45240803.557130486
1.00414	47357246.83576869
1.00672	50285662.27237322
1.0093	53358352.349746056
1.01189	56956778.46182181
1.01448	59761959.44325434
1.01708	61230354.00324566
1.01969	62810196.92921703
1.0223	62608373.507128276
1.02492	61838296.171208024
1.02754	62356643.85730379
1.03017	64541858.84444947
1.0328	67707125.9496924
1.03544	69597958.35728067
1.03808	70676630.57496364
1.04073	70638735.64525129
1.04339	70921144.08688053
1.04604	71578019.4259407
1.04871	71415404.29382616
1.05138	70706457.35462652
1.05405	71264023.3812964
1.05673	72461596.58005506
1.05941	72899794.35514002
1.0621	73907473.36772048
1.06479	73676820.97852151
1.06749	73484633.93674855
1.07019	72794611.17326729
1.07289	73286508.8414366
1.0756	73616731.96113776
1.07832	73570647.9917888
1.08104	73796380.5116601
1.08376	73660251.68412216
1.08649	72263238.8508073
1.08922	68437244.67285399
1.09195	61274806.30383485
1.09469	53722143.094112545
1.09743	51938946.903106876
1.10018	40728722.86665324
1.10293	29120024.418381363
1.10568	22650451.252349485
1.10844	31364252.099396057
1.1112	21432141.76665927
1.11396	18785365.510882117
1.11673	19793757.822732903
1.1195	19914447.42544117
1.12228	12735045.50788639
1.12505	12650616.860756468
1.12783	23428234.222907625
1.13062	20597434.71595022
1.13341	9907924.643840782
1.1362	17719267.49572828
1.13899	29916642.73527747
1.14178	25773162.44693021
1.14458	21736883.835276414
1.14738	28978023.73069003
1.15019	28407340.812716153
1.153	15324705.844718514
1.1558	16421341.482203757
1.15862	18061856.309512157
1.16143	17458076.79247891
1.16425	21212257.477263987
1.16707	21773300.328125864
1.16989	19957994.73932142
1.17271	22509534.729340877
1.17554	26566171.24085217
1.17837	30166449.017626774
1.1812	37788279.57642775
1.18403	49064335.2105296
1.18686	51249147.58999671
1.1897	48463945.116365105
1.19253	57213344.664489634
1.19537	64313558.70279361
1.19822	61795947.76814998
1.20106	65382779.61159928
1.2039	68918739.4693908
1.20675	71037732.82786344
1.2096	69535040.82661463
1.21245	69926259.77487807
1.2153	74549651.79155998
1.21815	77175564.93603426
1.221	79674593.77743593
1.22385	82129131.98810406
1.22671	83957916.76398998
1.22957	84565967.33972505
1.23242	86014972.93615028
1.23528	87945328.22042733
1.23814	89465998.57856531
1.241	86992986.87878138
1.24387	85223178.5022173
1.24673	91083742.52314334
1.24959	88462122.12117958
1.25245	82099644.70515494
1.25532	92767784.22644404
1.25818	99771760.47261173
1.26105	100815490.24950062
1.26392	101173690.47177973
1.26678	102764777.08326128
1.26965	104490305.15960267
1.27252	104741786.40502006
1.27538	106943327.77301192
1.27825	106376859.47150603
1.28112	103084414.28302383
1.28399	101652573.48479566
1.28686	101726687.80955021
1.28973	95354310.82867548
1.2926	92730558.81440319
1.29546	94437002.01711144
1.29833	95558799.84610093
1.3012	89926661.371097
1.30407	95355466.6915779
1.30694	93014106.29719307
1.30981	96302895.8356757
1.31267	89665954.98835401
1.31554	89486925.72461453
1.31841	90818262.98871915
1.32128	86157982.02030385
1.32414	70391706.77905121
1.32701	59135542.628157474
1.32987	43657968.23793475
1.33274	17501567.966023967
1.3356	8722355.0184528
1.33847	2773735.126239757
1.34133	1122679.1911538858
1.34419	2080532.7189453186
1.34705	2213764.4033507253
1.34991	711216.3990965618
1.35277	245197.12740791411
1.35563	860539.4554479271
1.35849	1243865.9088421045
1.36135	781328.1869545254
1.3642	1179183.9396593806
1.36706	1120847.5830135506
1.36991	1122690.3841283524
1.37277	1970607.6916460106
1.37562	2195378.02352874
1.37847	1482769.8131492746
1.38132	420648.42098594096
1.38417	143608.11043417652
1.38701	415463.95549432107
1.38986	624098.9061819284
1.39271	959480.1618304325
1.39555	1334627.4980134948
1.39839	938874.7546743714
1.40123	1844627.588840903
1.40407	2914877.7671129205
1.40691	3549798.553021377
1.40974	1887421.1651410956
1.41258	649677.3015123821
1.41541	882764.0189030708
1.41824	1054906.754275654
1.42107	1189902.428158605
1.4239	1017497.3184989264
1.42673	1877035.9565782119
1.42955	2736432.0700403983
1.43237	1668086.748045327
1.43519	2033350.5017798827
1.43801	1855307.8081840172
1.44083	2788042.0794257433
1.44365	4512590.031554203
1.44646	3716024.1284237388
1.44927	5510365.032145203
1.45208	6195757.122806351
1.45489	6297937.864483029
1.45769	7941519.674163159
1.4605	10445367.90787307
1.4633	9051795.697221115
1.4661	9718813.206497055
1.4689	8933911.516910216
1.47169	10180168.58079012
1.47449	10318601.392156694
1.47728	10790651.453209734
1.48007	9427391.765963541
1.48286	10611997.302265478
1.48564	12038550.14478285
1.48842	10422773.123752762
1.4912	10536300.679537501
1.49398	12063658.268526983
1.49676	12508996.911541931
1.49953	16430397.288809361
1.5023	20032554.677132953
1.50507	21203360.312039133
1.50784	19400517.635010995
1.51061	18883269.529893406
1.51337	22249486.790899947
1.51613	25545688.710954838
1.51888	26103023.9419283
1.52164	31009341.51342878
1.52439	33354484.10251194
1.52714	32070532.22824794
1.52989	33642490.51929249
1.53263	36341016.79091562
1.53538	37971709.386030786
1.53812	38275209.38838997
1.54086	39629380.65787488
1.54359	40262872.60518435
1.54632	43155115.85336076
1.54905	44487275.55590132
1.55178	44289578.456981786
1.5545	45236589.80370705
1.55723	45615703.04121351
1.55995	47570104.5512959
1.56266	49419425.83140533
1.56538	49853295.03247721
1.56809	50421529.10159796
1.5708	50254352.70670458
1.57351	49337392.35616338
1.57621	49809528.07741339
1.57891	50031905.757866934
1.58161	50760277.101571165
1.5843	51681527.23443391
1.587	51867934.53433006
1.58969	50893388.36351476
1.59238	49488484.47899677
1.59506	48835992.52072565
1.59774	48372894.8292372
1.60042	47615247.541241065
1.6031	45874480.93765311
1.60577	44266392.91638135
1.60844	43318984.898313776
1.61111	42577811.9429947
1.61378	41376823.12076885
1.61644	39623701.60346694
1.6191	37726454.53880065
1.62176	35731408.98231847
1.62441	33839936.03217675
1.62707	32660448.42465308
1.62971	31081506.58545563
1.63236	30669481.990033455
1.635	33177045.25420175
1.63764	36542084.152581856
1.64028	37513579.68453735
1.64292	34908353.46194781
1.64555	29257225.66843694
1.64818	26829500.836094223
1.65081	29490093.34060783
1.65343	32721653.813766405
1.65605	32701735.6195913
1.65867	32016667.341542177
1.66128	31222611.824439432
1.6639	26648290.485365897
1.66651	17493972.513043374
1.66911	15446779.317521535
1.67172	21646445.8586128
1.67432	25253200.887964796
1.67692	24505644.971849434
1.67951	23137791.02377509
1.68211	23595242.669719256
1.6847	22807903.743619103
1.68728	20691537.42883022
1.68987	19988864.181100182
1.69245	18092952.06779895
1.69503	14790806.473129954
1.6976	14293491.931564888
1.70018	15641189.040651266
1.70275	15194396.656352153
1.70531	15786130.745385569
1.70788	17445349.80677963
1.71044	17756975.971343327
1.713	18989170.068510696
1.71556	19886296.799215034
1.71811	19932129.216372468
1.72066	20142157.233182125
1.72321	19209007.65533607
1.72575	18114388.30027977
1.7283	17576392.321183953
1.73084	16816286.87686963
1.73337	16108643.853052108
1.73591	15751225.213702314
1.73844	15171235.792868614
1.74097	14506892.861841252
1.74349	13818513.78599541
1.74602	13292875.016920308
1.74854	13032084.589188633
1.75105	12070428.25781226
1.75357	9909484.103144597
1.75608	8626999.455147153
1.75859	8870820.525393926
1.7611	9186498.92746222
1.7636	9091612.819995297
1.7661	7886757.201750241
1.7686	6527717.095407445
1.7711	6155240.942927325
1.77359	5462717.246452813
1.77608	4228328.342884642
1.77857	3590714.3938699197
1.78105	3686932.7353166468
1.78354	3697250.6439669076
1.78602	3043002.9512835424
1.78849	2441163.992334488
1.79097	2203229.075693924
1.79344	2057556.5876864765
1.79591	2224762.802263077
1.79837	2528561.4493659963
1.80084	1755274.972516587
1.8033	1074300.1599409769
1.80576	867960.3224302371
1.80821	801750.4031702833
1.81067	692191.7035333588
1.81312	594477.0877781856
1.81557	580560.0770826808
1.81801	606095.3849657456
1.82046	596165.6268736344
1.8229	621699.10732073
1.82533	575159.4094172989
1.82777	511049.29333013744
1.8302	545925.8217734189
1.83263	620098.7264059582
1.83506	599924.6180086953
1.83749	592794.972195584
1.83991	989814.9862364773
1.84233	1686661.724897305
1.84475	2220886.5836051656
1.84716	2100597.7473873273
1.84957	1525885.7816047077
1.85198	1123467.4568463606
1.85439	866217.7845713294
1.8568	1033483.6661187462
1.8592	1242818.9307059431
1.8616	977840.3268590481
1.864	816695.4206029872
1.86639	1052193.6734619075
1.86878	1134141.5749022355
1.87118	877514.0693377989
1.87356	949690.1162370129
1.87595	1570292.7731220508
1.87833	2543684.219419162
1.88071	3312543.2213662867
1.88309	2923706.0746613587
1.88547	2402778.285461102
1.88784	2434821.9451953066
1.89021	2325981.8027194273
1.89258	3161873.159193581
1.89494	4328269.254380501
1.89731	3527953.605152457
1.89967	1865669.2153728697
1.90203	985566.0590462661
1.90439	1175375.38431072
1.90674	1920932.8524315774
1.90909	2106994.1516923127
1.91144	1490228.6504610619
1.91379	881813.0368528413
1.91613	714339.6402681688
1.91848	643207.0414095039
1.92082	486742.6042510627
1.92315	453838.1067672234
1.92549	585598.2096660839
1.92782	662947.2185888725
1.93015	710045.3922153803
1.93248	832223.2249109158
1.93481	1003614.5540645893
1.93713	1162192.3522908194
1.93945	1283919.755457692
1.94177	1441063.050397481
1.94409	1465947.8551538195
1.94641	1342684.8091677346
1.94872	1507766.214163405
1.95103	1762381.3782885412
1.95334	1363236.0973877527
1.95564	1016144.5893598655
1.95795	1062997.7602730573
1.96025	1294025.2634563386
1.96255	1658693.8655610436
1.96484	2200545.1188035053
1.96714	2903962.9754238427
1.96943	3493353.420440244
1.97172	3550140.0762971765
1.97401	3131831.484289752
1.97629	2960617.336883069
1.97858	2972235.4163911478
1.98086	3329931.79937931
1.98314	4231200.405057921
1.98541	4981738.339312992
1.98769	4971221.146449423
1.98996	4403676.65308018
1.99223	4141804.9262385834
1.9945	4513754.737671662
1.99677	4894193.833095394
1.99903	5196310.664149124
2.00129	5329754.6679422725
2.00355	5211704.947562153
2.00581	5127905.256862172
2.00806	5755745.711508824
2.01031	6777659.063133614
2.01256	7148968.85493569
2.01481	6920514.608589268
2.01706	6679767.350681887
2.0193	6776040.428274025
2.02154	7137922.630629362
2.02378	7310101.316110442
2.02602	7346810.959839943
2.02825	7540110.239738892
2.03049	7690068.881668607
2.03272	7799363.296273528
2.03494	7914637.576697402
2.03717	8064991.205980137
2.03939	8302485.989835752
2.04162	8465069.511382975
2.04384	8751066.241189508
2.04605	9137050.264558826
2.04827	9445343.13761073
2.05048	9385706.493859723
2.05269	9100083.696760153
2.0549	9075767.572731065
2.05711	9276895.259519257
2.05931	9517753.857374983
2.06151	9621332.581619518
2.06371	9583962.503400804
2.06591	9603698.953472307
2.06811	9637174.296735512
2.0703	9640247.262391308
2.07249	9591201.254028942
2.07468	9500310.497141002
2.07686	9444587.13482412
2.07905	9422199.774363775
2.08123	9406883.140847463
2.08341	9390964.3292342
2.08559	9389163.333389873
2.08776	9395315.301778836
2.08994	9385602.614170326
2.09211	9353803.200172622
2.09428	9307522.490120078
2.09645	9276923.348166727
2.09861	9223557.85409504
2.10077	9149942.04135724
2.10293	9065344.022824353
2.10509	8978693.167555211
2.10725	8895454.129450386
2.1094	8859656.64227061
2.11155	8842853.253827188
2.1137	8825745.504194872
2.11585	8784797.132294564
2.11799	8730415.068094876
2.12013	8684371.977777986
2.12227	8648170.600831432
2.12441	8619734.047438048
2.12655	8573077.743623056
2.12868	8524263.256975122
2.13081	8481127.506295882
2.13294	8437792.539148774
2.13507	8353361.050728007
2.13719	8261612.879287255
2.13931	8168926.381597394
2.14143	8063567.366788152
2.14355	7904907.001916971
2.14567	7845614.7155741025
2.14778	7793935.162881863
2.14989	7719097.732390135
2.152	7580700.143243844
2.1541	7564437.346009898
2.15621	7558163.9201667765
2.15831	7525257.735993316
2.16041	7405376.425567907
2.16251	7343617.743990883
2.1646	7278380.632314624
2.1667	7201055.0319444
2.16879	7144451.211078291
2.17087	7079838.298076979
2.17296	7007514.211386357
2.17504	6926078.179382495
2.17713	6798755.175382534
2.1792	6660926.076113842
2.18128	6523530.543364316
2.18336	6401642.008659275
2.18543	6257681.676739181
2.1875	6054009.609062507
2.18957	5768818.003169951
2.19163	5315136.58249902
2.1937	4825223.517169825
2.19576	4358444.006445735
2.19782	3943583.134682546
2.19987	3539704.8426072737
2.20193	3204469.002029539
2.20398	2968897.2543878923
2.20603	2955779.460206702
2.20808	3184075.0908817197
2.21012	3490528.6771658435
2.21217	3805819.2704011872
2.21421	3946906.377359277
2.21625	3968185.2397059225
2.21828	3879861.1112053096
2.22032	3732291.6639154316
2.22235	3616821.021970536
2.22438	3509548.045905667
2.22641	3370914.090286248
2.22843	3255468.1037605642
2.23046	3157725.4999977374
2.23248	3083760.5890960456
2.2345	2996270.3009133823
2.23651	2908307.1504575787
2.23853	2820859.9534236337
2.24054	2650368.182549028
2.24255	2407315.74150518
2.24456	2111550.6008696435
2.24657	2012220.8235733558
2.24857	2102008.866329942
2.25057	2301851.8372663925
2.25257	2367231.1438620603
2.25457	2355508.672854961
2.25656	2311187.3292755913
2.25856	2315005.952866067
2.26055	2270704.0477725915
2.26254	2204794.2461117785
2.26453	2141651.1565927626
2.26651	2176017.000323888
2.2685	2267847.4492442347
2.27048	2419908.2613606555
2.27246	2545950.968348644
2.27443	2630172.519293741
2.27641	2591865.2642206396
2.27838	2494940.2580495304
2.28036	2371762.161522654
2.28233	2255626.6047049104
2.28429	2164152.6056026476
2.28626	2085642.7323452437
2.28823	2012576.073915844
2.29019	1970063.0608808738
2.29215	1951538.6414570936
2.29411	1987833.8160199507
2.29607	2014702.6372699956
2.29802	2033729.4117887146
2.29998	2071504.551948483
2.30193	2188195.7361540077
2.30388	2395296.948191139
2.30583	2767915.4128580387
2.30778	3138546.4340571444
2.30972	3478754.0763917966
2.31167	3494112.830854774
2.31361	3293156.1552010654
2.31555	2677481.680381559
2.31749	2124414.1919299355
2.31943	1662081.7987475088
2.32137	1643889.3960132303
2.32331	1654655.5028631995
2.32524	1688306.804565172
2.32718	1634059.3579727923
2.32911	1605066.3828776744
2.33104	1614098.9910145279
2.33297	1622813.7667654927
2.3349	1621854.002958323
2.33683	1591052.5368443558
2.33876	1547235.3736459636
2.34068	1496092.9227724355
2.34261	1432270.231641638
2.34453	1398077.1910849633
2.34646	1397084.4985061015
2.34838	1493546.6867853862
2.3503	1624391.4511751952
2.35223	1811292.420292112
2.35415	1990566.3344545471
2.35607	2166562.760959847
2.35799	2342175.400224809
2.35991	2507995.6632256974
2.36183	2661997.5410802616
2.36375	2589238.772427311
2.36566	2400494.78992269
2.36758	1952689.546726429
2.3695	1554038.7931784333
2.37142	1186897.32786657
2.37334	1226150.404221882
2.37526	1322132.1147405934
2.37718	1509115.348675908
2.3791	1632554.5730966667
2.38101	1729472.9516211203
2.38293	1791603.5388744602
2.38485	1881715.2558414123
2.38677	2000397.178936977
2.3887	2099841.7688998724
2.39062	2178691.5025371364
2.39254	2204661.8159690225
2.39446	2226233.191527236
2.39639	2245082.399404659
2.39831	2312463.1388706765
2.40024	2355901.4578110427
2.40216	2351719.613517416
2.40409	2336999.814838368
2.40602	2330628.904492119
2.40795	2474341.3093682397
2.40989	2637718.281526433
2.41182	2823402.5149148535
2.41376	2866472.159875253
2.4157	2864463.463715242
2.41764	2808187.6199839166
2.41958	2800719.6872771205
2.42152	2832936.691571585
2.42347	2881292.8835409964
2.42542	2955389.2771108826
2.42737	3089832.61159381
2.42932	3282418.5102749816
