#wavelength	surface flux
0.8	85542454.31116809
0.8002000000000001	86761863.88870955
0.8004000500000003	88284357.78634804
0.8006001500125003	89810290.6782005
0.8008003000500035	91336605.05327602
0.8010005001250161	92863301.00694601
0.8012007502500472	94390378.63460222
0.8014010504376099	96168295.40486117
0.8016014007002193	98030552.22257806
0.8018018010503944	99893274.60449937
0.8020022515006572	101756462.667017
0.8022027520635323	103620116.52654864
0.8024033027515483	105420652.65568371
0.8026039035772362	107159329.42590725
0.8028045545531306	108898440.86532342
0.8030052556917691	110637987.0826003
0.803206007005692	112377968.18642996
0.8034068085074435	113972473.06024644
0.8036076602095705	115158365.99287115
0.8038085621246229	116344555.3987281
0.8040095142651542	117531041.35193723
0.8042105166437206	118717823.92663428
0.8044115692728815	119907670.24189727
0.8046126721651998	121216829.49604963
0.8048138253332411	122526316.04001449
0.8050150287895745	123836129.95561653
0.805216282546772	125146271.32469715
0.8054175866174087	126456740.22911933
0.8056189410140631	127939877.1501609
0.8058203457493168	129472168.36620075
0.8060218008357541	131004842.65504265
0.8062233062859632	132537900.11245751
0.8064248621125346	134071340.83423568
0.806626468328063	135675775.04970744
0.8068281249451449	137341255.9364126
0.8070298319763813	139007153.1933415
0.8072315894343755	140673466.92458335
0.8074333973317341	142340197.23425865
0.8076352556810671	144031829.57876974
0.8078371644949874	145782825.1628565
0.8080391237861113	147534258.49583966
0.8082411335670578	149286129.687155
0.8084431938504498	151038438.84627
0.8086453046489125	152796257.82956097
0.8088474659750746	154648943.10817423
0.8090496778415686	156502091.5581096
0.809251940261029	158355703.29515615
0.8094542532460944	160209778.43513852
0.8096566168094059	162064317.09390378
0.8098590309636085	163581041.96297407
0.8100614957213493	165018969.41995755
0.8102640110952797	166457256.35880548
0.8104665770980536	167895902.86938867
0.8106691937423283	169334909.04160008
0.8108718610407639	170573976.1426255
0.8110745790060241	171660195.0136383
0.8112773476507757	172746685.43936974
0.8114801669876885	173833447.48770735
0.8116830370294355	174920481.2265564
0.8118859577886929	176097300.18583956
0.8120889292781401	177460336.72466528
0.8122919515104597	178823714.02262563
0.8124950244983374	180187432.16491053
0.8126981482544621	181551491.23673078
0.8129013227915257	182921037.34014228
0.8131045481222237	184349848.50945503
0.8133078242592543	185779016.88156024
0.8135111512153191	187208542.5457581
0.813714529003123	188638425.5913722
0.8139179576353739	190068666.1077479
0.8141214371247829	190998305.20067403
0.8143249674840641	191831032.33041656
0.814528548725935	192663967.641941
0.8147321808631167	193497111.1872945
0.8149358639083326	194330463.01853406
0.8151395978743097	194537706.73651975
0.8153433827737784	194321836.593025
0.8155472186194719	194105912.48199445
0.8157511054241268	193889934.3899362
0.815955043200483	193673902.30335477
0.8161590319612831	192325021.52954608
0.8163630717192736	188900095.36788243
0.8165671624872033	185474312.97468215
0.8167713042778252	182047674.1358802
0.8169754971038948	178620178.63736686
0.8171797409781707	174454539.2372953
0.8173840359134155	164401867.7406612
0.8175883819223938	154346683.07616454
0.8177927790178745	144288984.61549598
0.8179972272126291	134228771.73020965
0.8182017265194322	124166043.79171214
0.8184062769510622	121454972.03650534
0.8186108785203001	119874920.71621823
0.8188155312399301	118294474.3831032
0.8190202351227402	116713632.93840311
0.819224990181521	115132396.28334287
0.8194297964290664	121186415.92488396
0.8196346538781738	131844324.53254016
0.8198395625416434	142504897.61734402
0.8200445224322789	153168135.84542358
0.820249533562887	163834039.883057
0.8204545959462778	171903062.28787422
0.8206597095952644	175790199.4457137
0.8208648745226633	179678308.38784567
0.8210700907412941	183567389.35721254
0.8212753582639793	187457442.5968178
0.8214806771035456	191115862.1996844
0.8216860472728215	193342059.128511
0.8218914687846397	195568812.60656992
0.822096941651836	197796122.7729995
0.822302465887249	200023989.7669694
0.8225080415037209	202252413.727689
0.8227136685140968	204258336.2647189
0.8229193469312254	206239438.47736555
0.8231250767679583	208221035.96556604
0.8233308580371503	210203128.8531375
0.8235366907516598	212185717.26393232
0.8237425749243477	214345650.08988747
0.8239485105680789	216599855.8550211
0.824154497695721	218854625.17159453
0.824360536320145	221109958.18049756
0.8245666264542252	223365855.0226527
0.8247727681108388	224801712.59463295
0.8249789613028664	225062670.83704582
0.8251852060431922	225323694.3190195
0.825391502344703	225584783.05686358
0.8255978502202894	225845937.06689233
0.8258042496828445	225805188.90532038
0.8260107007452654	224297904.32098225
0.8262172034204517	222790242.91549957
0.8264237577213068	221282204.59466514
0.8266303636607373	219773789.26424983
0.8268370212516525	218264996.83000267
0.8270437305069654	218124920.8237976
0.8272504914395923	218091795.56753424
0.8274573040624523	218058662.02995682
0.8276641683884679	218025520.208995
0.8278710844305652	217992370.10257792
0.8280780522016729	218006598.4034601
0.8282850717147234	218042490.63186994
0.8284921429826521	218078391.8333369
0.8286992660183978	218114302.0101042
0.8289064408349024	218150221.1644157
0.8291136674451112	218157823.61140764
0.8293209458619727	218129710.68694973
0.8295282760984382	218101590.73426077
0.829735658167463	218073463.75158358
0.8299430920820048	218045329.73716074
0.8301505778550254	218166048.20321172
0.8303581154994891	218880938.76085678
0.8305657050283641	219596008.04114193
0.8307733464546212	220311256.08874664
0.8309810397912352	221026682.94836438
0.8311887850511829	221742288.66469562
0.8313965822474458	222986195.98276812
0.8316044313930077	224254927.24582714
0.8318123325008561	225523975.6917031
0.8320202855839813	226793341.39968994
0.8322282906553774	228063024.44910386
0.8324363477280413	229059395.90298215
0.8326444568149735	229945854.37308857
0.8328526179291771	230832534.45781147
0.8330608310836596	231719436.2125569
0.8332690962914304	232606559.69273984
0.8334774135655034	233056195.92912588
0.833685782918895	233017009.2199734
0.8338942043646247	232977812.71414366
0.834102677915716	232938606.40918744
0.834311203585195	232899390.302655
0.8345197813860912	232914107.3510817
0.8347284113314379	233110405.1232485
0.8349370934342709	233306751.9698582
0.8351458277076294	233503147.90317935
0.8353546141645565	233699592.9354841
0.8355634528180977	233896087.0790469
0.8357723436813022	234603976.49915102
0.8359812867672226	235318356.71368414
0.8361902820889144	236032915.52327052
0.8363993296594368	236747652.9725595
0.8366084294918518	237462569.10621107
0.8368175815992247	237448707.23004043
0.8370267859946247	237183781.70031318
0.8372360426911234	236918789.9392036
0.8374453517017962	236653731.93015376
0.8376547130397217	236388607.65660167
0.8378641267179816	236779994.02522287
0.8380735927496613	237822973.22602838
0.8382831111478488	238866213.1716335
0.8384926819256358	239909713.9272245
0.8387023050961173	240953475.55800524
0.8389119806723914	241635010.06267524
0.8391217086675596	241296555.08509248
0.8393314890947265	240958015.49376562
0.8395413219670003	240619391.26754087
0.8397512072974922	240280682.38525933
0.8399611450993165	239960988.69783616
0.8401711353855914	240589707.9084926
0.8403811781694378	241218584.29895154
0.8405912734639802	241847617.90850824
0.8408014212823464	242476808.77646762
0.8410116216376671	243106156.94214392
0.8412218745430766	242258652.9844231
0.8414321800117124	240981184.39355484
0.8416425380567154	239703396.43553823
0.8418529486912297	238425289.03053182
0.8420634119284025	237146862.09867525
0.8422739277813847	237215301.395253
0.8424844962633302	238470680.7982746
0.842695117387396	239726374.04614535
0.8429057911667428	240982381.21732813
0.8431165176145345	242238702.3903043
0.8433272967439382	241281615.8884786
0.8435381285681244	234924408.88897297
0.8437490131002665	228565612.58771887
0.8439599503535415	222205226.58739343
0.84417094034113	215843250.49056333
0.8443819830762154	209658554.54534474
0.8445930785719846	207075676.87358928
0.8448042268416277	204492153.48241732
0.8450154278983382	201907984.21039787
0.8452266817553128	199323168.89606062
0.8454379884257517	196737707.3778945
0.8456493479228583	196515622.991408
0.845860760259839	196862768.35380918
0.846072225449904	197210000.502551
0.8462837435062666	197557319.45933002
0.8464953144421433	197904725.24584848
0.8467069382707537	198651072.82917088
0.8469186150053215	199708502.17975023
0.847130344659073	200766195.8876675
0.8473421272452377	201824154.01901075
0.8475539627770492	202882376.6398879
0.8477658512677435	204014405.3360653
0.8479777927305605	205302872.77228314
0.8481897871787432	206591662.32535967
0.848401834625538	207880774.07582524
0.8486139350841944	209170208.1042276
0.8488260885679657	210403733.43846205
0.8490382950901076	210952130.58401397
0.8492505546638802	211500664.82885256
0.8494628673025462	212049336.20725217
0.8496752330193721	212598144.75349718
0.8498876518276269	213147090.50187802
0.8501001237405839	212053841.30393437
0.8503126487715191	210632480.44599685
0.850525226933712	209210764.24784562
0.8507378582404455	207788692.62064487
0.8509505427050057	206366265.4755365
0.8511632803406821	204789966.16024262
0.8513760711607672	203108142.03565222
0.8515889151785576	201425897.45502803
0.8518018124073523	199743232.3132601
0.8520147628604541	198060146.50520775
0.8522277665511693	197789854.17914864
0.8524408234928071	200133063.21665382
0.8526539336986805	202476858.056419
0.8528670971821053	204821238.84489423
0.8530803139564007	207166205.72856382
0.8532935840348901	209551258.45143947
0.8535069074308987	212270501.72255087
0.8537202841577566	214990424.80448234
0.8539337142287962	217711027.86718458
0.8541471976573534	220432311.0806508
0.8543607344567677	223154274.6149209
0.8545743246403821	223365795.34519652
0.8547879682215422	223178573.87572283
0.8550016652135977	222991305.6008818
0.8552154156299011	222803990.50897205
0.8554292194838088	222616628.58828917
0.8556430767886797	222295575.06306192
0.855856987557877	221893295.70348027
0.8560709518047664	221490915.77405897
0.8562849695427177	221088435.2496552
0.8564990407851035	220685854.10512015
0.8567131655452999	220039590.48753837
0.8569273438366862	218994048.35024434
0.8571415756726455	217948244.82741582
0.8573558610665638	216902179.8537062
0.8575702000318304	215855853.3637543
0.8577845925818384	215324790.57948577
0.857999038729984	218013755.8951634
0.8582135384896665	220703393.4521693
0.858428091874289	223393703.41856462
0.8586426988972576	226084685.96245083
0.8588573595719821	228776341.25197393
0.8590720739118751	228757279.03619257
0.8592868419303532	228418531.02283594
0.8595016636408359	228079698.322476
0.8597165390567462	227740780.91394106
0.8599314681915105	227401778.7760539
0.8601464510585584	225755464.8090097
0.860361487671323	223414872.255448
0.8605765780432408	221073694.5537486
0.8607917221877518	218731931.55762187
0.8610069201182988	216389583.12074673
0.8612221718483286	211673973.91136277
0.8614374773912907	203536653.4255412
0.8616528367606385	195397298.6096004
0.8618682499698288	187255908.95495045
0.8620837170323213	179112483.9528882
0.8622992379615795	172287409.20105353
0.8625148127710699	171994713.15704188
0.8627304414742627	171701943.93901923
0.8629461240846313	171409101.52869204
0.8631618606156526	171116185.90776223
0.8633776510808066	170823197.05792722
0.8635934954935769	175089839.55706817
0.8638093938674504	179731315.94942853
0.8640253462159173	184373952.7108868
0.8642413525524714	189017750.13153535
0.8644574128906095	193662708.50153807
0.8646735272438323	195192363.4206378
0.8648896956256433	195273158.31924912
0.8651059180495498	195353973.41658515
0.8653221945290621	195434808.71769544
0.8655385250776946	195515664.22763112
0.8657549097089641	197073041.78428838
0.8659713484363913	200521055.60393736
0.8661878412735006	203969931.42704287
0.866404388233819	207419669.46910366
0.8666209893308775	210870269.9456734
0.8668376445782103	213631297.99018145
0.8670543539893549	213575000.2285302
0.8672711175778525	213518688.3924385
0.8674879353572469	213462362.47838783
0.8677048073410862	213406022.48285863
0.8679217335429217	213349668.40233052
0.8681387139763074	211271867.14926732
0.8683557486548015	209093126.80033156
0.8685728375919655	206913841.76630592
0.8687899808013633	204734011.9110265
0.8690071782965637	202553637.09828043
0.869224430091138	200578798.03912047
0.8694417361986609	198687319.3064427
0.8696590966327107	196795367.7040822
0.869876511406869	194902943.11382097
0.8700939805347206	193010045.41741312
0.8703115040298544	191666197.2995544
0.870529081905862	190950276.75449106
0.8707467141763385	190234177.22929168
0.8709644008548827	189517898.67921105
0.8711821419550964	188801441.0594933
0.8713999374905854	188606177.41576508
0.871617787474958	190210304.3872483
0.8718356919218269	191814832.39047587
0.8720536508448075	193419761.52570435
0.8722716642575187	195025091.8932157
0.8724897321735832	196630823.5933196
0.8727078546066265	198918400.5577245
0.8729260315702784	201216916.41244975
0.873144263078171	203516006.89613625
0.8733625491439405	205815672.15244386
0.8735808897812266	208115912.32506645
0.8737992850036719	208546824.87278572
0.874017734824923	208315556.36401677
0.8742362392586293	208084230.03812072
0.874454798318444	207852845.88064322
0.8746734120180236	207621403.87712634
0.8748920803710283	207921509.68628374
0.875110803391121	208755903.568469
0.8753295810919689	209590506.04912525
0.875548413487242	210425317.18040165
0.8757673005906139	211260337.01446092
0.8759862424157616	213125138.68521026
0.8762052389763657	217969524.8567165
0.8764242902861098	222815122.12476227
0.8766433963586814	227661930.79212636
0.8768625572077712	232509951.16165876
0.8770817728470732	237326885.99548098
0.8773010432902849	239623314.57147753
0.8775203685511077	241920317.2546214
0.8777397486432454	244217894.18843314
0.8779591835804065	246516045.51648113
0.8781786733763015	248814771.38235813
0.8783982180446457	246925149.57677597
0.878617817599157	243788929.26270404
0.8788374720535569	240651924.89355505
0.8790571814215703	237514136.2733146
0.8792769457169257	234375563.20591897
0.879496764953355	232569547.4206066
0.8797166391445934	231961842.09771058
0.8799365683043796	231353984.84848374
0.8801565524464557	230745975.63494462
0.8803765915845676	230137814.41910154
0.8805966857324639	230354466.86584336
0.880816834903897	232643240.00676408
0.881037039112623	234932585.34097096
0.8812572983724012	237222503.01151118
0.8814776126969944	239512993.16147003
0.8816979821001687	241748310.78283915
0.8819184065956938	242671936.99313512
0.8821388861973429	243595794.10998464
0.8823594209188923	244519882.1911125
0.882580010774122	245444201.29426017
0.8828006557768155	246368751.47718418
0.8830213559407598	250571269.85853046
0.8832421112797452	255599223.01166436
0.8834629218075651	260628433.1530835
0.8836837875380171	265658900.59703952
0.8839047084849018	270690625.65785736
0.884125684662023	269805010.38905954
0.8843467160831886	264176173.10233432
0.8845678027622095	258545928.60628742
0.8847889447129001	252914276.54911548
0.8850101419490785	247281216.57893023
0.8852313944845657	243199089.66117167
0.885452702333187	242513826.959805
0.8856740655087704	241828392.94276306
0.8858954840251476	241142787.56721708
0.8861169578961539	240457010.7903275
0.886338487135628	239466035.76251027
0.886560071757412	234415697.18090114
0.8867817117753515	229364096.0146467
0.8870034072032955	224311231.94809848
0.8872251580550963	219257104.6655395
0.8874469643446101	214201713.85115677
0.8876688260856963	214093527.76908642
0.8878907432922178	215009463.63145754
0.8881127159780409	215925628.47779363
0.8883347441570356	216842022.36534244
0.8885568278430749	217758645.35136214
0.8887789670500358	218097445.56410205
0.8890011617917983	218026275.67322183
0.8892234120822464	217955087.98986885
0.8894457179352669	217883882.50959507
0.8896680793647509	217812659.22795117
0.8898904963845921	218572673.55412185
0.8901129690086883	220918935.09413937
0.8903354972509405	223265783.1995413
0.8905580811252535	225613218.0169714
0.8907807206455347	227961239.69310272
0.8910034158256963	230293791.16072264
0.8912261666796527	232483423.0254729
0.8914489732213227	234673602.29818997
0.8916718354646282	236864329.11572734
0.8918947534234944	239055603.614967
0.8921177271118502	241247425.9328301
0.8923407565436284	241588163.41643798
0.8925638417327644	241626934.42812744
0.8927869826931977	241665715.13256985
0.8930101794388711	241704505.53218833
0.8932334319837308	241743305.62940675
0.8934567403417267	241664570.9359172
0.8936801045268123	241512776.4945186
0.8939035245529441	241360944.10450977
0.8941270004340824	241209073.75640336
0.894350532184191	241057165.44070995
0.8945741198172371	242264778.55584514
0.8947977633471915	245727360.6789696
0.8950214627880284	249190808.44762468
0.8952452181537254	252655122.0782199
0.8954690294582639	256120301.78722483
0.8956928967156286	259507363.9837308
0.8959168199398075	262382696.1718598
0.8961407991447926	265258747.19303656
0.8963648343445789	268135517.22696856
0.896588925553165	271013006.4534074
0.8968130727845534	273891215.0521532
0.8970372760527496	275716251.445854
0.8972615353717629	277409881.0163945
0.8974858507556059	279103933.99432784
0.8977102222182949	280798410.48550516
0.8979346497738496	282493310.59580624
0.8981591334362931	283962940.83620787
0.8983836732196523	285309511.9639627
0.8986082691379572	286656419.7344986
0.8988329212052417	288003664.23197716
0.8990576294355432	289351245.5405812
0.8992823938429022	290324618.0518513
0.8995072144413631	290741332.0587293
0.8997320912449734	291158150.2441089
0.8999570242677847	291575072.63403475
0.9001820135238516	291992099.2545581
0.9004070590272328	292772159.71935964
0.9006321607919896	295455015.9158108
0.9008573188321878	298138542.8263138
0.9010825331618959	300822740.6185431
0.9013078037951865	303507609.46022093
0.9015331307461353	306193149.5191077
0.9017585140288219	307049227.3374951
0.9019839536573292	307747885.02247053
0.9022094496457435	308446717.37186676
0.9024350020081551	309145724.4293511
0.9026606107586572	309844906.23859954
0.902886275911347	311374286.12924635
0.9031119974803249	313304177.36365724
0.9033377754796951	315234551.0708768
0.903563609923565	317165407.37152225
0.903789500826046	319096746.3862442
0.9040154482012526	320313690.14666736
0.904241452063303	320604875.9980317
0.9044675124263188	320896134.6458588
0.9046936293044254	321187466.1083479
0.9049198027117517	321478870.4037027
0.9051460326624297	321066122.0012168
0.9053723191705955	317654514.1961616
0.9055986622503881	314242053.4891584
0.9058250619159507	310828739.66697824
0.9060515181814298	307414572.5163404
0.9062780310609752	303999551.82391727
0.9065046005687405	306086203.8308545
0.906731226718883	308480347.1833768
0.9069579095255627	310875089.07173413
0.907184649002944	313270429.6455637
0.907411445165195	315666369.0545392
0.9076382980264862	317565597.6431921
0.907865207600993	319258769.1979677
0.9080921739028933	320952364.0456315
0.9083191969463691	322646382.292007
0.9085462767456058	324340824.0429449
0.9087734133147922	326600684.5492685
0.9090006066681211	329513686.4163853
0.909227856819788	332427416.5339651
0.9094551637839932	335341875.08407825
0.9096825275749393	338257062.24882805
0.9099099482068329	340798302.33178866
0.9101374256938848	342008573.1555707
0.9103649600503083	343219146.5470581
0.9105925512903209	344430022.5818932
0.9108201994281437	345641201.33573824
0.9110479044780008	346852682.8842703
0.9112756664541204	349973380.8249832
0.911503485370734	353138553.63416165
0.9117313612420768	356304517.73654246
0.9119592940823873	359471273.3299479
0.912187283905908	362638820.6122527
0.9124153307268845	363559661.2975873
0.9126434345595664	363665021.613291
0.9128715954182063	363770408.2690736
0.9130998133170609	363875821.2715202
0.9133280882703902	363981260.62721735
0.913556420292458	364794161.34720284
0.9137848093975312	366336853.4580154
