#wavelength	surface flux
0.7	8297787.055975241
0.7001166666666666	8316690.983446826
0.7002333527777778	8323184.681164303
0.700350058336574	8329679.461164729
0.7004667833462966	8336175.32362848
0.7005835278101878	8342672.268735992
0.7007002917314895	8349170.296667679
0.7008170751134447	8355669.40760402
0.7009338779592968	8362169.601725514
0.7010507002722901	8363566.581817707
0.7011675420556689	8358752.204158711
0.701284403312678	8353937.024103448
0.7014012840465635	8349121.041518168
0.7015181842605713	8344304.256269124
0.701635103957948	8339486.668222543
0.701752043141941	8334668.277244621
0.701869001815798	8329849.083201529
0.7019859799827672	8320767.052525729
0.7021029776460976	8308717.372893737
0.7022199948090387	8296665.68498179
0.7023370314748403	8284611.988455197
0.7024540876467528	8272556.282979185
0.702571163328027	8260498.568218946
0.7026882585219152	8248438.843839549
0.7028053732316688	8236377.109506107
0.7029225074605406	8238780.741004921
0.7030396612117841	8246771.290520243
0.7031568344886527	8254763.171793819
0.7032740272944008	8262756.385047603
0.7033912396322832	8270750.9305036
0.7035084715055552	8278746.808383832
0.7036257229174727	8286744.018910379
0.7037429938712924	8294742.562305355
0.7038602843702709	8313907.881220387
0.7039775944176659	8334970.135098143
0.7040949240167356	8356035.899351553
0.7042122731707383	8377105.174565662
0.7043296418829335	8398177.961325651
0.7044470301565806	8419254.260216763
0.70456443799494	8440334.07182434
0.7046818654012724	8461417.396733865
0.7047993123788394	8460462.189496476
0.7049167789309024	8459481.528831892
0.7050342650607243	8458500.704723861
0.7051517707715678	8457519.717145147
0.7052692960666963	8456538.566068502
0.705386840949374	8455557.251466678
0.7055044054228656	8454575.77331242
0.7056219894904361	8454796.397383165
0.7057395931553511	8462657.32942647
0.705857216420877	8470519.57162512
0.7059748592902804	8478383.124197464
0.7060925217668288	8486247.987361914
0.70621020385379	8494114.16133689
0.7063279055544321	8501981.64634085
0.7064456268720246	8509850.442592325
0.7065633678098366	8518656.51119258
0.7066811283711383	8530041.700905183
0.7067989085592001	8541428.788149402
0.7069167083772933	8552817.773241488
0.7070345278286895	8564208.656497765
0.707152366916661	8575601.438234586
0.7072702256444803	8586996.11876835
0.7073881040154211	8598392.698415551
0.7075060020327569	8601882.244030695
0.7076239196997625	8593854.216831159
0.7077418570197124	8585824.851627097
0.7078598139958823	8577794.1481955
0.7079777906315483	8569762.106313324
0.7080957869299869	8561728.725757508
0.7082138028944751	8553694.006304935
0.7083318385282908	8545657.947732449
0.7084498938347124	8540678.589913199
0.708567968817018	8538291.071080035
0.7086860634784875	8535903.154327061
0.7088041778224007	8533514.83958796
0.7089223118520377	8531126.126796406
0.7090404655706796	8528737.015886055
0.709158638981608	8526347.506790549
0.709276832088105	8523957.599443527
0.7093950448934531	8529274.837044017
0.7095132774009353	8538268.77138317
0.7096315296138355	8547264.204711385
0.7097498015354378	8556261.137278484
0.7098680931690269	8565259.569334337
0.7099864045178884	8574259.501128877
0.7101047355853081	8583260.932912046
0.7102230863745722	8592263.86493384
0.7103414568889679	8572523.804835761
0.7104598471317828	8546249.028786449
0.7105782571063047	8519969.873607816
0.7106966868158224	8493686.338569988
0.710815136263625	8467398.422942992
0.7109336054530023	8441106.125996709
0.7110520943872445	8414809.447000945
0.7111706030696424	8388508.385225331
0.7112891315034873	8387537.094021582
0.7114076796920712	8387774.406388671
0.7115262476386865	8388011.758307821
0.7116448353466263	8388249.149785624
0.711763442819184	8388486.580828673
0.711882070059654	8388724.051443564
0.7120007170713306	8388961.56163689
0.7121193838575091	8390157.187450122
0.7122380704214853	8401345.500335742
0.7123567767665555	8412535.677940162
0.7124755028960166	8423727.72057419
0.7125942488131658	8434921.628548648
0.7127130145213015	8446117.402174467
0.7128318000237216	8457315.041762521
0.7129506053237256	8468514.547623856
0.7130694304246129	8473384.702412121
0.7131882753296837	8456119.50159401
0.7133071400422386	8438851.423242427
0.7134260245655789	8421580.466877798
0.7135449289030065	8404306.632020434
0.7136638530578235	8387029.918190604
0.7137827970333332	8369750.324908444
0.7139017608328388	8352467.8516940735
0.7140207444596443	8338341.204114698
0.7141397479170543	8329847.020185909
0.7142587712083737	8321351.420559811
0.7143778143369084	8312854.405000435
0.7144968773059646	8304355.973271798
0.7146159601188489	8295856.125137876
0.7147350627788687	8287354.860362597
0.7148541852893318	8278852.178709858
0.7149733276535467	8274192.127618435
0.7150924898748222	8273407.5516078
0.715211671956468	8272622.844834496
0.7153308739017941	8271838.00727673
0.715450095714111	8271053.038912704
0.71556933739673	8270267.939720618
0.7156885989529628	8269482.709678666
0.7158078803861218	8268697.348765039
0.7159271816995193	8253151.651170961
0.7160465028964692	8228940.04269683
0.7161658439802853	8204724.3989546215
0.7162852049542819	8180504.719271794
0.7164045858217744	8156281.002975671
0.716523986586078	8132053.249393509
0.7166434072505089	8107821.457852428
0.716762847818384	8083585.627679415
0.7168823082930204	8071536.0231471285
0.7170017886777359	8063070.734417607
0.7171212889758488	8054604.034806636
0.7172408091906781	8046135.9240790615
0.7173603493255433	8037666.401999695
0.7174799093837642	8029195.468333321
0.7175994893686615	8020723.122844665
0.7177190892835562	8012249.365298432
0.7178387091317702	8013864.367718986
0.7179583489166254	8016492.519780426
0.7180780086414448	8019121.109867213
0.7181976883095517	8021750.138052347
0.7183173879242699	8024379.604408846
0.718437107488924	8027009.509009738
0.7185568470068389	8029639.851928065
0.7186766064813399	8031635.664590425
0.7187963859157535	8017756.194374165
0.7189161853134061	8003874.410912869
0.719036004677625	7989990.3138209935
0.7191558440117378	7976103.902712946
0.7192757033190732	7962215.1772030275
0.7193955826029597	7948324.136905541
0.7195154818667269	7934430.781434659
0.7196354011137046	7918599.645813583
0.7197553403472235	7893854.646727309
0.7198752995706147	7869105.52347453
0.7199952787872098	7844352.275367859
0.720115278000341	7819594.901719837
0.7202352972133411	7794833.401842871
0.7203553364295432	7770067.775049296
0.7204753956522815	7745298.020651221
0.7205954748848902	7723775.402360632
0.7207155741307044	7709417.019822991
0.7208356933930594	7695056.24422162
0.7209558326752915	7680693.075157645
0.7210759919807375	7666327.51223214
0.7211961713127342	7651959.555046166
0.7213163706746197	7637589.203200638
0.7214365900697322	7623216.456296485
0.7215568295014103	7613112.359427398
0.721677088972994	7608102.655328136
0.7217973684878227	7603092.116278199
0.7219176680492374	7598080.742138415
0.7220379876605789	7593068.53276961
0.722158327325189	7588055.488032575
0.7222786870464099	7583041.607788087
0.7223990668275843	7578026.891896889
0.7225194666720555	7562325.248856971
0.7226398865831676	7539047.488402609
0.7227603265642646	7515765.848321561
0.722880786618692	7492480.327967115
0.7230012667497951	7469190.926692626
0.7231217669609201	7445897.643851256
0.7232422872554135	7422600.478796098
0.7233628276366229	7399299.430880059
0.7234833881078956	7375027.341855299
0.7236039686725803	7350384.0150656905
0.7237245693340255	7325736.58105499
0.7238451900955812	7301085.039138575
0.7239658309605971	7276429.38863187
0.7240864919324239	7251769.6288500475
0.7242071730144127	7227105.759108259
0.724327874209915	7202437.778721566
0.7244485955222832	7181241.624370129
0.7245693369548704	7160616.654203207
0.7246900985110294	7139988.246541289
0.7248108801941148	7119356.400811372
0.7249316820074803	7098721.116440569
0.7250525039544815	7078082.39285567
0.7251733460384739	7057440.229483505
0.7252942082628137	7036792.491071525
0.7254150906308574	7014904.41059456
0.7255359931459625	6993012.682104181
0.7256569158114868	6971117.304992379
0.7257778586307888	6949218.278651048
0.7258988216072273	6927315.602472
0.7260198047441617	6905409.275846946
0.7261408080449525	6883499.298167418
0.72626183151296	6860995.442912692
0.7263828751515454	6834565.447182906
0.7265039389640706	6808131.046453835
0.726625022953898	6781692.239991294
0.7267461271243904	6755249.027060998
0.7268672514789111	6728801.406928562
0.7269883960208241	6702349.378859461
0.7271095607534942	6675892.942118999
0.7272307456802866	6648991.28872671
0.7273519508045666	6620894.42495599
0.7274731761297006	6592792.878374656
0.7275944216590555	6564686.648202225
0.7277156873959987	6536575.733658087
0.7278369733438982	6508460.133961482
0.727958279506122	6480339.848331668
0.7280796058860397	6452214.875987548
0.7282009524870207	6424175.817199625
0.7283223193124353	6396266.094279795
0.7284437063656539	6368351.719739536
0.7285651136500483	6340432.692803473
0.7286865411689898	6312509.012696313
0.7288079889258514	6284580.678642401
0.7289294569240056	6256647.689866209
0.7290509451668262	6228710.045591857
0.7291724536576875	6203835.008423921
0.7292939823999636	6181497.383311172
0.7294155313970303	6159156.035260861
0.7295371006522632	6136810.963652547
0.7296586901690385	6114462.16786565
0.7297802999507332	6092109.647279465
0.7299019300007252	6069753.401273123
0.7300235803223919	6047393.429225842
0.7301452509191123	6025762.306774201
0.7302669417942654	6004465.713955317
0.7303886529512311	5983165.57170429
0.7305103843933897	5961861.879429549
0.7306321361241218	5940554.636539446
0.7307539081468093	5919243.842442156
0.7308757004648336	5897929.496545896
0.7309975130815778	5876611.598258627
0.7311193460004248	5855289.268292709
0.7312411992247582	5833963.185679699
0.7313630727579622	5812633.548719591
0.7314849666034219	5791300.35681997
0.7316068807645224	5769963.609388377
0.7317288152446498	5748623.305832203
0.7318507700471907	5727279.4455587575
0.7319727451755319	5705932.027975275
0.732094740633061	5680616.395538297
0.7322167564231665	5655118.0537176905
0.7323387925492371	5629615.462173446
0.7324608490146619	5604108.620197285
0.732582925822831	5578597.527080789
0.7327050229771347	5553082.182115469
0.7328271404809642	5527562.584592628
0.7329492783377112	5501824.62630325
0.7330714365507675	5473977.475035678
0.7331936151235259	5446125.682576234
0.7333158140593796	5418269.248151413
0.7334380333617229	5390408.170987478
0.7335602730339499	5362542.450310671
0.7336825330794556	5334672.085347078
0.7338048135016354	5306797.075322711
0.7339271143038857	5278931.530147913
0.734049435489603	5251108.621184786
0.7341717770621846	5223281.0750701595
0.7342941390250283	5195448.891031195
0.7344165213815324	5167612.068294901
0.734538924135096	5139770.606088111
0.7346613472891185	5111924.503637657
0.734783790847	5084073.760170116
0.7349062548121412	5054388.218349185
0.7350287391879431	5021462.852468344
0.7351512439778078	4988531.999026456
0.7352737691851374	4955595.657109034
0.735396314813335	4922653.825801263
0.7355188808658037	4889706.504188329
0.7356414673459482	4856753.691355058
0.7357640742571725	4823795.386386339
0.7358867016028818	4793561.107209244
0.7360093493864824	4766017.434991376
0.7361320176113801	4738469.172161509
0.736254706280982	4710916.317954503
0.7363774153986956	4683358.8716050945
0.7365001449679286	4655796.832348017
0.7366228949920899	4628230.199417707
0.7367456654745885	4600658.972048576
0.7368684564188344	4573399.914260519
0.7369912678282374	4546315.342077402
0.7371140997062088	4519226.255798912
0.7372369520561599	4492132.654672681
0.7373598248815024	4465034.537946325
0.7374827181856494	4437931.904867135
0.7376056319720137	4410824.75468243
0.7377285662440091	4383713.086639356
0.7378515210050496	4354781.773845757
0.7379744962585505	4325299.522930175
0.738097492007927	4295812.358306114
0.7382205082565949	4266320.279154633
0.738343545007971	4236823.284656634
0.7384666022654723	4207321.373992855
0.7385896800325165	4177814.5463440097
0.7387127783125219	4148302.800890519
0.7388358971089073	4123577.639432539
0.7389590364250921	4099328.956719897
0.7390821962644963	4075076.232560118
0.7392053766305403	4050819.4662796813
0.7393285775266454	4026558.657204847
0.7394517989562333	4002293.8046618095
0.7395750409227259	3978024.9079767214
0.7396983034295463	3953674.465609335
0.739821586480118	3927595.9003903246
0.7399448900778645	3901512.9887438295
0.7400682142262109	3875425.729945314
0.740191558928582	3849334.12327036
0.7403149241884034	3823238.167994314
0.7404383100091014	3797137.863392382
0.7405617163941028	3771033.2087397
0.7406851433468352	3744282.259894387
0.7408085908707264	3714590.1158071607
0.7409320589692048	3684893.023029267
0.7410555476456997	3655190.9807358864
0.7411790569036406	3625483.9881021455
0.7413025867464579	3595772.0443029567
0.7414261371775823	3566055.1485131267
0.7415497082004452	3536333.2999073546
0.7416732998184786	3506798.2630152795
0.741796912035115	3477669.678059629
0.7419205448537874	3448536.238339827
0.7420441982779297	3419397.943046739
0.742167872310976	3390254.7913710745
0.7422915669563612	3361106.7825034657
0.7424152822175206	3331953.9156343862
0.7425390180978901	3302796.1899541803
0.7426627746009065	3275030.7769450806
0.7427865517300065	3248963.989440277
0.7429103494886282	3222892.8574708626
0.7430341678802096	3196817.3803128065
0.7431580069081896	3170737.557241892
0.7432818665760077	3144653.3875337625
0.7434057468871037	3118564.8704640367
0.7435296478449182	3092472.0053081475
0.7436535694528923	3065569.2924923003
0.7437775117144678	3038110.707221627
0.7439014746330868	3010647.5455201166
0.7440254582121922	2983179.8066249653
0.7441494624552276	2955707.489773321
0.7442734873656368	2928230.594202207
0.7443975329468645	2900749.1191484756
0.7445215992023557	2873263.0638489057
0.7446456861355559	2846524.921140621
0.7447697937499119	2820059.520737386
0.7448939220488703	2793589.7094340893
0.7450180710358784	2767115.486495598
0.7451422407143843	2740636.851186615
0.7452664310878367	2714153.802771722
0.7453906421596846	2687666.3405154548
0.7455148739333779	2661174.4636821365
0.7456391264123667	2634724.4578861743
0.7457633996001021	2608277.4446873562
0.7458876935000356	2581826.0236529578
0.7460120081156189	2555370.1940484378
0.7461363434503048	2528909.955138971
0.7462606995075466	2502445.306189662
0.7463850762907978	2475976.246465568
0.7465094738035127	2449507.250291979
0.7466338920491467	2424204.4935367187
0.746758331031155	2398897.5196553073
0.7468827907529935	2373586.3279449455
0.7470072712181189	2348270.9177026316
0.7471317724299886	2322951.288225272
0.7472562943920602	2297627.4388096845
0.7473808371077922	2272299.368752505
0.7475054005806435	2246971.613629854
0.7476299848140736	2221667.5789175644
0.7477545898115426	2196359.3268661504
0.7478792155765113	2171046.8567727217
0.7480038621124406	2145730.1679342976
0.7481285294227926	2120409.2596477396
0.7482532175110298	2095084.1312097735
0.7483779263806148	2069754.7819171036
0.7485026560350116	2044712.3036835822
0.7486274064776842	2020453.4829710885
0.748752177712097	1996190.6191218533
0.7488769697417158	1971923.711461925
0.749001782570006	1947652.759317416
0.7491266162004343	1923377.7620142233
0.7492514706364677	1899098.718878136
0.7493763458815739	1874815.6292348346
0.7495012419392209	1850729.602300185
0.7496261588128773	1826928.6804611613
0.7497510965060128	1803123.7918018147
0.7498760550220971	1779314.9356610335
0.7500010343646007	1755502.1113775584
0.7501260345369949	1731685.3182900245
0.750251055542751	1707864.5557370028
0.7503760973853414	1684039.8230568743
0.7505011600682389	1660758.159837004
0.750626243594917	1637929.382439176
0.7507513479688495	1615096.80024515
0.7508764731935109	1592260.41262075
0.7510016192723765	1569420.2189317406
0.7511267862089218	1546576.218543804
0.7512519740066232	1523728.4108224614
0.7513771826689577	1500876.7951331523
0.7515024121994025	1479092.73429402
0.7516276626014359	1457804.5726270708
0.751752933878536	1436512.8629332143
0.7518782260341824	1415217.6046210683
0.7520035390718548	1393918.7970991943
0.7521288729950334	1372616.4397760774
0.7522542278071992	1351310.5320600718
0.7523796035118337	1330001.0733594366
0.7525050001124189	1309089.810942169
0.7526304176124378	1288262.434489117
0.7527558560153731	1267431.5868066826
0.752881315324709	1246597.2673162813
0.7530067955439299	1225759.4754392905
0.7531322966765205	1204918.210597015
0.7532578187259665	1184073.4722105926
0.7533833616957542	1163225.2597011062
0.75350892558937	1143157.0697295768
0.7536345104103016	1123122.3773391778
0.7537601161620366	1103084.3458333905
0.7538857428480638	1083042.9746556662
0.7540113904718717	1062998.2632494383
0.7541370590369503	1042950.2110579803
0.7542627485467898	1022898.8175244778
0.7543884590048808	1003006.5788663726
0.7545141904147151	984731.4610814375
0.7546399427797842	966453.2974435679
0.7547657161035808	948172.087445089
0.754891510389598	929887.830578278
0.7550173256413296	911600.5263353152
0.7551431618622698	893310.1742083164
0.7552690190559135	875016.7736893002
0.7553948972257561	856928.9564633181
0.7555207963752938	839538.424327193
0.755646716508023	822144.993769055
0.755772657627441	804748.6643058182
0.7558986197370455	787349.4354543347
0.756024602840335	769947.3067313805
0.7561506069408084	752542.2776536393
0.7562766320419653	735134.3477377029
0.7564026781473054	717996.712685216
0.75652874526033	701336.9737593704
0.7566548333845401	684674.4582103619
0.7567809425234375	668009.1655754346
0.7569070726805247	651341.0953917442
0.7570332238593047	634670.2471963587
0.7571593960632813	617996.6205262581
0.7572855892959586	601320.2149183783
0.7574118035608413	585657.4913405161
0.7575380388614347	570986.5946992532
0.7576642952012449	556313.2529085444
0.7577905725837782	541637.4655608917
0.7579168710125422	526959.2322486549
0.7580431904910444	512278.55256419384
0.7581695310227928	497595.426099804
0.7582958926112967	482909.85244765156
0.7584222752600652	469085.31534901506
0.7585486789726085	455754.51285037014
0.7586751037524372	442421.48855130374
0.7588015496030628	429086.2420814948
0.7589280165279966	415748.77307063394
0.7590545045307512	402409.0811482713
0.7591810136148396	389067.16594392183
0.7593075437837755	375723.0270870187
0.7594340950410726	363498.82572418277
0.7595606673902461	351598.16709003714
0.7596872608348112	339695.52501277387
0.7598138753782836	327790.89916184417
0.75994051102418	315884.28920659487
0.7600671677760173	303975.6948163623
0.7601938456373134	292065.1156603889
0.7603205446115863	280152.5514078962
0.7604472647023548	269517.8786590743
0.7605740059131385	259008.65307884797
0.7607007682474575	248497.67596101464
0.7608275517088319	237984.94701368498
0.7609543563007835	227470.4659448408
0.7610811820268336	216954.2324624915
0.7612080288905045	206436.246274582
0.7613348968953197	195974.9337054714
0.7614617860448022	186710.66274673835
0.7615886963424764	177444.84774283288
0.7617156277918667	168177.4884364357
0.7618425803964988	158908.58457014652
0.7619695541598982	149638.13588654876
0.7620965490855914	140366.14212817722
0.7622235651771058	131092.60303750192
0.7623506024379685	122247.99270766511
0.7624776608717082	115288.72434518534
0.7626047404818536	108328.29610464485
0.7627318412719337	101366.70779274288
0.762858963245479	94403.95921611789
0.7629861064060198	87440.05018139617
0.7631132707570876	80474.98049516144
0.7632404563022137	73508.74996398525
0.7633676630449308	67212.32563621283
0.7634948909887717	62343.118388062605
0.7636221401372697	57473.09960537735
0.7637494104939593	52602.26915289039
0.7638767020623748	47730.62689533504
0.7640040148460518	42858.17269739789
0.7641313488485262	37984.90642376126
0.7642587040733344	33110.8279390735
0.7643860805240132	29199.669219593805
0.7645134782041005	26437.87994812699
0.7646408971171346	23675.63037844711
0.764768337266654	20912.920433839965
0.7648957986561985	18149.750037574493
0.7650232812893079	15386.119112910012
0.7651507851695227	12622.027583091392
0.7652783103003843	9857.475371351473
0.7654058566854343	8135.999216115536
0.7655334243282153	7125.433773343519
0.7656610132322699	6114.699902999023
0.765788623401142	5103.7975770085195
