#wavelength	surface flux
0.7	1800878.6631471703
0.7001166666666666	1803773.172805968
0.7002333527777778	1804702.7958927175
0.700350058336574	1805632.573916648
0.7004667833462966	1806562.5069035813
0.7005835278101878	1807492.5948793483
0.7007002917314895	1808422.8378697764
0.7008170751134447	1809353.2359007027
0.7009338779592968	1810283.7889979673
0.7010507002722901	1810837.1685155998
0.7011675420556689	1810931.4563554574
0.701284403312678	1811025.759909955
0.7014012840465635	1811120.0791817117
0.7015181842605713	1811214.4141733472
0.701635103957948	1811308.764887481
0.701752043141941	1811403.131326734
0.701869001815798	1811497.513493727
0.7019859799827672	1811581.3910037365
0.7021029776460976	1811657.9608961185
0.7022199948090387	1811734.5435501495
0.7023370314748403	1811811.138967956
0.7024540876467528	1811887.7471516654
0.702571163328027	1811964.3681034055
0.7026882585219152	1812041.0018253042
0.7028053732316688	1812117.64831949
0.7029225074605406	1813967.956077271
0.7030396612117841	1816503.4592429507
0.7031568344886527	1819039.3849924915
0.7032740272944008	1821575.7333963225
0.7033912396322832	1824112.5045248887
0.7035084715055552	1826649.6984486405
0.7036257229174727	1829187.3152380472
0.7037429938712924	1831725.3549635878
0.7038602843702709	1833985.2137164804
0.7039775944176659	1836198.195838835
0.7040949240167356	1838411.5467915446
0.7042122731707383	1840625.2666360782
0.7043296418829335	1842839.3554339206
0.7044470301565806	1845053.8132465624
0.70456443799494	1847268.6401355043
0.7046818654012724	1849483.8361622626
0.7047993123788394	1850477.0574377205
0.7049167789309024	1851469.041556128
0.7050342650607243	1852461.1910052234
0.7051517707715678	1853453.5058125597
0.7052692960666963	1854445.986005697
0.705386840949374	1855438.6316121991
0.7055044054228656	1856431.4426596374
0.7056219894904361	1857318.9323161903
0.7057395931553511	1857536.2121258283
0.705857216420877	1857753.5281487678
0.7059748592902804	1857970.8803910443
0.7060925217668288	1858188.268858695
0.70621020385379	1858405.6935577567
0.7063279055544321	1858623.1544942681
0.7064456268720246	1858840.6516742692
0.7065633678098366	1859340.7083534298
0.7066811283711383	1860618.9225856154
0.7067989085592001	1861897.3498535063
0.7069167083772933	1863175.9901926077
0.7070345278286895	1864454.8436384331
0.707152366916661	1865733.9102265
0.7072702256444803	1867013.1899923298
0.7073881040154211	1868292.6829714559
0.7075060020327569	1868910.2803335057
0.7076239196997625	1868563.720126389
0.7077418570197124	1868217.1021592382
0.7078598139958823	1867870.4264224262
0.7079777906315483	1867523.6929063245
0.7080957869299869	1867176.9016013036
0.7082138028944751	1866830.052497732
0.7083318385282908	1866483.1455859763
0.7084498938347124	1865688.8886186571
0.708567968817018	1864515.275776433
0.7086860634784875	1863341.4673320672
0.7088041778224007	1862167.4632529595
0.7089223118520377	1860993.263506507
0.7090404655706796	1859818.8680600973
0.709158638981608	1858644.276881112
0.709276832088105	1857469.48993693
0.7093950448934531	1857616.7600481121
0.7095132774009353	1858394.6513544887
0.7096315296138355	1859172.6723094168
0.7097498015354378	1859950.8229345037
0.7098680931690269	1860729.1032513606
0.7099864045178884	1861507.5132816045
0.7101047355853081	1862286.0530468535
0.7102230863745722	1863064.7225687297
0.7103414568889679	1861235.5408826873
0.7104598471317828	1858813.4596089127
0.7105782571063047	1856390.9746549276
0.7106966868158224	1853968.0859534503
0.710815136263625	1851544.79343719
0.7109336054530023	1849121.097038842
0.7110520943872445	1846696.9966910952
0.7111706030696424	1844272.4923266224
0.7112891315034873	1842937.861233381
0.7114076796920712	1841655.0279742035
0.7115262476386865	1840371.9809094826
0.7116448353466263	1839088.720003585
0.711763442819184	1837805.2452208695
0.711882070059654	1836521.5565256889
0.7120007170713306	1835237.6538823931
0.7121193838575091	1834024.1381334064
0.7122380704214853	1833546.7692182101
0.7123567767665555	1833069.3207415284
0.7124755028960166	1832591.7926901004
0.7125942488131658	1832114.1850506642
0.7127130145213015	1831636.4978099535
0.7128318000237216	1831158.730954704
0.7129506053237256	1830680.8844716449
0.7130694304246129	1829698.0585145154
0.7131882753296837	1826949.7610702368
0.7133071400422386	1824201.0055763833
0.7134260245655789	1821451.7919566163
0.7135449289030065	1818702.1201345783
0.7136638530578235	1815951.990033905
0.7137827970333332	1813201.4015782108
0.7139017608328388	1810450.354691108
0.7140207444596443	1807850.4702657126
0.7141397479170543	1805520.6292877377
0.7142587712083737	1803190.4000029361
0.7143778143369084	1800859.7823465855
0.7144968773059646	1798528.7762539582
0.7146159601188489	1796197.3816603164
0.7147350627788687	1793865.5985009086
0.7148541852893318	1791533.4267109751
0.7149733276535467	1788949.411949621
0.7150924898748222	1786111.405647432
0.715211671956468	1783272.9263441921
0.7153308739017941	1780433.973961066
0.715450095714111	1777594.5484192108
0.71556933739673	1774754.6496397648
0.7156885989529628	1771914.277543856
0.7158078803861218	1769073.4320525937
0.7159271816995193	1764003.9486641586
0.7160465028964692	1757625.8268573075
0.7161658439802853	1751246.6420301553
0.7162852049542819	1744866.394005533
0.7164045858217744	1738485.0826062362
0.716523986586078	1732102.7076550422
0.7166434072505089	1725719.2689746928
0.716762847818384	1719334.7663878945
0.7168823082930204	1714788.5613449865
0.7170017886777359	1710782.7309645119
0.7171212889758488	1706776.2329456434
0.7172408091906781	1702769.0671771036
0.7173603493255433	1698761.2335476012
0.7174799093837642	1694752.7319458295
0.7175994893686615	1690743.5622604557
0.7177190892835562	1686733.7243801362
0.7178387091317702	1685744.436189347
0.7179583489166254	1685058.2616575765
0.7180780086414448	1684371.972763384
0.7181976883095517	1683685.5694877089
0.7183173879242699	1682999.0518114879
0.718437107488924	1682312.4197156539
0.7185568470068389	1681625.673181137
0.7186766064813399	1680830.2277467782
0.7187963859157535	1677319.799386074
0.7189161853134061	1673808.7859539767
0.719036004677625	1670297.1873529735
0.7191558440117378	1666785.0034855392
0.7192757033190732	1663272.2342541218
0.7193955826029597	1659758.8795611702
0.7195154818667269	1656244.9393091002
0.7196354011137046	1652531.2637724627
0.7197553403472235	1647900.048805075
0.7198752995706147	1643268.061968528
0.7199952787872098	1638635.3031341718
0.720115278000341	1634001.7721733432
0.7202352972133411	1629367.4689573538
0.7203553364295432	1624732.3933575023
0.7204753956522815	1620096.5452450442
0.7205954748848902	1616292.1179687758
0.7207155741307044	1614321.7322106294
0.7208356933930594	1612351.0180548597
0.7209558326752915	1610379.9754467306
0.7210759919807375	1608408.6043314973
0.7211961713127342	1606436.9046544142
0.7213163706746197	1604464.876360715
0.7214365900697322	1602492.5193956355
0.7215568295014103	1599650.2987267992
0.721677088972994	1595770.1026417965
0.7217973684878227	1591889.2598574527
0.7219176680492374	1588007.7702659736
0.7220379876605789	1584125.633759565
0.722158327325189	1580242.850230404
0.7222786870464099	1576359.4195706567
0.7223990668275843	1572475.3416724645
0.7225194666720555	1567352.6080597544
0.7226398865831676	1561351.6131341504
0.7227603265642646	1555349.61804274
0.722880786618692	1549346.6226188017
0.7230012667497951	1543342.62669563
0.7231217669609201	1537337.63010647
0.7232422872554135	1531331.632684551
0.7233628276366229	1525324.634263051
0.7234833881078956	1520706.7952487713
0.7236039686725803	1516615.9769156713
0.7237245693340255	1512524.4767795221
0.7238451900955812	1508432.294726676
0.7239658309605971	1504339.4306434926
0.7240864919324239	1500245.8844162899
0.7242071730144127	1496151.6559313824
0.724327874209915	1492056.7450750694
0.7244485955222832	1485124.2754805489
0.7245693369548704	1477721.5969533112
0.7246900985110294	1470317.6846463298
0.7248108801941148	1462912.5383539444
0.7249316820074803	1455506.157870535
0.7250525039544815	1448098.5429903665
0.7251733460384739	1440689.6935077165
0.7252942082628137	1433284.4015787018
0.7254150906308574	1428654.7216950536
0.7255359931459625	1424024.270198091
0.7256569158114868	1419393.0469592104
0.7257778586307888	1414761.051849788
0.7258988216072273	1410128.284741182
0.7260198047441617	1405494.74550473
0.7261408080449525	1400860.4340117304
0.72626183151296	1396184.1826541517
0.7263828751515454	1391233.5704010923
0.7265039389640706	1386282.1330459916
0.726625022953898	1381329.8704513288
0.7267461271243904	1376376.7824795647
0.7268672514789111	1371422.8689931415
0.7269883960208241	1366468.1298544751
0.7271095607534942	1361512.5649259489
0.7272307456802866	1356397.5416614169
0.7273519508045666	1350853.1614680276
0.7274731761297006	1345307.8572112753
0.7275944216590555	1339761.628737147
0.7277156873959987	1334214.4758916043
0.7278369733438982	1328666.3985205784
0.727958279506122	1323117.3964700056
0.7280796058860397	1317567.469585751
0.7282009524870207	1311250.4314790731
0.7283223193124353	1303799.065769312
0.7284437063656539	1296346.458165281
0.7285651136500483	1288892.6084599707
0.7286865411689898	1281437.5164463914
0.7288079889258514	1273981.1819174585
0.7289294569240056	1266523.6046661213
0.7290509451668262	1259064.7844852335
0.7291724536576875	1252112.726869983
0.7292939823999636	1245580.4479885264
0.7294155313970303	1239047.0803939097
0.7295371006522632	1232512.623904696
0.7296586901690385	1225977.0783394056
0.7297802999507332	1219440.4435165238
0.7299019300007252	1212902.7192544884
0.7300235803223919	1206363.9053717598
0.7301452509191123	1200654.533193275
0.7302669417942654	1195327.5574228682
0.7303886529512311	1189999.6938231648
0.7305103843933897	1184670.9422461933
0.7306321361241218	1179341.302543963
0.7307539081468093	1174010.7745684397
0.7308757004648336	1168679.3581715983
0.7309975130815778	1163347.0532053513
0.7311193460004248	1158081.012577678
0.7312411992247582	1152829.2968711918
0.7313630727579622	1147576.7058787553
0.7314849666034219	1142323.2394544818
0.7316068807645224	1137068.8974524739
0.7317288152446498	1131813.6797267967
0.7318507700471907	1126557.5861314957
0.7319727451755319	1121300.6165205974
0.732094740633061	1114665.0409620276
0.7322167564231665	1107966.3336428935
0.7323387925492371	1101266.5098725392
0.7324608490146619	1094565.5694648917
0.732582925822831	1087863.5122338412
0.7327050229771347	1081160.33799326
0.7328271404809642	1074456.0465569652
0.7329492783377112	1067757.669071482
0.7330714365507675	1061127.3006317548
0.7331936151235259	1054495.8271306227
0.7333158140593796	1047863.2483839144
0.7334380333617229	1041229.564207405
0.7335602730339499	1034594.7744168631
0.7336825330794556	1027958.8788280213
0.7338048135016354	1021321.8772565944
0.7339271143038857	1014886.9667582831
0.734049435489603	1009131.8338622743
0.7341717770621846	1003375.7417774484
0.7342941390250283	997618.6903439447
0.7344165213815324	991860.6794018709
0.734538924135096	986101.7087912983
0.7346613472891185	980341.7783522983
0.734783790847	974580.8879248897
0.7349062548121412	968198.0613964762
0.7350287391879431	960716.5707063283
0.7351512439778078	953233.8331010499
0.7352737691851374	945749.8483728464
0.735396314813335	938264.6163138483
0.7355188808658037	930778.1367161861
0.7356414673459482	923290.4093719089
0.7357640742571725	915801.4340730795
0.7358867016028818	908676.3415178313
0.7360093493864824	901910.6611445638
0.7361320176113801	895143.85315791
0.736254706280982	888375.9173699251
0.7363774153986956	881606.8535926333
0.7365001449679286	874836.6616380592
0.7366228949920899	868065.3413181537
0.7367456654745885	861292.8924448617
0.7368684564188344	854640.161451262
0.7369912678282374	848054.6216326832
0.7371140997062088	841467.9842241319
0.7372369520561599	834880.249042673
0.7373598248815024	828291.4159053653
0.7374827181856494	821701.4846291903
0.7376056319720137	815110.4550311355
0.7377285662440091	808518.3269281466
0.7378515210050496	801343.4012981907
0.7379744962585505	793992.2643627812
0.738097492007927	786639.9022378845
0.7382205082565949	779286.3147193047
0.738343545007971	771931.5016028066
0.7384666022654723	764575.462684115
0.7385896800325165	757218.1977589482
0.7387127783125219	749859.7066229512
0.7388358971089073	744199.5341736398
0.7389590364250921	738708.8869543531
0.7390821962644963	733217.3246271923
0.7392053766305403	727724.8470396518
0.7393285775266454	722231.454039176
0.7394517989562333	716737.1454731949
0.7395750409227259	711241.9211891282
0.7396983034295463	705713.9265355091
0.739821586480118	699476.3835164933
0.7399448900778645	693237.8009069867
0.7400682142262109	686998.178533693
0.740191558928582	680757.5162233436
0.7403149241884034	674515.8138026141
0.7404383100091014	668273.0710981463
0.7405617163941028	662029.2879365649
0.7406851433468352	655683.5573545357
0.7408085908707264	648875.1448540483
0.7409320589692048	642065.5976181474
0.7410555476456997	635254.9154577017
0.7411790569036406	628443.0981835675
0.7413025867464579	621630.1456065524
0.7414261371775823	614816.0575374393
0.7415497082004452	608000.8337869865
0.7416732998184786	601225.9592342145
0.741796912035115	594538.9491750092
0.7419205448537874	587850.8246141288
0.7420441982779297	581161.5853658218
0.742167872310976	574471.2312443007
0.7422915669563612	567779.7620637595
0.7424152822175206	561087.1776383566
0.7425390180978901	554393.4777822203
0.7426627746009065	548110.0216681826
0.7427865517300065	542326.994826502
0.7429103494886282	536543.0041470084
0.7430341678802096	530758.0494690727
0.7431580069081896	524972.1306320243
0.7432818665760077	519185.24747516157
0.7434057468871037	513397.3998377776
0.7435296478449182	507608.58755912393
0.7436535694528923	501670.74042096385
0.7437775117144678	495630.54514551454
0.7439014746330868	489589.3431708618
0.7440254582121922	483547.134329208
0.7441494624552276	477503.9184527449
0.7442734873656368	471459.69537363696
0.7443975329468645	465414.46492401103
0.7445215992023557	459368.2269359775
0.7446456861355559	453544.80703270965
0.7447697937499119	447802.8680378674
0.7448939220488703	442059.97205319395
0.7450180710358784	436316.1189191948
0.7451422407143843	430571.30847633927
0.7452664310878367	424825.5405650713
0.7453906421596846	419078.8150258242
0.7455148739333779	413331.13169898535
0.7456391264123667	407731.9980376453
0.7457633996001021	402155.83662791166
0.7458876935000356	396578.74585793307
0.7460120081156189	391000.7255728368
0.7461363434503048	385421.7756176904
0.7462606995075466	379841.89583754644
0.7463850762907978	374261.0860774475
0.7465094738035127	368680.67748159013
0.7466338920491467	363447.5992819556
0.746758331031155	358213.64890261606
0.7468827907529935	352978.8261982195
0.7470072712181189	347743.13102337206
0.7471317724299886	342506.5632326611
0.7472562943920602	337269.12268065545
0.7473808371077922	332030.8092218864
0.7475054005806435	326813.14559588773
0.7476299848140736	321727.1848902178
0.7477545898115426	316640.37652442907
0.7478792155765113	311552.72035724483
0.7480038621124406	306464.21624737006
0.7481285294227926	301374.8640534782
0.7482532175110298	296284.66363421525
0.7483779263806148	291193.61484822293
0.7485026560350116	286202.20336462883
0.7486274064776842	281481.9210620857
0.748752177712097	276760.85204583406
0.7488769697417158	272038.9961847363
0.749001782570006	267316.3533476675
0.7491266162004343	262592.9234034605
0.7492514706364677	257868.70622092727
0.7493763458815739	253143.70166885894
0.7495012419392209	248521.58547725162
0.7496261588128773	244047.74533846427
0.7497510965060128	239573.1595596507
0.7498760550220971	235097.8280165423
0.7500010343646007	230621.7505848427
0.7501260345369949	226144.9271402356
0.750251055542751	221667.3575583928
0.7503760973853414	217189.04171495026
0.7505011600682389	212906.19164716662
0.750626243594917	208786.4604393951
0.7507513479688495	204666.04260976185
0.7508764731935109	200544.93804382224
0.7510016192723765	196423.14662712062
0.7511267862089218	192300.6682451867
0.7512519740066232	188177.502783521
0.7513771826689577	184053.65012760935
0.7515024121994025	180243.42519977654
0.7516276626014359	176579.11656816973
0.751752933878536	172914.19721846408
0.7518782260341824	169248.66704886558
0.7520035390718548	165582.52595757053
0.7521288729950334	161915.77384276217
0.7522542278071992	158248.410602601
0.7523796035118337	154580.4361352314
0.7525050001124189	151134.84590608516
0.7526304176124378	147737.17796061808
0.7527558560153731	144338.94373716446
0.752881315324709	140940.14314133697
0.7530067955439299	137540.77607874226
0.7531322966765205	134140.842454975
0.7532578187259665	130740.34217560275
0.7533833616957542	127339.27514618405
0.75350892558937	124249.28379360185
0.7536345104103016	121173.4317644941
0.7537601161620366	118097.06709338308
0.7538857428480638	115020.1896948239
0.7540113904718717	111942.79948336893
0.7541370590369503	108864.89637354607
0.7542627485467898	105786.48027986963
0.7543884590048808	102750.06392757829
0.7545141904147151	100137.08407174288
0.7546399427797842	97523.66871926903
0.7547657161035808	94909.81779756937
0.754891510389598	92295.53123404956
0.7550173256413296	89680.80895610145
0.7551431618622698	87065.65089110764
0.7552690190559135	84450.0569664369
0.7553948972257561	81908.32469601976
0.7555207963752938	79615.55782998538
0.755646716508023	77322.40883614132
0.755772657627441	75028.8776507975
0.7558986197370455	72734.96421025577
0.756024602840335	70440.66845080788
0.7561506069408084	68145.99030873342
0.7562766320419653	65850.9297202999
0.7564026781473054	63662.219178954605
0.75652874526033	61660.96467776665
0.7566548333845401	59659.37663416079
0.7567809425234375	57657.45499254838
0.7569070726805247	55655.19969733017
0.7570332238593047	53652.61069289637
0.7571593960632813	51649.68792362658
0.7572855892959586	49646.43133389513
0.7574118035608413	47855.97775522064
0.7575380388614347	46273.744540127744
0.7576642952012449	44691.247619498405
0.7577905725837782	43108.486949384576
0.7579168710125422	41525.46248582291
0.7580431904910444	39942.17418485005
0.7581695310227928	38358.6220024957
0.7582958926112967	36774.805894775636
0.7584222752600652	35385.683105198914
0.7585486789726085	34108.324316437895
0.7586751037524372	32830.75263454493
0.7588015496030628	31552.968024035825
0.7589280165279966	30274.970449427492
0.7590545045307512	28996.759875223397
0.7591810136148396	27718.33626592363
0.7593075437837755	26439.699586020426
0.7594340950410726	25377.441275075493
0.7595606673902461	24377.847029134646
0.7596872608348112	23378.0861841518
0.7598138753782836	22378.158712362565
0.75994051102418	21378.064585993765
0.7600671677760173	20377.80377727135
0.7601938456373134	19377.37625841338
0.7603205446115863	18376.782001636162
0.7604472647023548	17587.305682138875
0.7605740059131385	16818.69945749281
0.7607007682474575	16049.965131808558
0.7608275517088319	15281.102683738396
0.7609543563007835	14512.112091925184
0.7610811820268336	13742.993335013802
0.7612080288905045	12973.746391644409
0.7613348968953197	12212.82023130352
0.7614617860448022	11625.121886513236
0.7615886963424764	11037.32559199802
0.7617156277918667	10449.431331434285
0.7618425803964988	9861.439088493307
0.7619695541598982	9273.348846845329
0.7620965490855914	8685.160590157508
0.7622235651771058	8096.874302092893
0.7623506024379685	7544.297423197951
0.7624776608717082	7148.5764403773865
0.7626047404818536	6752.789504059668
0.7627318412719337	6356.9366032532425
0.762858963245479	5961.017726963101
0.7629861064060198	5565.032864193542
0.7631132707570876	5168.982003946443
0.7632404563022137	4772.865135222993
0.7633676630449308	4416.923343862332
0.7634948909887717	4146.582163217508
0.7636221401372697	3876.1959257095955
0.7637494104939593	3605.7646238285097
0.7638767020623748	3335.2882500641667
0.7640040148460518	3064.766796903889
0.7641313488485262	2794.2002568347607
0.7642587040733344	2523.588622341981
0.7643860805240132	2294.179481154926
0.7645134782041005	2113.9528510577857
0.7646408971171346	1933.696183188887
0.764768337266654	1753.4094725420764
0.7648957986561985	1573.0927141100997
0.7650232812893079	1392.745902885075
