#wavelength	surface flux
0.7	42226147.25987655
0.7001166666666666	42385226.05543303
0.7002333527777778	42731191.55951352
0.700350058336574	43077214.72451119
0.7004667833462966	43423295.560035914
0.7005835278101878	43769434.07570084
0.7007002917314895	44115630.28111783
0.7008170751134447	44461884.18590233
0.7009338779592968	44808195.7996708
0.7010507002722901	44987544.13700888
0.7011675420556689	44963668.91882184
0.701284403312678	44939789.721431814
0.7014012840465635	44915906.54417552
0.7015181842605713	44892019.38638969
0.701635103957948	44868128.2474109
0.701752043141941	44844233.12657563
0.701869001815798	44820334.02322018
0.7019859799827672	44825111.61134344
0.7021029776460976	44849850.13035269
0.7022199948090387	44874592.77244847
0.7023370314748403	44899339.538317926
0.7024540876467528	44924090.42864835
0.702571163328027	44948845.44412713
0.7026882585219152	44973604.58544189
0.7028053732316688	44998367.85328016
0.7029225074605406	44899337.937974885
0.7030396612117841	44752487.69866592
0.7031568344886527	44605612.98431704
0.7032740272944008	44458713.790849194
0.7033912396322832	44311790.11418236
0.7035084715055552	44164841.95023623
0.7036257229174727	44017869.294929385
0.7037429938712924	43870872.14417986
0.7038602843702709	44089734.84158704
0.7039775944176659	44370690.67895869
0.7040949240167356	44651693.34230334
0.7042122731707383	44932742.83942508
0.7043296418829335	45213839.17812982
0.7044470301565806	45494982.366224304
0.70456443799494	45776172.411516584
0.7046818654012724	46057409.32181658
0.7047993123788394	45166034.680012584
0.7049167789309024	44273165.79818802
0.7050342650607243	43380148.104881786
0.7051517707715678	42486981.57529374
0.7052692960666963	41593666.184617884
0.705386840949374	40700201.90804395
0.7055044054228656	39806588.72075581
0.7056219894904361	39081590.0950571
0.7057395931553511	39428944.694768526
0.705857216420877	39776357.186913505
0.7059748592902804	40123827.58114032
0.7060925217668288	40471355.887099855
0.70621020385379	40818942.11444365
0.7063279055544321	41166586.272824906
0.7064456268720246	41514288.371899754
0.7065633678098366	41804923.54316218
0.7066811283711383	41938284.19163451
0.7067989085592001	42071667.0668816
0.7069167083772933	42205072.1726078
0.7070345278286895	42338499.51251838
0.707152366916661	42471949.09031897
0.7072702256444803	42605420.909715705
0.7073881040154211	42738914.97441585
0.7075060020327569	42834592.03406152
0.7076239196997625	42875177.94194069
0.7077418570197124	42915770.61413779
0.7078598139958823	42956370.05178026
0.7079777906315483	42996976.25599571
0.7080957869299869	43037589.22791183
0.7082138028944751	43078208.968656585
0.7083318385282908	43118835.47935816
0.7084498938347124	43094069.039372206
0.708567968817018	43013851.251205646
0.7086860634784875	42933620.09340763
0.7088041778224007	42853375.56374992
0.7089223118520377	42773117.660004035
0.7090404655706796	42692846.37994091
0.709158638981608	42612561.721331015
0.709276832088105	42532263.68194467
0.7093950448934531	42564249.3368595
0.7095132774009353	42649796.01034799
0.7096315296138355	42735356.94161543
0.7097498015354378	42820932.13303806
0.7098680931690269	42906521.58699251
0.7099864045178884	42992125.30585606
0.7101047355853081	43077743.29200606
0.7102230863745722	43163375.547820374
0.7103414568889679	43151442.44145954
0.7104598471317828	43117334.95437621
0.7105782571063047	43083221.78271174
0.7106966868158224	43049102.925518654
0.710815136263625	43014978.38184937
0.7109336054530023	42980848.15075613
0.7110520943872445	42946712.23129105
0.7111706030696424	42912570.62250604
0.7112891315034873	43076835.982047655
0.7114076796920712	43250595.558512166
0.7115262476386865	43424384.094906084
0.7116448353466263	43598201.59605595
0.711763442819184	43772048.06678943
0.711882070059654	43945923.51193486
0.7120007170713306	44119827.936321035
0.7121193838575091	44291144.146509245
0.7122380704214853	44435192.20139299
0.7123567767665555	44579264.264285736
0.7124755028960166	44723360.33918904
0.7125942488131658	44867480.43010471
0.7127130145213015	45011624.541035935
0.7128318000237216	45155792.6759852
0.7129506053237256	45299984.83895717
0.7130694304246129	45408459.828356326
0.7131882753296837	45391989.05118974
0.7133071400422386	45375515.528893635
0.7134260245655789	45359039.26101048
0.7135449289030065	45342560.24708268
0.7136638530578235	45326078.48665257
0.7137827970333332	45309593.97926236
0.7139017608328388	45293106.724454254
0.7140207444596443	45328522.66623997
0.7141397479170543	45456539.564038135
0.7142587712083737	45584577.79798576
0.7143778143369084	45712637.371639155
0.7144968773059646	45840718.28855484
0.7146159601188489	45968820.55228998
0.7147350627788687	46096944.16640241
0.7148541852893318	46225089.13445047
0.7149733276535467	46378774.0168758
0.7150924898748222	46558216.85583553
0.715211671956468	46737689.60193511
0.7153308739017941	46917192.26015919
0.715450095714111	47096724.83549289
0.71556933739673	47276287.332922496
0.7156885989529628	47455879.75743499
0.7158078803861218	47635502.11401849
0.7159271816995193	47730929.14409459
0.7160465028964692	47776937.10364683
0.7161658439802853	47822952.731192335
0.7162852049542819	47868976.02800909
0.7164045858217744	47915006.995375335
0.716523986586078	47961045.63456946
0.7166434072505089	48007091.94687009
0.716762847818384	48053145.933556125
0.7168823082930204	48201424.64495845
0.7170017886777359	48379799.89031588
0.7171212889758488	48558204.86488076
0.7172408091906781	48736639.57360812
0.7173603493255433	48915104.02145366
0.7174799093837642	49093598.213373736
0.7175994893686615	49272122.15432587
0.7177190892835562	49450675.84926809
0.7178387091317702	49683575.64112504
0.7179583489166254	49921966.679633565
0.7180780086414448	50160397.44998202
0.7181976883095517	50398867.958792195
0.7183173879242699	50637378.212687194
0.718437107488924	50875928.21829123
0.7185568470068389	51114517.98222962
0.7186766064813399	51350984.279538125
0.7187963859157535	51533404.43078017
0.7189161853134061	51715854.985380754
0.719036004677625	51898335.94840713
0.7191558440117378	52080847.32492722
0.7192757033190732	52263389.12001032
0.7193955826029597	52445961.338725716
0.7195154818667269	52628563.986144386
0.7196354011137046	52781227.66733013
0.7197553403472235	52795932.31777518
0.7198752995706147	52810639.41899529
0.7199952787872098	52825348.97139896
0.720115278000341	52840060.97539468
0.7202352972133411	52854775.431391075
0.7203553364295432	52869492.33979678
0.7204753956522815	52884211.701020576
0.7205954748848902	52888969.87235807
0.7207155741307044	52871762.72752723
0.7208356933930594	52854552.71483895
0.7209558326752915	52837339.833815224
0.7210759919807375	52820124.08397796
0.7211961713127342	52802905.464849085
0.7213163706746197	52785683.97595033
0.7214365900697322	52768459.61680344
0.7215568295014103	52901489.41594141
0.721677088972994	53213823.335068256
0.7217973684878227	53526209.309847765
0.7219176680492374	53838647.34895678
0.7220379876605789	54151137.46107212
0.722158327325189	54463679.654872924
0.7222786870464099	54776273.9390392
0.7223990668275843	55088920.32225297
0.7225194666720555	55272790.587493345
0.7226398865831676	55365387.7090212
0.7227603265642646	55458000.26340243
0.722880786618692	55550628.25320959
0.7230012667497951	55643271.681014985
0.7231217669609201	55735930.54939169
0.7232422872554135	55828604.860913046
0.7233628276366229	55921294.61815315
0.7234833881078956	55946114.37065358
0.7236039686725803	55945164.77308417
0.7237245693340255	55944215.017248504
0.7238451900955812	55943265.10312019
0.7239658309605971	55942315.03067287
0.7240864919324239	55941364.79988013
0.7242071730144127	55940414.410715595
0.724327874209915	55939463.86315287
0.7244485955222832	56234425.27168239
0.7245693369548704	56578362.40857063
0.7246900985110294	56922356.86831453
0.7248108801941148	57266408.66046929
0.7249316820074803	57610517.79458826
0.7250525039544815	57954684.28023015
0.7251733460384739	58298908.12695303
0.7252942082628137	58642739.26380806
0.7254150906308574	58725836.80369366
0.7255359931459625	58808948.19316925
0.7256569158114868	58892073.43454312
0.7257778586307888	58975212.53012391
0.7258988216072273	59058365.48222062
0.7260198047441617	59141532.29314259
0.7261408080449525	59224712.96519984
0.72626183151296	59298842.5879557
0.7263828751515454	59312743.01940186
0.7265039389640706	59326645.767586604
0.726625022953898	59340550.832896054
0.7267461271243904	59354458.21571639
0.7268672514789111	59368367.916433856
0.7269883960208241	59382279.935434766
0.7271095607534942	59396194.27310551
0.7272307456802866	59391623.42323798
0.7273519508045666	59337112.59386351
0.7274731761297006	59282592.67935083
0.7275944216590555	59228063.678185746
0.7277156873959987	59173525.58885377
0.7278369733438982	59118978.40984016
0.727958279506122	59064422.13963018
0.7280796058860397	59009856.77670845
0.7282009524870207	58985541.561140545
0.7283223193124353	59005979.081000134
0.7284437063656539	59026420.007112995
0.7285651136500483	59046864.340046905
0.7286865411689898	59067312.08036959
0.7288079889258514	59087763.22864905
0.7289294569240056	59108217.78545318
0.7290509451668262	59128675.75135013
0.7291724536576875	59357358.98914409
0.7292939823999636	59758614.56828317
0.7294155313970303	60159937.02335292
0.7295371006522632	60561326.3654984
0.7296586901690385	60962782.60586725
0.7297802999507332	61364305.75560933
0.7299019300007252	61765895.8258774
0.7300235803223919	62167552.82782277
0.7301452509191123	62431392.9873923
0.7302669417942654	62631634.177516036
0.7303886529512311	62831908.74117152
0.7305103843933897	63032216.683920994
0.7306321361241218	63232558.011327446
0.7307539081468093	63432932.728955485
0.7308757004648336	63633340.84236936
0.7309975130815778	63833782.35713573
0.7311193460004248	64085712.19146008
0.7312411992247582	64349332.74943611
0.7313630727579622	64612997.24417174
0.7314849666034219	64876705.68299009
0.7316068807645224	65140458.07321475
0.7317288152446498	65404254.42217123
0.7318507700471907	65668094.73718601
0.7319727451755319	65931979.02558652
0.732094740633061	66292350.10256666
0.7322167564231665	66657123.12714695
0.7323387925492371	67021956.94723135
0.7324608490146619	67386851.57295233
0.732582925822831	67751807.01444437
0.7327050229771347	68116823.28184289
0.7328271404809642	68481900.38528635
0.7329492783377112	68814862.376413
0.7330714365507675	68831556.13716039
0.7331936151235259	68848252.68020122
0.7333158140593796	68864952.00599921
0.7334380333617229	68881654.11501819
0.7335602730339499	68898359.007722
0.7336825330794556	68915066.68457462
0.7338048135016354	68931777.14604001
0.7339271143038857	68770418.8081296
0.734049435489603	68012371.6648073
0.7341717770621846	67254198.18029432
0.7342941390250283	66495898.333534315
0.7344165213815324	65737472.1034668
0.734538924135096	64978919.469026506
0.7346613472891185	64220240.40914813
0.734783790847	63461434.9027595
0.7349062548121412	62494348.09080499
0.7350287391879431	61159177.920389235
0.7351512439778078	59823785.22160902
0.7352737691851374	58488169.95738061
0.735396314813335	57152332.09060698
0.7355188808658037	55816271.5841911
0.7356414673459482	54479988.40102142
0.7357640742571725	53143482.50398881
0.7358867016028818	52514673.24659572
0.7360093493864824	52584893.42631479
0.7361320176113801	52655125.30939706
0.736254706280982	52725368.897793174
0.7363774153986956	52795624.19345411
0.7365001449679286	52865891.19833085
0.7366228949920899	52936169.91437513
0.7367456654745885	53006460.34353874
0.7368684564188344	52589562.082096025
0.7369912678282374	51897238.93580415
0.7371140997062088	51204800.40232094
0.7372369520561599	50512246.462414816
0.7373598248815024	49819577.0968536
0.7374827181856494	49126792.286396965
0.7376056319720137	48433892.01180521
0.7377285662440091	47740876.25383423
0.7378515210050496	47747072.06883059
0.7379744962585505	47963675.158942126
0.738097492007927	48180314.34956863
0.7382205082565949	48396989.64672677
0.738343545007971	48613701.05643439
0.7384666022654723	48830448.584710516
0.7385896800325165	49047232.23757436
0.7387127783125219	49264052.021047294
0.7388358971089073	48748848.959640495
0.7389590364250921	48160132.698192686
0.7390821962644963	47571318.317367524
0.7392053766305403	46982405.80081309
0.7393285775266454	46393395.13217213
0.7394517989562333	45804286.29508583
0.7395750409227259	45215079.27319431
0.7396983034295463	44700523.34402975
0.739821586480118	45848735.3274421
0.7399448900778645	46997138.679516084
0.7400682142262109	48145733.432152234
0.740191558928582	49294519.617245935
0.7403149241884034	50443497.26670291
0.7404383100091014	51592666.41243509
0.7405617163941028	52742027.08635749
0.7406851433468352	53536269.84239174
0.7408085908707264	52705189.559053846
0.7409320589692048	51873970.76233581
0.7410555476456997	51042613.42915097
0.7411790569036406	50211117.53641121
0.7413025867464579	49379483.06102242
0.7414261371775823	48547709.97988751
0.7415497082004452	47715798.26990638
0.7416732998184786	47181000.30056533
0.741796912035115	47283778.10492798
0.7419205448537874	47386573.03892466
0.7420441982779297	47489385.10541034
0.742167872310976	47592214.30724052
0.7422915669563612	47695060.647271015
0.7424152822175206	47797924.12835814
0.7425390180978901	47900804.75335873
0.7426627746009065	47708501.94885272
0.7427865517300065	47156296.45259881
0.7429103494886282	46603998.922094956
0.7430341678802096	46051609.342003115
0.7431580069081896	45499127.69698128
0.7432818665760077	44946553.9716845
0.7434057468871037	44393888.150767304
0.7435296478449182	43841130.218880266
0.7436535694528923	43408854.11953622
0.7437775117144678	43059042.54739544
0.7439014746330868	42709172.673326485
0.7440254582121922	42359244.48761155
0.7441494624552276	42009257.98053219
0.7442734873656368	41659213.14236839
0.7443975329468645	41309109.96339796
0.7445215992023557	40958948.433897726
0.7446456861355559	40775911.854654804
0.7447697937499119	40654430.66186236
0.7448939220488703	40532929.22220447
0.7450180710358784	40411407.532306746
0.7451422407143843	40289865.58879403
0.7452664310878367	40168303.388290614
0.7453906421596846	40046720.92742057
0.7455148739333779	39925118.20280702
0.7456391264123667	40175479.06671598
0.7457633996001021	40485359.8190146
0.7458876935000356	40795292.21810583
0.7460120081156189	41105276.27259632
0.7461363434503048	41415311.991096035
0.7462606995075466	41725399.38221578
0.7463850762907978	42035538.45456692
0.7465094738035127	42344717.82869031
0.7466338920491467	42389375.2392036
0.746758331031155	42434040.09261868
0.7468827907529935	42478712.390175946
0.7470072712181189	42523392.13311614
0.7471317724299886	42568079.32268017
0.7472562943920602	42612773.96010909
0.7473808371077922	42657476.046644285
0.7475054005806435	42715623.78758924
0.7476299848140736	42856555.28671763
0.7477545898115426	42997510.27442925
0.7478792155765113	43138488.75463884
0.7480038621124406	43279490.7312617
0.7481285294227926	43420516.20821396
0.7482532175110298	43561565.189412534
0.7483779263806148	43702637.67877444
0.7485026560350116	43827215.2808839
0.7486274064776842	43907107.21675227
0.748752177712097	43987012.46794313
0.7488769697417158	44066931.036676034
0.749001782570006	44146862.92517029
0.7491266162004343	44226808.13564594
0.7492514706364677	44306766.67032338
0.7493763458815739	44386738.53142334
0.7495012419392209	44368078.66088217
0.7496261588128773	44207601.650709234
0.7497510965060128	44047097.89436783
0.7498760550220971	43886567.387400426
0.7500010343646007	43726010.12534851
0.7501260345369949	43565426.10375283
0.750251055542751	43404815.31815373
0.7503760973853414	43244177.76409028
0.7505011600682389	43105214.76242452
0.750626243594917	42984348.71067959
0.7507513479688495	42863462.51459288
0.7508764731935109	42742556.17080679
0.7510016192723765	42621629.675963365
0.7511267862089218	42500683.026704244
0.7512519740066232	42379716.21967021
0.7513771826689577	42258729.25150159
0.7515024121994025	42277360.656078406
0.7516276626014359	42361102.499206714
0.751752933878536	42444858.299308725
0.7518782260341824	42528628.05871079
0.7520035390718548	42612411.779739454
0.7521288729950334	42696209.46472158
0.7522542278071992	42780021.115984544
0.7523796035118337	42863846.73585609
0.7525050001124189	42950660.47068881
0.7526304176124378	43038135.48428786
0.7527558560153731	43125625.07705572
0.752881315324709	43213129.25142246
0.7530067955439299	43300648.00981829
0.7531322966765205	43388181.35467374
0.7532578187259665	43475729.28842004
0.7533833616957542	43563291.81348861
0.75350892558937	43480796.893071845
0.7536345104103016	43390290.9501454
0.7537601161620366	43299769.922895186
0.7538857428480638	43209233.808807
0.7540113904718717	43118682.60536659
0.7541370590369503	43028116.31005896
0.7542627485467898	42937534.920368716
0.7543884590048808	42840917.947124586
0.7545141904147151	42684247.895925425
0.7546399427797842	42527551.733051315
0.7547657161035808	42370829.454150036
0.754891510389598	42214081.054868944
0.7550173256413296	42057306.53085458
0.7551431618622698	41900505.87775292
0.7552690190559135	41743679.091209106
0.7553948972257561	41563872.72093156
0.7555207963752938	41306990.306478724
0.755646716508023	41050065.0782903
0.755772657627441	40793097.02923042
0.7558986197370455	40536086.15216233
0.756024602840335	40279032.43994812
0.7561506069408084	40021935.885448545
0.7562766320419653	39764796.48152299
0.7564026781473054	39451861.21135026
0.75652874526033	39040763.362717055
0.7566548333845401	38629596.99777553
0.7567809425234375	38218362.10510667
0.7569070726805247	37807058.673289254
0.7570332238593047	37395686.69089993
0.7571593960632813	36984246.14651315
0.7572855892959586	36572737.02870228
0.7574118035608413	36181078.07363975
0.7575380388614347	35808841.002919465
0.7576642952012449	35436541.89268725
0.7577905725837782	35064180.73260387
0.7579168710125422	34691757.51232648
0.7580431904910444	34319272.221512236
0.7581695310227928	33946724.84981666
0.7582958926112967	33574115.38689199
0.7584222752600652	33046692.2989242
0.7585486789726085	32430282.46284233
0.7586751037524372	31813769.891787548
0.7588015496030628	31197154.568636388
0.7589280165279966	30580436.476265922
0.7590545045307512	29963615.597546726
0.7591810136148396	29346691.91534776
0.7593075437837755	28729665.41253418
0.7594340950410726	28154143.55346815
0.7595606673902461	27590597.62613418
0.7596872608348112	27026957.77447842
0.7598138753782836	26463223.98284801
0.75994051102418	25899396.235585134
0.7600671677760173	25335474.517031487
0.7601938456373134	24771458.811524317
0.7603205446115863	24207349.103399877
0.7604472647023548	23502817.448226955
0.7605740059131385	22784219.79175491
0.7607007682474575	22065502.369006082
0.7608275517088319	21346665.160021726
0.7609543563007835	20627708.14483428
0.7610811820268336	19908631.303478066
0.7612080288905045	19189434.615983006
0.7613348968953197	18467448.014432486
0.7614617860448022	17690557.593662623
0.7615886963424764	16913537.691154905
0.7617156277918667	16136388.285330854
0.7618425803964988	15359109.354605192
0.7619695541598982	14581700.877391284
0.7620965490855914	13804162.832098413
0.7622235651771058	13026495.197130427
0.7623506024379685	12264445.953951389
0.7624776608717082	11571294.919011185
0.7626047404818536	10878028.358898457
0.7627318412719337	10184646.254360236
0.762858963245479	9491148.586137488
0.7629861064060198	8797535.334969975
0.7631132707570876	8103806.481593215
0.7632404563022137	7409962.0067415135
0.7633676630449308	6773913.27843056
0.7634948909887717	6261032.657824769
0.7636221401372697	5748066.55711621
0.7637494104939593	5235014.96205705
0.7638767020623748	4721877.8583994545
0.7640040148460518	4208655.2318906635
0.7641313488485262	3695347.068277475
0.7642587040733344	3181953.353303101
0.7643860805240132	2778288.774877128
0.7645134782041005	2505598.777935765
0.7646408971171346	2232863.332661465
0.764768337266654	1960082.4314797185
0.7648957986561985	1687256.066814354
0.7650232812893079	1414384.2310882478
0.7651507851695227	1141466.9167228516
0.7652783103003843	868504.116138428
0.7654058566854343	703476.5731983794
0.7655334243282153	612013.2311744518
