#wavelength	surface flux
0.8	7663582.162498785
0.8002000000000001	7779230.101395015
0.8004000500000003	7897325.027691044
0.8006001500125003	8015473.902661126
0.8008003000500035	8133652.31484996
0.8010005001250161	8251860.271641895
0.8012007502500472	8370097.780422858
0.8014010504376099	8486588.284549586
0.8016014007002193	8602512.816627713
0.8018018010503944	8718466.329838857
0.8020022515006572	8834448.831428356
0.8022027520635323	8950460.328643154
0.8024033027515483	9069842.739737956
0.8026039035772362	9192529.938976988
0.8028045545531306	9315247.810015837
0.8030052556917691	9437996.360522503
0.803206007005692	9560775.59816669
0.8034068085074435	9683258.885742508
0.8036076602095705	9804857.16063397
0.8038085621246229	9926485.835094057
0.8040095142651542	10048144.916722836
0.8042105166437206	10169834.41312198
0.8044115692728815	10291527.861119045
0.8046126721651998	10412113.17775826
0.8048138253332411	10532728.640726537
0.8050150287895745	10653374.257560669
0.805216282546772	10774050.035798976
0.8054175866174087	10894755.982981779
0.8056189410140631	11018360.76492894
0.8058203457493168	11142808.464421125
0.8060218008357541	11267287.275838025
0.8062233062859632	11391797.206957838
0.8064248621125346	11516338.265560348
0.806626468328063	11643889.941602208
0.8068281249451449	11774032.520310363
0.8070298319763813	11904207.634663356
0.8072315894343755	12034415.29279484
0.8074333973317341	12164655.502840906
0.8076352556810671	12291286.48030489
0.8078371644949874	12409182.712529818
0.8080391237861113	12527108.418812828
0.8082411335670578	12645063.606522338
0.8084431938504498	12763048.283028899
0.8086453046489125	12880869.966213474
0.8088474659750746	12995137.295357507
0.8090496778415686	13109433.191333978
0.809251940261029	13223757.661284361
0.8094542532460944	13338110.712352328
0.8096566168094059	13452492.351682933
0.8098590309636085	13575815.02013961
0.8100614957213493	13701254.547147084
0.8102640110952797	13826725.434036326
0.8104665770980536	13952227.688647341
0.8106691937423283	14077761.318822056
0.8108718610407639	14204400.062913047
0.8110745790060241	14331891.492053883
0.8112773476507757	14459414.794052117
0.8114801669876885	14586969.976875817
0.8116830370294355	14714557.048495147
0.8118859577886929	14838969.281654352
0.8120889292781401	14956752.088579493
0.8122919515104597	15074564.341206357
0.8124950244983374	15192406.046896383
0.8126981482544621	15310277.213012815
0.8129013227915257	15429697.310206458
0.8131045481222237	15566545.349348253
0.8133078242592543	15703427.600499848
0.8135111512153191	15840344.072214194
0.813714529003123	15977294.773046486
0.8139179576353739	16114279.711554008
0.8141214371247829	16280259.723048855
0.8143249674840641	16451897.220969694
0.814528548725935	16623577.628264908
0.8147321808631167	16795300.955662176
0.8149358639083326	16967067.213891245
0.8151395978743097	17119161.900900543
0.8153433827737784	17257974.65959508
0.8155472186194719	17396822.12147924
0.8157511054241268	17535704.295228843
0.815955043200483	17674621.18952198
0.8161590319612831	17784004.57660012
0.8163630717192736	17839235.12047103
0.8165671624872033	17894479.471977852
0.8167713042778252	17949737.634572603
0.8169754971038948	18005009.61170803
0.8171797409781707	18012944.148563277
0.8173840359134155	17642860.909122102
0.8175883819223938	17272685.148871493
0.8177927790178745	16902416.84468061
0.8179972272126291	16532055.973413585
0.8182017265194322	16161602.511929115
0.8184062769510622	16049458.450326703
0.8186108785203001	15977050.598005887
0.8188155312399301	15904624.643722087
0.8190202351227402	15832180.582949637
0.819224990181521	15759718.41116204
0.8194297964290664	16246655.295954766
0.8196346538781738	17070901.623168036
0.8198395625416434	17895354.011962783
0.8200445224322789	18720012.513855074
0.820249533562887	19544877.180372596
0.8204545959462778	20175779.95443439
0.8206597095952644	20494332.125212036
0.8208648745226633	20812963.934032626
0.8210700907412941	21131675.40080537
0.8212753582639793	21450466.545444485
0.8214806771035456	21745456.08265606
0.8216860472728215	21893381.4314571
0.8218914687846397	22041343.761595346
0.822096941651836	22189343.082316205
0.822302465887249	22337379.402867157
0.8225080415037209	22485452.732498325
0.8227136685140968	22619283.535124134
0.8229193469312254	22751526.768613834
0.8231250767679583	22883803.06291195
0.8233308580371503	23016112.426283564
0.8235366907516598	23148454.866996124
0.8237425749243477	23339562.08501307
0.8239485105680789	23561845.908901405
0.824154497695721	23784185.30374557
0.824360536320145	24006580.283438493
0.8245666264542252	24229030.861876328
0.8247727681108388	24430804.749888968
0.8249789613028664	24602936.521293674
0.8251852060431922	24775111.325641382
0.825391502344703	24947329.1736901
0.8255978502202894	25119590.076200984
0.8258042496828445	25290687.10593119
0.8260107007452654	25455965.330494843
0.8262172034204517	25621284.874614466
0.8264237577213068	25786645.748620164
0.8266303636607373	25952047.96284444
0.8268370212516525	26117491.527622186
0.8270437305069654	26251588.161017034
0.8272504914395923	26383265.527526163
0.8274573040624523	26514975.813376945
0.8276641683884679	26646719.02679908
0.8278710844305652	26778495.176024724
0.8280780522016729	26929812.519601423
0.8282850717147234	27090084.877606537
0.8284921429826521	27250397.303700987
0.8286992660183978	27410749.807902087
0.8289064408349024	27571142.400229122
0.8291136674451112	27729188.492481947
0.8293209458619727	27884264.715490468
0.8295282760984382	28039379.707554538
0.829735658167463	28194533.4783668
0.8299430920820048	28349726.037621565
0.8301505778550254	28505784.561962005
0.8303581154994891	28665183.566439398
0.8305657050283641	28824622.42066807
0.8307733464546212	28984101.134610176
0.8309810397912352	29143619.71823103
0.8311887850511829	29303178.18149747
0.8313965822474458	29495811.063597027
0.8316044313930077	29690025.41116227
0.8318123325008561	29884288.312314585
0.8320202855839813	30078599.779192094
0.8322282906553774	30272959.82393634
0.8324363477280413	30436894.916815817
0.8326444568149735	30588602.45301582
0.8328526179291771	30740347.91609969
0.8330608310836596	30892131.315549564
0.8332690962914304	31043952.6608491
0.8334774135655034	31179125.016562097
0.833685782918895	31295691.29989797
0.8338942043646247	31412286.7248046
0.834102677915716	31528911.298567545
0.834311203585195	31645565.028473835
0.8345197813860912	31771895.909724455
0.8347284113314379	31930734.403248657
0.8349370934342709	32089612.60639615
0.8351458277076294	32248530.529094238
0.8353546141645565	32407488.181273263
0.8355634528180977	32566485.572865266
0.8357723436813022	32691900.875648934
0.8359812867672226	32816932.388226084
0.8361902820889144	32941995.158681314
0.8363993296594368	33067089.194829196
0.8366084294918518	33192214.50448616
0.8368175815992247	33373296.659051143
0.8370267859946247	33573685.422672115
0.8372360426911234	33774124.28348393
0.8374453517017962	33974613.25401093
0.8376547130397217	34175152.34678054
0.8378641267179816	34351816.4063602
0.8380735927496613	34504784.64596762
0.8382831111478488	34657791.127634846
0.8384926819256358	34810835.86092241
0.8387023050961173	34963918.855393425
0.8389119806723914	35115341.087994084
0.8391217086675596	35262019.543187134
0.8393314890947265	35408734.667993866
0.8395413219670003	35555486.47158182
0.8397512072974922	35702274.963120766
0.8399611450993165	35848688.480501235
0.8401711353855914	35974695.15256015
0.8403811781694378	36100733.32628704
0.8405912734639802	36226803.009557396
0.8408014212823464	36352904.210248634
0.8410116216376671	36479036.93624002
0.8412218745430766	36611978.19683313
0.8414321800117124	36746924.53863913
0.8416425380567154	36881904.61703064
0.8418529486912297	37016918.44044178
0.8420634119284025	37151966.01730866
0.8422739277813847	37361864.562456
0.8424844962633302	37637732.44425277
0.842695117387396	37913669.29301964
0.8429057911667428	38189675.125998706
0.8431165176145345	38465749.96043616
0.8433272967439382	38677193.235923
0.8435381285681244	38730866.72183795
0.8437490131002665	38784553.62612437
0.8439599503535415	38838253.95213683
0.84417094034113	38891967.70323083
0.8443819830762154	38950898.52799963
0.8445930785719846	39114671.96362077
0.8448042268416277	39278486.342600726
0.8450154278983382	39442341.6751754
0.8452266817553128	39606237.97158321
0.8454379884257517	39770175.24206514
0.8456493479228583	39978359.96299079
0.845860760259839	40197242.178432785
0.846072225449904	40416179.11442863
0.8462837435062666	40635170.78465853
0.8464953144421433	40854217.20280611
0.8467069382707537	41033188.59192531
0.8469186150053215	41180924.78455129
0.847130344659073	41328697.911225475
0.8473421272452377	41476507.98118118
0.8475539627770492	41624355.00365453
0.8477658512677435	41754368.842288785
0.8479777927305605	41846470.28339069
0.8481897871787432	41938594.74985285
0.848401834625538	42030742.24743167
0.8486139350841944	42122912.78188484
0.8488260885679657	42195671.74891753
0.8490382950901076	42031547.90844977
0.8492505546638802	41867383.03702181
0.8494628673025462	41703177.12437605
0.8496752330193721	41538930.160251886
0.8498876518276269	41374642.13438691
0.8501001237405839	39952629.58896881
0.8503126487715191	38279205.83579225
0.850525226933712	36605363.72667832
0.8507378582404455	34931103.157037124
0.8509505427050057	33256424.022252552
0.8511632803406821	31770824.350320555
0.8513760711607672	30414624.7990408
0.8515889151785576	29058086.197871123
0.8518018124073523	27701208.462052282
0.8520147628604541	26343991.506800294
0.8522277665511693	25925083.45227659
0.8524408234928071	27241987.064845853
0.8526539336986805	28559219.903318614
0.8528670971821053	29876782.050001074
0.8530803139564007	31194673.58721865
0.8532935840348901	32611889.504082754
0.8535069074308987	34865522.29900203
0.8537202841577566	37119718.502121925
0.8539337142287962	39374478.25429285
0.8541471976573534	41629801.69640041
0.8543607344567677	43885688.96936891
0.8545743246403821	44578911.338108055
0.8547879682215422	45024048.40010943
0.8550016652135977	45469296.74637625
0.8552154156299011	45914656.404729664
0.8554292194838088	46360127.40299799
0.8556430767886797	46654632.82681287
0.855856987557877	46857481.9478568
0.8560709518047664	47060381.781180866
0.8562849695427177	47263332.33946334
0.8564990407851035	47466333.63538544
0.8567131655452999	47633454.45305656
0.8569273438366862	47741742.533784345
0.8571415756726455	47850057.686532326
0.8573558610665638	47958399.918068536
0.8575702000318304	48066769.23516251
0.8577845925818384	48191078.72663674
0.857999038729984	48414818.26840314
0.8582135384896665	48638613.74505494
0.858428091874289	48862465.1705759
0.8586426988972576	49086372.55895319
0.8588573595719821	49310335.924177654
0.8590720739118751	49334134.29048398
0.8592868419303532	49334331.953431025
0.8595016636408359	49334529.66579381
0.8597165390567462	49334727.427584685
0.8599314681915105	49334925.23881601
0.8601464510585584	48933379.29024768
0.860361487671323	48318490.145677775
0.8605765780432408	47703447.2788219
0.8607917221877518	47088250.65124881
0.8610069201182988	46472900.224519
0.8612221718483286	45114781.960200876
0.8614374773912907	42685745.58731245
0.8616528367606385	40256101.95533147
0.8618682499698288	37825850.91244094
0.8620837170323213	35394992.306790106
0.8622992379615795	33373205.692241408
0.8625148127710699	33378261.538906705
0.8627304414742627	33383318.64953367
0.8629461240846313	33388377.024438296
0.8631618606156526	33393436.663936645
0.8633776510808066	33398497.56834487
0.8635934954935769	34301225.02903268
0.8638093938674504	35277761.4190429
0.8640253462159173	36254541.94315059
0.8642413525524714	37231566.662389286
0.8644574128906095	38208835.637807585
0.8646735272438323	38934527.867339596
0.8648896956256433	39543297.747942805
0.8651059180495498	40152219.82101619
0.8653221945290621	40761294.124607265
0.8655385250776946	41370520.696775086
0.8657549097089641	41967896.417729616
0.8659713484363913	42550054.80195996
0.8661878412735006	43132358.725786634
0.866404388233819	43714808.22559419
0.8666209893308775	44297403.33777643
0.8668376445782103	44781551.28126708
0.8670543539893549	44863412.92394549
0.8672711175778525	44945295.03203463
0.8674879353572469	45027197.610650696
0.8677048073410862	45109120.66491146
0.8679217335429217	45191064.19993582
0.8681387139763074	45475804.44039042
0.8683557486548015	45770689.27187428
0.8685728375919655	46065647.82456638
0.8687899808013633	46360680.116896
0.8690071782965637	46655786.16729909
0.869224430091138	46630757.46256883
0.8694417361986609	46475430.05392539
0.8696590966327107	46320063.813429825
0.869876511406869	46164658.73137414
0.8700939805347206	46009214.798048005
0.8703115040298544	45942987.90804723
0.870529081905862	45978789.780720316
0.8707467141763385	46014600.603861555
0.8709644008548827	46050420.37970858
0.8711821419550964	46086249.110499546
0.8713999374905854	46128469.82024539
0.871617787474958	46192731.107964285
0.8718356919218269	46257008.46100516
0.8720536508448075	46321301.8833843
0.8722716642575187	46385611.37911901
0.8724897321735832	46449936.95222767
0.8727078546066265	46805192.17399595
0.8729260315702784	47164961.95923789
0.873144263078171	47524821.686925754
0.8733625491439405	47884771.37954558
0.8735808897812266	48244811.05958869
0.8737992850036719	48316382.05919738
0.874017734824923	48285768.208137095
0.8742362392586293	48255146.70361406
0.874454798318444	48224517.543714896
0.8746734120180236	48193880.726525754
0.8748920803710283	48202101.782887705
0.875110803391121	48249381.05156346
0.8753295810919689	48296672.1400564
0.875548413487242	48343975.05132147
0.8757673005906139	48391289.78831435
0.8759862424157616	48648603.11539849
0.8762052389763657	49513587.37479076
0.8764242902861098	50378787.88024728
0.8766433963586814	51244204.68583039
0.8768625572077712	52109837.84561517
0.8770817728470732	52966298.68542857
0.8773010432902849	53089925.42778552
0.8775203685511077	53213583.07682825
0.8777397486432454	53337271.64028308
0.8779591835804065	53460991.12587892
0.8781786733763015	53584741.541346
0.8783982180446457	53227976.153739065
0.878617817599157	52728167.90154023
0.8788374720535569	52228234.697278574
0.8790571814215703	51728176.50971598
0.8792769457169257	51227993.30760649
0.879496764953355	51148284.59126284
0.8797166391445934	51446702.552092105
0.8799365683043796	51745195.11741159
0.8801565524464557	52043762.3058724
0.8803765915845676	52342404.13613061
0.8805966857324639	52603598.28314634
0.880816834903897	52770612.85006253
0.881037039112623	52937669.170620516
0.8812572983724012	53104767.25525863
0.8814776126969944	53271907.11441796
0.8816979821001687	53434853.28984129
0.8819184065956938	53498136.555683255
0.8821388861973429	53561435.64234175
0.8823594209188923	53624750.553771846
0.882580010774122	53688081.29392978
0.8828006557768155	53751427.86677278
0.8830213559407598	54235165.33439552
0.8832421112797452	54824752.330614805
0.8834629218075651	55414486.72358279
0.8836837875380171	56004368.55014919
0.8839047084849018	56594397.84717233
0.884125684662023	56644263.17217527
0.8843467160831886	56261150.318532065
0.8845678027622095	55877941.686675444
0.8847889447129001	55494637.25266079
0.8850101419490785	55111236.99253769
0.8852313944845657	55315330.39385713
0.885452702333187	56805636.19097105
0.8856740655087704	58296314.56453402
0.8858954840251476	59787365.60768999
0.8861169578961539	61278789.413606055
0.886338487135628	62608294.09248043
0.886560071757412	61778445.7052184
0.8867817117753515	60948389.85585958
0.8870034072032955	60118126.49253804
0.8872251580550963	59287655.56337665
0.8874469643446101	58456977.01648245
0.8876688260856963	58483045.32165298
0.8878907432922178	58686477.86467937
0.8881127159780409	58889961.26584138
0.8883347441570356	59093495.53785393
0.8885568278430749	59297080.69343426
0.8887789670500358	59134308.91205099
0.8890011617917983	58711576.377630845
0.8892234120822464	58288738.160076894
0.8894457179352669	57865794.232968904
0.8896680793647509	57442744.5698788
0.8898904963845921	57129361.19093866
0.8901129690086883	57025347.420518525
0.8903354972509405	56921307.64665582
0.8905580811252535	56817241.86284956
0.8907807206455347	56713150.06259749
0.8910034158256963	56612402.04753598
0.8912261666796527	56541744.6990645
0.8914489732213227	56471069.686255895
0.8916718354646282	56400377.004694015
0.8918947534234944	56329666.64996181
0.8921177271118502	56258938.617640965
0.8923407565436284	55066811.15135817
0.8925638417327644	53691457.7976606
0.8927869826931977	52315760.60562415
0.8930101794388711	50939719.489289775
0.8932334319837308	49563334.362676546
0.8934567403417267	48611043.72096032
0.8936801045268123	47922253.621980116
0.8939035245529441	47233291.325475626
0.8941270004340824	46544156.78839674
0.894350532184191	45854849.96768376
0.8945741198172371	46371120.849552
0.8947977633471915	48887113.396362714
0.8950214627880284	51403734.941310026
0.8952452181537254	53920985.64164208
0.8954690294582639	56438865.65465073
0.8956928967156286	58835942.32409341
0.8959168199398075	60445562.56044983
0.8961407991447926	62055585.20186575
0.8963648343445789	63666010.348941974
0.896588925553165	65276838.102304064
0.8968130727845534	66888068.5626047
0.8970372760527496	67064090.19931935
0.8972615353717629	67060531.91581375
0.8974858507556059	67056972.74273727
0.8977102222182949	67053412.67986753
0.8979346497738496	67049851.726982065
0.8981591334362931	67224254.97770748
0.8983836732196523	67496026.75448135
0.8986082691379572	67767866.47419925
0.8988329212052417	68039774.15384707
0.8990576294355432	68311749.81041504
0.8992823938429022	68481971.94572534
0.8995072144413631	68500840.98304158
0.8997320912449734	68519714.73761714
0.8999570242677847	68538593.21063134
0.9001820135238516	68557476.4032638
0.9004070590272328	68684729.68158871
0.9006321607919896	69380102.98628257
0.9008573188321878	70075650.13430333
0.9010825331618959	70771371.16911075
0.9013078037951865	71467266.13417698
0.9015331307461353	72163335.07298411
0.9017585140288219	72990043.8638283
0.9019839536573292	73828196.69238876
0.9022094496457435	74666559.05915575
0.9024350020081551	75505131.01651539
0.9026606107586572	76343912.6168641
0.902886275911347	76656328.9132729
0.9031119974803249	76714977.51106344
0.9033377754796951	76773640.77100343
0.903563609923565	76832318.69675837
0.903789500826046	76891011.29199481
0.9040154482012526	76771886.75767374
0.904241452063303	76422366.86914381
0.9044675124263188	76072759.60064183
0.9046936293044254	75723064.93032278
0.9049198027117517	75373282.83633599
0.9051460326624297	75109879.3946088
0.9053723191705955	75214602.86150533
0.9055986622503881	75319352.50926849
0.9058250619159507	75424128.3444436
0.9060515181814298	75528930.37357758
0.9062780310609752	75633758.60321875
0.9065046005687405	76092226.4256849
0.906731226718883	76570535.91043477
0.9069579095255627	77048964.9725552
0.907184649002944	77527513.6419412
0.907411445165195	78006181.94849503
0.9076382980264862	78526452.81710547
0.907865207600993	79064081.52288917
0.9080921739028933	79601844.63584913
0.9083191969463691	80139742.18958727
0.9085462767456058	80677774.21771409
0.9087734133147922	80810618.59334324
0.9090006066681211	80475344.06062016
0.909227856819788	80139985.70926434
0.9094551637839932	79804543.51832022
0.9096825275749393	79469017.46682847
0.9099099482068329	79227066.97703822
0.9101374256938848	79317923.28482737
0.9103649600503083	79408802.30669342
0.9105925512903209	79499704.04831491
0.9108201994281437	79590628.5153719
0.9110479044780008	79681575.71354556
0.9112756664541204	80348117.58248563
0.911503485370734	81028000.82699057
0.9117313612420768	81708054.04230666
0.9119592940823873	82388277.27092637
0.912187283905908	83068670.55535345
0.9124153307268845	83149167.19653864
0.9126434345595664	83011894.80953954
0.9128715954182063	82874588.10444382
0.9130998133170609	82737247.07267174
0.9133280882703902	82599871.70564175
0.913556420292458	82547730.89951916
0.9137848093975312	82583516.13869216
0.9140132555998806	82619310.32417496
0.9142417589137806	82655113.45820412
0.9144703193535092	82690925.54301682
0.9146989369333476	82735754.73898628
