#wavelength	surface flux
0.676892	41869.99255849332
0.678297	44426.15122120651
0.679702	46986.160505442334
0.681109	49580.326525031465
0.682517	52194.95669231939
0.683926	54814.21042832591
0.685337	57432.607210295784
0.686749	60052.55730424514
0.688164	62657.211723504144
0.689581	65164.94002473312
0.691	67215.94800666803
0.692422	68709.21810218717
0.693847	71233.67173629558
0.695274	74056.50476784287
0.696705	76844.50787877777
0.698139	79152.3839212652
0.699576	81008.88633474841
0.701017	82433.10902795994
0.702461	83862.0357452425
0.70391	85644.6020901929
0.705362	86935.52305261765
0.706819	87863.27190230241
0.70828	88668.49445114174
0.709745	89010.02982277822
0.711216	89339.95741243687
0.71269	88970.55933678457
0.71417	88194.86803682323
0.715655	86404.77315324034
0.717145	83358.90911932169
0.71864	81499.9743719785
0.72014	80179.17936889121
0.721647	78879.7722192557
0.723158	76162.5373986855
0.724676	72715.58655204349
0.726199	69259.83209638328
0.727728	66262.22336919513
0.729264	62112.58617709193
0.730805	58299.903224192414
0.732353	54910.085634427276
0.733907	50985.16248378502
0.735468	46925.22739770521
0.737035	42550.98818560297
0.738609	38219.35499785293
0.74019	34399.91185647407
0.741777	30344.800741335206
0.743372	26451.225694599667
0.744973	22862.05461118035
0.746582	19474.29386377674
0.748197	16393.89966403899
0.74982	13586.020229657452
0.751451	11077.37788963407
0.753088	8932.959471850643
0.754734	7067.059705136482
0.756386	5476.8354639598565
0.758047	4142.50828734032
0.759715	3032.672525148988
0.76139	2083.4277113840817
0.763074	1271.9472142245604
0.764765	594.1752879195972
0.766464	179.04756709659014
0.768172	250.93974338421935
0.769887	241.51786207253835
0.77161	869.8567224196615
0.773341	1972.4808185901493
0.775081	3316.6584062987777
0.776829	4951.606068207366
0.778585	6342.257146549801
0.780349	7583.163614538649
0.782121	12173.495037093997
0.783902	17085.93442195462
0.785691	22308.6042624845
0.787489	28552.672219055847
0.789295	35790.429966837575
0.79111	42974.84922259809
0.792933	37746.85768043261
0.794764	22275.761246145154
0.796604	61752.73659544297
0.798453	91953.86162883158
0.80031	112067.35890949736
0.802176	132366.6553494124
0.804051	154682.77754089943
0.805934	178760.23784656037
0.807826	203997.6340134286
0.809727	228146.99796960765
0.811636	253423.84544832713
0.813554	282237.5398072178
0.81548	322739.5970827001
0.817416	364688.1901654355
0.81936	407199.37576761685
0.821313	458481.34483669896
0.823274	498630.9819969263
0.825244	560257.3945729211
0.827223	619265.474534249
0.829211	674876.4119380052
0.831208	738638.9208962022
0.833213	810501.9803261393
0.835227	871513.0748944599
0.837249	949536.6462971653
0.83928	1034231.2543886296
0.841321	1115781.76378198
0.843369	1223661.8777678912
0.845427	1320863.3991070078
0.847493	1436922.2704258754
0.849567	1408764.0178083943
0.851651	1080507.6021063903
0.853742	1390464.1568760618
0.855843	1903669.1442090883
0.857952	2104201.8292955104
0.86007	2259015.3888783385
0.862196	2366282.518906055
0.864331	2530467.9095685063
0.866474	2727493.470687558
0.868626	2922257.8643646915
0.870786	3124240.281554493
0.872955	3328599.4171796194
0.875132	3536778.612879561
0.877317	3765807.9677190357
0.879511	3969907.349999962
0.881713	4141119.9402284324
0.883923	4328216.689971392
0.886142	4556527.025551088
0.888369	4672726.02898527
0.890604	4653650.02359754
0.892847	3569649.560861267
0.895099	3286393.4462813535
0.897358	4924033.898559236
0.899626	5963995.2472709445
0.901901	6541831.272418425
0.904185	7209996.546035077
0.906476	7460877.63852611
0.908776	7805468.092293601
0.911083	8073277.894073262
0.913398	8462407.662588261
0.915721	8671146.403001191
0.918051	8482211.20818849
0.92039	9270141.967959523
0.922736	9863894.527332097
0.925089	8889220.254950892
0.927451	5298774.539828438
0.929819	3439180.8425503895
0.932195	4802824.33362628
0.934579	5065798.4686028315
0.93697	6641220.576799409
0.939369	8407336.725573473
0.941774	8034784.317916943
0.944187	4892638.264674889
0.946607	5345230.867612905
0.949035	5359045.526782911
0.951469	6694908.604736218
0.953911	7719853.455167377
0.956359	9279347.29278145
0.958814	7888844.4171616435
0.961277	6727566.3286696235
0.963746	6753583.5493015535
0.966222	7418566.792719705
0.968705	8183107.645112687
0.971194	11565501.234310757
0.97369	13550739.927771656
0.976193	13192990.084447246
0.978702	13684712.644924272
0.981217	13144157.371025683
0.983739	14690722.312658777
0.986268	15901604.78716261
0.988802	16652963.751482831
0.991343	17676190.931502126
0.99389	18103501.221491653
0.996444	18501731.72255306
0.999003	18056117.48829673
1.00157	18167814.048938196
1.00414	18649250.731108997
1.00672	19646633.88382474
1.0093	20451642.876512423
1.01189	21276938.900994785
1.01448	22036791.38991325
1.01708	22336279.00490748
1.01969	22399106.568228424
1.0223	22252761.951400653
1.02492	22045433.591884557
1.02754	21840110.41031826
1.03017	22141698.119724832
1.0328	22773833.95305948
1.03544	23113460.78261395
1.03808	23210709.121904727
1.04073	23087752.799285095
1.04339	22961030.2427387
1.04604	22842004.68403602
1.04871	22640589.081270654
1.05138	22477226.51848414
1.05405	22464523.837459497
1.05673	22620823.13425262
1.05941	22679131.68629803
1.0621	22766131.9572017
1.06479	22396219.044680636
1.06749	21997744.487088908
1.07019	21432355.644802414
1.07289	21270561.397280585
1.0756	21140183.656389527
1.07832	20892918.12654542
1.08104	20754854.67651918
1.08376	20610251.3757308
1.08649	20201914.914006095
1.08922	19182623.36404104
1.09195	17369472.909016963
1.09469	15290267.994003162
1.09743	14559119.176250175
1.10018	11187831.05484264
1.10293	7810150.121303273
1.10568	5795112.321539028
1.10844	8008199.136213801
1.1112	5108721.3263252275
1.11396	4016504.19839259
1.11673	4180109.972787032
1.1195	4248010.2617634125
1.12228	2324617.192151794
1.12505	2313705.9360700184
1.12783	5182746.75183911
1.13062	4739362.339012626
1.13341	2031787.4197296468
1.1362	4553492.456355454
1.13899	8234230.957420934
1.14178	6839008.502625992
1.14458	5249220.994363575
1.14738	6815124.238084011
1.15019	6597043.63638784
1.153	3045557.08917595
1.1558	3405364.2707857946
1.15862	3945242.289680627
1.16143	3927892.810838056
1.16425	5228936.937164393
1.16707	5855103.313913927
1.16989	5739634.548342336
1.17271	6645671.754215682
1.17554	8935095.376592573
1.17837	10538149.74765992
1.1812	12438495.908350237
1.18403	15999094.072859501
1.18686	16669963.239236753
1.1897	15922452.811983397
1.19253	18852658.902865436
1.19537	21007635.56746667
1.19822	20525110.76775046
1.20106	21589596.049516857
1.2039	22634997.521552872
1.20675	23316873.210639928
1.2096	23004578.656706408
1.21245	23149003.665455982
1.2153	24378661.01754559
1.21815	25182490.698098674
1.221	25954415.82583225
1.22385	26683679.25059053
1.22671	27432962.955845453
1.22957	27837406.337906033
1.23242	28400990.128990468
1.23528	29199024.19438584
1.23814	30109725.60525341
1.241	30577410.86771202
1.24387	31066156.381129682
1.24673	32039125.75386696
1.24959	32149230.36553277
1.25245	32045054.63406373
1.25532	33723916.31292654
1.25818	35218100.30827365
1.26105	35741766.91519147
1.26392	36230725.26016686
1.26678	37053245.873182155
1.26965	37885743.97090966
1.27252	38210163.72473556
1.27538	39199101.47634384
1.27825	39079212.17242108
1.28112	37938603.86071381
1.28399	37639842.28628318
1.28686	37493548.40868612
1.28973	35141223.04287694
1.2926	34083511.41430473
1.29546	34649191.96535765
1.29833	35181338.848166
1.3012	32823198.921425447
1.30407	35339541.671360195
1.30694	34478118.0533484
1.30981	35927675.46607364
1.31267	33041457.34076495
1.31554	33954929.11046152
1.31841	35398216.960306734
1.32128	33264481.434447315
1.32414	27073969.20058795
1.32701	23111626.972486127
1.32987	15674121.119327493
1.33274	6032432.02624219
1.3356	3113778.886226783
1.33847	843709.1857429587
1.34133	260408.21119693012
1.34419	459802.4343997916
1.34705	473485.914337815
1.34991	123734.07168647979
1.35277	32650.31011595983
1.35563	139001.73645487905
1.35849	186300.3686897774
1.36135	101225.62025574232
1.3642	150098.23414088084
1.36706	131923.0196444036
1.36991	144712.26912605835
1.37277	310679.7871729791
1.37562	343577.18031253736
1.37847	192026.54733918654
1.38132	42657.70680328081
1.38417	12559.791746999948
1.38701	48174.77455761131
1.38986	84086.47530793354
1.39271	149740.97304815042
1.39555	224332.86900407737
1.39839	186168.20538340748
1.40123	414412.40715421154
1.40407	614413.1075959827
1.40691	761599.5019092346
1.40974	373916.22922587726
1.41258	101185.66621936302
1.41541	143945.16301822243
1.41824	178435.25499978755
1.42107	212579.03872493224
1.4239	185179.94642358873
1.42673	369977.33384542604
1.42955	588337.0866670315
1.43237	357185.9857788414
1.43519	475129.34043128206
1.43801	417267.29428467987
1.44083	751153.7192067185
1.44365	1294932.180139975
1.44646	1047996.6818591659
1.44927	1687524.221757602
1.45208	1945049.963441047
1.45489	2019002.5797655322
1.45769	2678281.463398106
1.4605	3649464.4750648863
1.4633	2921004.778823846
1.4661	3144467.109213529
1.4689	2832266.840122609
1.47169	3096337.381551786
1.47449	3108712.1863465626
1.47728	3154877.253856434
1.48007	2610935.2141316743
1.48286	2952792.6101207105
1.48564	3159147.91414226
1.48842	2387868.108537134
1.4912	2240616.211986618
1.49398	2726387.4640596895
1.49676	2783152.1092340276
1.49953	4162750.19532436
1.5023	5853264.354958969
1.50507	6478567.702518142
1.50784	5662425.192704953
1.51061	5225920.978802812
1.51337	6301192.023986176
1.51613	7781311.0799808325
1.51888	8274983.708337255
1.52164	9726005.18395585
1.52439	10371777.851605726
1.52714	10963429.725471657
1.52989	12265625.463889014
1.53263	12630126.749470169
1.53538	12945317.299476478
1.53812	14201932.173632791
1.54086	15544882.023321917
1.54359	15549826.980225211
1.54632	16435554.942681571
1.54905	17105549.139712356
1.55178	17661938.49241504
1.5545	18726447.625354934
1.55723	19231983.87915612
1.55995	20125954.13597154
1.56266	21282206.06765624
1.56538	21828017.245256003
1.56809	21950897.561252303
1.5708	21700659.45394157
1.57351	21174392.278595258
1.57621	21147765.848177373
1.57891	20996448.370814443
1.58161	21198817.150888022
1.5843	21537912.702866208
1.587	21527228.202543594
1.58969	21005350.527813297
1.59238	20222731.342489634
1.59506	19827073.72577873
1.59774	19564903.130089283
1.60042	19088168.429188553
1.6031	18152688.532483764
1.60577	17347748.204363115
1.60844	16845279.53305655
1.61111	16422913.430666963
1.61378	15761945.188037002
1.61644	14820295.127837991
1.6191	13818824.038501596
1.62176	12748490.23594957
1.62441	11687303.862802435
1.62707	11047686.21353306
1.62971	10238718.31692536
1.63236	10014576.565245425
1.635	11298087.474779189
1.63764	13105269.564247802
1.64028	13619544.424097862
1.64292	12137682.226594634
1.64555	9026293.291735163
1.64818	7706956.560514017
1.65081	9188369.765907994
1.65343	11058348.08945102
1.65605	11156113.699617164
1.65867	10879648.089541035
1.66128	10561192.651366798
1.6639	8646813.123020602
1.66651	4931599.360542774
1.66911	4039132.899830401
1.67172	6459413.982182492
1.67432	7806199.8996533705
1.67692	7282172.467251117
1.67951	6639668.627828014
1.68211	6989424.36333484
1.6847	6738285.736070396
1.68728	5849481.677067658
1.68987	5647200.050482861
1.69245	4965651.148954429
1.69503	3702073.026270629
1.6976	3533602.9736039806
1.70018	4049662.16387099
1.70275	3863683.9262723313
1.70531	4060613.839236785
1.70788	4721839.728560595
1.71044	4959146.2850492
1.713	5573233.565100105
1.71556	6023521.590249005
1.71811	6173612.377256351
1.72066	6336054.542895545
1.72321	5971258.382389165
1.72575	5545467.489621724
1.7283	5369694.775569038
1.73084	5129666.293258162
1.73337	4920724.436935001
1.73591	4868847.98349151
1.73844	4779788.698090262
1.74097	4667865.4028208
1.74349	4492489.506875839
1.74602	4303515.806008674
1.74854	4212273.5977273
1.75105	3934723.430949862
1.75357	3271631.6803561994
1.75608	2884829.6430077427
1.75859	2943152.2264056844
1.7611	2965452.8268068284
1.7636	2831855.119717171
1.7661	2404528.785044555
1.7686	2005824.7966564025
1.7711	1898884.7564195923
1.77359	1668935.5126228372
1.77608	1271508.838874749
1.77857	1064082.548711478
1.78105	1099608.0756308262
1.78354	1105766.0989422933
1.78602	886279.0402117915
1.78849	678564.8898304255
1.79097	578738.7689020763
1.79344	519307.3861052711
1.79591	596263.2451222893
1.79837	718895.6814332657
1.80084	467280.89293457044
1.8033	234426.2610765913
1.80576	175773.67487102837
1.80821	160558.65269650737
1.81067	129762.27552007859
1.81312	102359.71389593703
1.81557	95546.27108966175
1.81801	98099.64062287334
1.82046	95117.50241482072
1.8229	99222.19044012442
1.82533	86948.10629476042
1.82777	69226.86619407401
1.8302	70960.03642542282
1.83263	82043.9928027856
1.83506	78971.95564797444
1.83749	78188.5680887954
1.83991	155483.62539320087
1.84233	324507.53791148413
1.84475	493482.82671744836
1.84716	485774.86634321226
1.84957	333172.4324934813
1.85198	228218.25662961946
1.85439	172416.28865008635
1.8568	240663.1592613745
1.8592	312465.8426515074
1.8616	228012.9389239395
1.864	156928.64741874766
1.86639	187221.31367807364
1.86878	192009.93945969126
1.87118	131168.4863495414
1.87356	144807.23415212988
1.87595	305086.6083400614
1.87833	615163.2158371909
1.88071	871523.3589900647
1.88309	728631.8273566836
1.88547	520778.46031472075
1.88784	485840.0249087517
1.89021	455159.10242915375
1.89258	737486.4023642477
1.89494	1099973.445120879
1.89731	847450.436397258
1.89967	378827.1438030759
1.90203	148202.6856213014
1.90439	183839.89297118474
1.90674	338757.1591257649
1.90909	374372.2481834445
1.91144	248359.8760020019
1.91379	128914.62645769006
1.91613	98934.32840914374
1.91848	89382.28507612609
1.92082	65105.335468667334
1.92315	62022.33717954912
1.92549	86613.5562132713
1.92782	100351.651857801
1.93015	107588.26091065684
1.93248	125215.8763280029
1.93481	150762.50876251204
1.93713	180825.03476504268
1.93945	204800.3070860791
1.94177	229922.34943310363
1.94409	238533.02737289845
1.94641	240481.28141262513
1.94872	302368.873314139
1.95103	368531.8115002099
1.95334	281815.61845755146
1.95564	187179.87043929077
1.95795	180195.03353304614
1.96025	253001.16615385312
1.96255	376061.7103005972
1.96484	509241.8621590887
1.96714	633960.4086449689
1.96943	730437.8268798791
1.97172	759170.2651341916
1.97401	706894.6126018526
1.97629	618154.4895568059
1.97858	539880.1420744907
1.98086	633411.9627833435
1.98314	888485.4772607839
1.98541	1094610.350592184
1.98769	1118497.3382512766
1.98996	1011640.834518063
1.99223	867091.9992249702
1.9945	851366.7543489292
1.99677	1044407.5297512234
1.99903	1296440.0333874049
2.00129	1353612.3291101926
2.00355	1160991.326250428
2.00581	972602.9811405123
2.00806	1208484.705023628
2.01031	1647471.0324238231
2.01256	1720523.476604486
2.01481	1581050.7759155624
2.01706	1496018.1789112845
2.0193	1521851.4427166649
2.02154	1550055.9722239608
2.02378	1448917.7654201342
2.02602	1482866.5826016136
2.02825	1659957.1269064853
2.03049	1752545.9612229932
2.03272	1760016.3406324754
2.03494	1761847.0866360932
2.03717	1838195.5052461994
2.03939	1979011.0368132782
2.04162	2056271.4267184965
2.04384	2173605.50438293
2.04605	2321686.0916303983
2.04827	2441441.4234022303
2.05048	2446838.0351283
2.05269	2363885.3584005125
2.0549	2328101.297814447
2.05711	2380860.579075231
2.05931	2474689.3426044257
2.06151	2541948.5982499155
2.06371	2546990.8944941037
2.06591	2546422.296839637
2.06811	2544605.6216681777
2.0703	2537487.793697246
2.07249	2524771.4925432536
2.07468	2512725.0954777366
2.07686	2505935.889834024
2.07905	2497165.109714147
2.08123	2488873.6651273025
2.08341	2485056.241728622
2.08559	2491634.2347452645
2.08776	2496125.2171331346
2.08994	2492256.6569267795
2.09211	2481630.1987813376
2.09428	2467770.0356473657
2.09645	2457537.2350833095
2.09861	2442401.295652599
2.10077	2424499.850192246
2.10293	2405458.7628907054
2.10509	2386320.591574331
2.10725	2365424.9644991327
2.1094	2353994.1981571307
2.11155	2346777.5546306754
2.1137	2339911.1482091793
2.11585	2328454.9943205914
2.11799	2312892.0901454636
2.12013	2298542.1344822464
2.12227	2286923.1639198125
2.12441	2278442.0611599325
2.12655	2266428.433468714
2.12868	2254092.9328173357
2.13081	2243041.6432874934
2.13294	2231336.7791079106
2.13507	2207310.1413177312
2.13719	2183342.2078161
2.13931	2159257.5798074743
2.14143	2131167.752337863
2.14355	2087265.6038386386
2.14567	2076644.192788403
2.14778	2061091.4011819605
2.14989	2030532.537548543
2.152	1974844.7889523613
2.1541	1966317.276793785
2.15621	1968346.940738571
2.15831	1966475.7631524398
2.16041	1933615.0638785542
2.16251	1910416.6184414485
2.1646	1881692.2543338642
2.1667	1848789.3878392433
2.16879	1838660.7749660343
2.17087	1837271.421881302
2.17296	1832664.8113451342
2.17504	1817914.4181209498
2.17713	1761980.5958119708
2.1792	1700712.6325561511
2.18128	1645816.0198848452
2.18336	1612761.0667241113
2.18543	1569168.6374066393
2.1875	1485257.5714135407
2.18957	1356154.6606219274
2.19163	1166273.0190331081
2.1937	1010470.9955738463
2.19576	892228.1938022723
2.19782	818031.6012564563
2.19987	729432.237401228
2.20193	658266.1156774347
2.20398	610592.9337782152
2.20603	609614.0586579993
2.20808	659072.9864608983
2.21012	731048.0112629097
2.21217	816826.147928062
2.21421	866525.1661180434
2.21625	879928.3217040972
2.21828	857934.1410043791
2.22032	806715.7008299968
2.22235	762040.7747843614
2.22438	722497.6670141161
2.22641	689268.4726492193
2.22843	667809.3532006512
2.23046	652779.7720545783
2.23248	644131.3190385564
2.2345	629584.4037585197
2.23651	610115.9175672692
2.23853	585032.1849959522
2.24054	529945.4297693054
2.24255	450258.64425412624
2.24456	352078.5483132554
2.24657	310296.0421481923
2.24857	332946.89799822104
2.25057	394464.93780847976
2.25257	420421.2590669003
2.25457	417919.01389426866
2.25656	404224.002832316
2.25856	412601.840907207
2.26055	415252.60824501375
2.26254	414785.37476859294
2.26453	412330.76049903216
2.26651	428813.17419820954
2.2685	457213.3056321483
2.27048	499891.9610861575
2.27246	532263.9472600342
2.27443	551706.0974859707
2.27641	536987.792597045
2.27838	506727.0429359325
2.28036	470209.9241662959
2.28233	439001.07712086855
2.28429	417343.01075461647
2.28626	400613.740756358
2.28823	384742.060105384
2.29019	376604.840778873
2.29215	374224.2425619838
2.29411	382071.6341029132
2.29607	381337.07031890994
2.29802	373489.1816250755
2.29998	362631.1814530174
2.30193	378555.9522804432
2.30388	425026.2922957651
2.30583	530886.2405888182
2.30778	637669.2777731634
2.30972	736451.2687162033
2.31167	747757.1482325486
2.31361	698969.313138304
2.31555	533183.5044721477
2.31749	397904.87602791144
2.31943	293849.9745263396
2.32137	314205.29114993796
2.32331	332412.1162984198
2.32524	348823.0747697268
2.32718	324959.595024968
2.32911	313152.43205306376
2.33104	319475.5403112902
2.33297	325245.5876094243
2.3349	325740.68365881656
2.33683	310217.136100255
2.33876	293568.2492585465
2.34068	276436.82430783036
2.34261	259412.03882100614
2.34453	249306.45944310472
2.34646	246930.36277333635
2.34838	270434.42325901036
2.3503	303832.894109473
2.35223	354181.86614729906
2.35415	405622.22731891874
2.35607	458086.68958222243
2.35799	516006.5435576484
2.35991	570013.1892497292
2.36183	619296.9973584539
2.36375	594839.6808719306
2.36566	536610.9894516444
2.36758	407793.0157720308
2.3695	300564.83315365034
2.37142	207176.26018992468
2.37334	222961.85065141146
2.37526	255840.75348881987
2.37718	316255.85615498864
2.3791	359139.24548539275
2.38101	392953.4578151911
2.38293	404679.3407115994
2.38485	423316.8641274377
2.38677	449011.5362841628
2.3887	476365.322866164
2.39062	498723.90697487944
2.39254	505412.3893882466
2.39446	507974.2658624855
2.39639	507890.4478290047
2.39831	527259.2190348245
2.40024	541425.6642722611
2.40216	544818.85805383
2.40409	544763.4125220564
2.40602	547472.6044318887
2.40795	599802.5499364488
2.40989	659738.7990657839
2.41182	728341.0049620596
2.41376	746558.4618035859
2.4157	748709.7053648232
2.41764	731088.3248724713
2.41958	730654.1774209504
2.42152	744194.6960867437
2.42347	763914.6672371174
2.42542	794234.9189356416
2.42737	849511.047068922
2.42932	925240.2073835261
