#wavelength	surface flux
0.7	6120452.826072834
0.7001166666666666	6136135.634760854
0.7002333527777778	6137876.107222519
0.700350058336574	6139616.869762926
0.7004667833462966	6141357.922430422
0.7005835278101878	6143099.265273366
0.7007002917314895	6144840.898340115
0.7008170751134447	6146582.821679043
0.7009338779592968	6148325.035338525
0.7010507002722901	6146580.452342862
0.7011675420556689	6140592.025506717
0.701284403312678	6134602.600599442
0.7014012840465635	6128612.177454674
0.7015181842605713	6122620.75590605
0.701635103957948	6116628.3357871715
0.701752043141941	6110634.916931608
0.701869001815798	6104640.499172893
0.7019859799827672	6095059.589834847
0.7021029776460976	6082981.782782776
0.7022199948090387	6070901.9627628485
0.7023370314748403	6058820.1294395905
0.7024540876467528	6046736.282477446
0.702571163328027	6034650.421540828
0.7026882585219152	6022562.546294022
0.7028053732316688	6010472.6564013595
0.7029225074605406	6011858.028841724
0.7030396612117841	6018447.827032419
0.7031568344886527	6025038.723522813
0.7032740272944008	6031630.718495952
0.7033912396322832	6038223.812134923
0.7035084715055552	6044818.004622827
0.7036257229174727	6051413.296142816
0.7037429938712924	6058009.686878064
0.7038602843702709	6077041.891271325
0.7039775944176659	6098186.286232259
0.7040949240167356	6119334.205259028
0.7042122731707383	6140485.648938957
0.7043296418829335	6161640.617859511
0.7044470301565806	6182799.112608216
0.70456443799494	6203961.1337726945
0.7046818654012724	6225126.681940714
0.7047993123788394	6218139.862732534
0.7049167789309024	6211119.568915541
0.7050342650607243	6204098.105049569
0.7051517707715678	6197075.470939621
0.7052692960666963	6190051.666390659
0.705386840949374	6183026.691207608
0.7055044054228656	6176000.545195349
0.7056219894904361	6170231.745930233
0.7057395931553511	6172459.731661041
0.705857216420877	6174688.0887228055
0.7059748592902804	6176916.817177412
0.7060925217668288	6179145.917086764
0.70621020385379	6181375.388512767
0.7063279055544321	6183605.231517338
0.7064456268720246	6185835.446162413
0.7065633678098366	6190425.26226063
0.7066811283711383	6201513.205323971
0.7067989085592001	6212602.996377822
0.7069167083772933	6223694.635730174
0.7070345278286895	6234788.123689094
0.707152366916661	6245883.460562674
0.7072702256444803	6256980.646659055
0.7073881040154211	6268079.6822864665
0.7075060020327569	6270956.126184352
0.7076239196997625	6261855.405684029
0.7077418570197124	6252753.168396966
0.7078598139958823	6243649.414070356
0.7079777906315483	6234544.142451349
0.7080957869299869	6225437.353287078
0.7082138028944751	6216329.046324619
0.7083318385282908	6207219.221310993
0.7084498938347124	6201699.186981009
0.708567968817018	6199223.017786918
0.7086860634784875	6196746.4358979575
0.7088041778224007	6194269.441245347
0.7089223118520377	6191792.033760298
0.7090404655706796	6189314.213374003
0.709158638981608	6186835.98001764
0.709276832088105	6184357.333622384
0.7093950448934531	6188241.488875858
0.7095132774009353	6195160.977252382
0.7096315296138355	6202081.618876972
0.7097498015354378	6209003.413941831
0.7098680931690269	6215926.362639195
0.7099864045178884	6222850.46516135
0.7101047355853081	6229775.721700591
0.7102230863745722	6236702.13244925
0.7103414568889679	6216613.0845322125
0.7104598471317828	6190381.877439896
0.7105782571063047	6164146.29847975
0.7106966868158224	6137906.346923111
0.710815136263625	6111662.022041218
0.7109336054530023	6085413.323105163
0.7110520943872445	6059160.24938596
0.7111706030696424	6032902.800154456
0.7112891315034873	6030674.563319366
0.7114076796920712	6029592.666841251
0.7115262476386865	6028510.590047055
0.7116448353466263	6027428.332906729
0.711763442819184	6026345.895390211
0.711882070059654	6025263.277467439
0.7120007170713306	6024180.4791083485
0.7121193838575091	6023858.181202361
0.7122380704214853	6031469.536856035
0.7123567767665555	6039082.161068975
0.7124755028960166	6046696.054052622
0.7125942488131658	6054311.216018427
0.7127130145213015	6061927.647177914
0.7128318000237216	6069545.347742571
0.7129506053237256	6077164.317923998
0.7130694304246129	6079493.389912862
0.7131882753296837	6063323.062700476
0.7133071400422386	6047150.040433549
0.7134260245655789	6030974.322662923
0.7135449289030065	6014795.908939329
0.7136638530578235	5998614.798813458
0.7137827970333332	5982430.9918358745
0.7139017608328388	5966244.487557133
0.7140207444596443	5952979.317668529
0.7141397479170543	5944928.120052206
0.7142587712083737	5936875.580569626
0.7143778143369084	5928821.698997124
0.7144968773059646	5920766.475111026
0.7146159601188489	5912709.908687616
0.7147350627788687	5904651.999503135
0.7148541852893318	5896592.747333793
0.7149733276535467	5891617.9123844765
0.7150924898748222	5889753.860141602
0.715211671956468	5887889.497223354
0.7153308739017941	5886024.823577951
0.715450095714111	5884159.839153607
0.71556933739673	5882294.5438985275
0.7156885989529628	5880428.937760904
0.7158078803861218	5878563.020688922
0.7159271816995193	5865151.697504727
0.7160465028964692	5844961.888541712
0.7161658439802853	5824768.714610538
0.7162852049542819	5804572.17515038
0.7164045858217744	5784372.269600298
0.716523986586078	5764168.9973993
0.7166434072505089	5743962.357986279
0.716762847818384	5723752.350800014
0.7168823082930204	5712463.425301464
0.7170017886777359	5703798.153533012
0.7171212889758488	5695131.437552604
0.7172408091906781	5686463.27711953
0.7173603493255433	5677793.671993048
0.7174799093837642	5669122.621932383
0.7175994893686615	5660450.126696704
0.7177190892835562	5651776.186045157
0.7178387091317702	5651760.088314921
0.7179583489166254	5652613.232161605
0.7180780086414448	5653466.518198931
0.7181976883095517	5654319.946450596
0.7183173879242699	5655173.516940303
0.718437107488924	5656027.22969176
0.7185568470068389	5656881.084728674
0.7186766064813399	5657220.112603853
0.7187963859157535	5644683.825314033
0.7189161853134061	5632145.448642998
0.719036004677625	5619604.982242516
0.7191558440117378	5607062.425764308
0.7192757033190732	5594517.778860004
0.7193955826029597	5581971.04118123
0.7195154818667269	5569422.212379499
0.7196354011137046	5555063.286661879
0.7197553403472235	5532377.587541407
0.7198752995706147	5509688.107471092
0.7199952787872098	5486994.845820748
0.720115278000341	5464297.801960132
0.7202352972133411	5441596.975258868
0.7203553364295432	5418892.365086522
0.7204753956522815	5396183.970812448
0.7205954748848902	5376490.939302361
0.7207155741307044	5363450.717456758
0.7208356933930594	5350408.3222408695
0.7209558326752915	5337363.753292442
0.7210759919807375	5324317.010249173
0.7211961713127342	5311268.092748747
0.7213163706746197	5298217.000428718
0.7214365900697322	5285163.732926647
0.7215568295014103	5275932.4314257335
0.721677088972994	5271262.436464832
0.7217973684878227	5266591.663171446
0.7219176680492374	5261920.111415839
0.7220379876605789	5257247.781068276
0.722158327325189	5252574.671998985
0.7222786870464099	5247900.784078186
0.7223990668275843	5243226.117176065
0.7225194666720555	5228800.10207309
0.7226398865831676	5207461.210215929
0.7227603265642646	5186118.761876842
0.722880786618692	5164772.756462986
0.7230012667497951	5143423.193381576
0.7231217669609201	5122070.072039649
0.7232422872554135	5100713.391844185
0.7233628276366229	5079353.152201984
0.7234833881078956	5058230.107051553
0.7236039686725803	5037194.946598119
0.7237245693340255	5016156.280284644
0.7238451900955812	4995114.107526744
0.7239658309605971	4974068.427740075
0.7240864919324239	4953019.24034008
0.7242071730144127	4931966.544742185
0.724327874209915	4910910.340361734
0.7244485955222832	4893495.003835348
0.7245693369548704	4876679.331736937
0.7246900985110294	4859860.857026534
0.7248108801941148	4843039.579236968
0.7249316820074803	4826215.49790116
0.7250525039544815	4809388.612551768
0.7251733460384739	4792558.922721483
0.7252942082628137	4775722.625557524
0.7254150906308574	4756680.299824875
0.7255359931459625	4737634.800371269
0.7256569158114868	4718586.126667747
0.7257778586307888	4699534.278185266
0.7258988216072273	4680479.25439471
0.7260198047441617	4661421.054766877
0.7261408080449525	4642359.678772407
0.72626183151296	4622609.407747665
0.7263828751515454	4598298.854574053
0.7265039389640706	4573984.249641581
0.726625022953898	4549665.592274941
0.7267461271243904	4525342.8817987265
0.7268672514789111	4501016.117537449
0.7269883960208241	4476685.298815482
0.7271095607534942	4452350.424957046
0.7272307456802866	4428159.459562026
0.7273519508045666	4404364.149562875
0.7274731761297006	4380564.873678735
0.7275944216590555	4356761.631248617
0.7277156873959987	4332954.421611417
0.7278369733438982	4309143.244105906
0.727958279506122	4285328.098070875
0.7280796058860397	4261508.982844808
0.7282009524870207	4238726.552359925
0.7283223193124353	4217479.568834516
0.7284437063656539	4196229.04414523
0.7285651136500483	4174974.9777017953
0.7286865411689898	4153717.368913997
0.7288079889258514	4132456.217191349
0.7289294569240056	4111191.5219434625
0.7290509451668262	4089923.282579677
0.7291724536576875	4070046.577013197
0.7292939823999636	4051322.5313799977
0.7294155313970303	4032595.365072489
0.7295371006522632	4013865.0775706004
0.7296586901690385	3995131.668354143
0.7297802999507332	3976395.136902824
0.7299019300007252	3957655.482696215
0.7300235803223919	3938912.7052139556
0.7301452509191123	3920804.7073855232
0.7302669417942654	3902988.128301626
0.7303886529512311	3885168.5797878765
0.7305103843933897	3867346.0613493696
0.7306321361241218	3849520.572491137
0.7307539081468093	3831692.1127180625
0.7308757004648336	3813860.6815350642
0.7309975130815778	3796026.2784468476
0.7311193460004248	3778482.767813432
0.7312411992247582	3761002.860513362
0.7313630727579622	3743520.039895413
0.7314849666034219	3726034.30547401
0.7316068807645224	3708545.656763547
0.7317288152446498	3691054.0932782916
0.7318507700471907	3673559.6145324456
0.7319727451755319	3656062.220040149
0.732094740633061	3636001.539197032
0.7322167564231665	3615822.246233482
0.7323387925492371	3595639.590054437
0.7324608490146619	3575453.5700993678
0.732582925822831	3555264.1858076346
0.7327050229771347	3535071.4366185428
0.7328271404809642	3514875.321971232
0.7329492783377112	3494468.8710884284
0.7330714365507675	3472024.282866082
0.7331936151235259	3449575.9538790374
0.7333158140593796	3427123.8835038543
0.7334380333617229	3404668.071116907
0.7335602730339499	3382208.5160945524
0.7336825330794556	3359745.217813022
0.7338048135016354	3337278.1756484886
0.7339271143038857	3314658.2401918005
0.734049435489603	3291534.784043842
0.7341717770621846	3268407.4739865214
0.7342941390250283	3245276.309377536
0.7344165213815324	3222141.2895744583
0.734538924135096	3199002.413934713
0.7346613472891185	3175859.6818157244
0.734783790847	3152713.092574708
0.7349062548121412	3128831.729372812
0.7350287391879431	3103654.4617162086
0.7351512439778078	3078472.9978482774
0.7352737691851374	3053287.337069732
0.735396314813335	3028097.478681035
0.7355188808658037	3002903.421982648
0.7356414673459482	2977705.1662747595
0.7357640742571725	2952502.710857604
0.7358867016028818	2929055.881748555
0.7360093493864824	2907343.13241972
0.7361320176113801	2885626.7642993587
0.736254706280982	2863906.776784311
0.7363774153986956	2842183.1692713154
0.7365001449679286	2820455.941157113
0.7366228949920899	2798725.091838206
0.7367456654745885	2776990.6207110803
0.7368684564188344	2755957.601504018
0.7369912678282374	2735319.5699471305
0.7371140997062088	2714678.098718309
0.7372369520561599	2694033.1872442625
0.7373598248815024	2673384.834951684
0.7374827181856494	2652733.0412670216
0.7376056319720137	2632077.805616744
0.7377285662440091	2611419.1274271877
0.7378515210050496	2589494.2930944143
0.7379744962585505	2567185.892685355
0.738097492007927	2544873.7742095673
0.7382205082565949	2522557.93704738
0.738343545007971	2500238.380579004
0.7384666022654723	2477915.104184527
0.7385896800325165	2455588.1072440185
0.7387127783125219	2433257.3891373244
0.7388358971089073	2413559.73196067
0.7389590364250921	2394123.2676922707
0.7390821962644963	2374683.5640131454
0.7392053766305403	2355240.620383435
0.7393285775266454	2335794.436263106
0.7394517989562333	2316345.011112071
0.7395750409227259	2296892.3443902093
0.7396983034295463	2277424.2834556145
0.739821586480118	2257682.645300579
0.7399448900778645	2237937.7168725566
0.7400682142262109	2218189.4976230697
0.740191558928582	2198437.9870037287
0.7403149241884034	2178683.1844659667
0.7404383100091014	2158925.08946111
0.7405617163941028	2139163.701440432
0.7406851433468352	2119052.8571284637
0.7408085908707264	2097355.0497839004
0.7409320589692048	2075653.6261381235
0.7410555476456997	2053948.585588388
0.7411790569036406	2032239.92753191
0.7413025867464579	2010527.6513657498
0.7414261371775823	1988811.7564868892
0.7415497082004452	1967092.242292232
0.7416732998184786	1945554.2108425943
0.741796912035115	1924409.671379455
0.7419205448537874	1903261.60782641
0.7420441982779297	1882110.019596107
0.742167872310976	1860954.9061010792
0.7422915669563612	1839796.2667538032
0.7424152822175206	1818634.1009666412
0.7425390180978901	1797468.4081518613
0.7426627746009065	1777313.2387066628
0.7427865517300065	1758390.9108317904
0.7429103494886282	1739465.429235586
0.7430341678802096	1720536.7933924631
0.7431580069081896	1701605.0027767012
0.7432818665760077	1682670.0568624763
0.7434057468871037	1663731.9551239484
0.7435296478449182	1644790.6970351415
0.7436535694528923	1625586.8933695536
0.7437775117144678	1606202.329548318
0.7439014746330868	1586814.5349664744
0.7440254582121922	1567423.5090855171
0.7441494624552276	1548029.2513669054
0.7442734873656368	1528631.7612720113
0.7443975329468645	1509231.0382620858
0.7445215992023557	1489827.0817983276
0.7446456861355559	1471292.729125491
0.7447697937499119	1453076.817657769
0.7448939220488703	1434857.870204806
0.7450180710358784	1416635.8862606173
0.7451422407143843	1398410.8653191023
0.7452664310878367	1380182.8068740799
0.7453906421596846	1361951.7104193363
0.7455148739333779	1343717.575448511
0.7456391264123667	1325779.906563943
0.7457633996001021	1307887.137278627
0.7458876935000356	1289991.3858650646
0.7460120081156189	1272092.651826301
0.7461363434503048	1254190.934665189
0.7462606995075466	1236286.233884534
0.7463850762907978	1218378.5489871092
0.7465094738035127	1200472.3115712134
0.7466338920491467	1183722.501353646
0.746758331031155	1166969.8995010254
0.7468827907529935	1150214.5055481163
0.7470072712181189	1133456.3190295477
0.7471317724299886	1116695.3394798895
0.7472562943920602	1099931.5664336516
0.7473808371077922	1083164.9994252243
0.7475054005806435	1066472.4518424752
0.7476299848140736	1050250.2653815872
0.7477545898115426	1034025.3752229521
0.7478792155765113	1017797.7809159532
0.7480038621124406	1001567.4820099161
0.7481285294227926	985334.4780540649
0.7482532175110298	969098.7685975373
0.7483779263806148	952860.3531894564
0.7485026560350116	936937.8833108745
0.7486274064776842	921875.1792078142
0.748752177712097	906809.9646540976
0.7488769697417158	891742.2392312564
0.749001782570006	876672.0025208632
0.7491266162004343	861599.2541043558
0.7492514706364677	846523.9935631057
0.7493763458815739	831446.2204784168
0.7495012419392209	816698.9490648485
0.7496261588128773	802427.9679933165
0.7497510965060128	788154.6084249292
0.7498760550220971	773878.869963286
0.7500010343646007	759600.7522118968
0.7501260345369949	745320.2547742088
0.750251055542751	731037.3772536304
0.7503760973853414	716752.1192534568
0.7505011600682389	703069.2220407604
0.750626243594917	689888.9898063937
0.7507513479688495	676706.5608666748
0.7508764731935109	663521.9348554611
0.7510016192723765	650335.1114065758
0.7511267862089218	637146.0901537945
0.7512519740066232	623954.8707307997
0.7513771826689577	610761.4527712269
0.7515024121994025	598522.0656930987
0.7516276626014359	586726.4867797825
0.751752933878536	574928.941936668
0.7518782260341824	563129.4308360758
0.7520035390718548	551327.9531502948
0.7521288729950334	539524.5085515723
0.7522542278071992	527719.0967120825
0.7523796035118337	515911.71730394696
0.7525050001124189	504768.8882845364
0.7526304176124378	493769.15494769847
0.7527558560153731	482767.5883219851
0.752881315324709	471764.1881018235
0.7530067955439299	460758.95398162125
0.7531322966765205	449751.8856557469
0.7532578187259665	438742.9828184816
0.7533833616957542	427732.2451640772
0.75350892558937	417661.9747395448
0.7536345104103016	407634.33568635315
0.7537601161620366	397605.0253599911
0.7538857428480638	387574.0434818983
0.7540113904718717	377541.38977350545
0.7541370590369503	367507.0639561634
0.7542627485467898	357471.0657511789
0.7543884590048808	347564.1439188476
0.7545141904147151	338959.4151654131
0.7546399427797842	330353.25229053356
0.7547657161035808	321745.65505517356
0.754891510389598	313136.62322027475
0.7550173256413296	304526.15654673334
0.7551431618622698	295914.2547954151
0.7552690190559135	287300.9177271401
0.7553948972257561	278910.89838356443
0.7555207963752938	271273.89285177784
0.755646716508023	263635.6144857403
0.755772657627441	255996.06307330585
0.7558986197370455	248355.2384023015
0.756024602840335	240713.1402605206
0.7561506069408084	233069.76843571616
0.7562766320419653	225425.12271560068
0.7564026781473054	218100.99136408072
0.75652874526033	211341.90119152304
0.7566548333845401	204581.68450393312
0.7567809425234375	197820.34111356433
0.7569070726805247	191057.87083263436
0.7570332238593047	184294.27347332513
0.7571593960632813	177529.5488477829
0.7572855892959586	170763.696768136
0.7574118035608413	164672.98799896298
0.7575380388614347	159242.8820548526
0.7576642952012449	153811.87109308285
0.7577905725837782	148379.95496282732
0.7579168710125422	142947.13351320702
0.7580431904910444	137513.40659334313
0.7581695310227928	132078.77405233277
0.7582958926112967	126643.23573922539
0.7584222752600652	121829.5062604506
0.7585486789726085	117372.70035614874
0.7586751037524372	112915.15165086115
0.7588015496030628	108456.86002078064
0.7589280165279966	103997.82534210393
0.7590545045307512	99538.0474909808
0.7591810136148396	95077.52634354922
0.7593075437837755	90616.26177591985
0.7594340950410726	86864.41852088008
0.7595606673902461	83317.99475555377
0.7596872608348112	79770.97991959634
0.7598138753782836	76223.37391450349
0.75994051102418	72675.17664173982
0.7600671677760173	69126.38800276678
0.7601938456373134	65577.00789901786
0.7603205446115863	62027.03623192033
0.7604472647023548	59205.156044470714
0.7605740059131385	56455.236560884805
0.7607007682474575	53704.85875738229
0.7608275517088319	50954.02255758529
0.7609543563007835	48202.727885082226
0.7610811820268336	45450.97466346873
0.7612080288905045	42698.76281632359
0.7613348968953197	39976.77885273158
0.7614617860448022	37883.96220294747
0.7615886963424764	35790.79675038555
0.7617156277918667	33697.28243691688
0.7618425803964988	31603.41920439425
0.7619695541598982	29509.206994666754
0.7620965490855914	27414.64574957252
0.7622235651771058	25319.735410935013
0.7623506024379685	23360.606913206208
0.7624776608717082	21997.82889465473
0.7626047404818536	20634.82374643343
0.7627318412719337	19271.59143068977
0.762858963245479	17908.131909559295
0.7629861064060198	16544.445145175174
0.7631132707570876	15180.531099662241
0.7632404563022137	13816.389735142946
0.7633676630449308	12612.675881455829
0.7634948909887717	11750.742281642504
0.7636221401372697	10888.66502623033
0.7637494104939593	10026.444091274778
0.7638767020623748	9164.079452831309
0.7640040148460518	8301.571086947117
0.7641313488485262	7438.918969668643
0.7642587040733344	6576.123077036311
0.7643860805240132	5875.257315819787
0.7645134782041005	5367.677528018419
0.7646408971171346	4860.013143585538
0.764768337266654	4352.264148422106
0.7648957986561985	3844.4305284259813
0.7650232812893079	3336.512269493258
0.7651507851695227	2828.5093575173746
0.7652783103003843	2320.421778389558
0.7654058566854343	1973.3013599262524
0.7655334243282153	1735.8841293924643
