#wavelength	surface flux
0.7	65097774.89906724
0.7001166666666666	65358416.32992078
0.7002333527777778	65738747.16146954
0.700350058336574	66119141.38149004
0.7004667833462966	66499599.00054671
0.7005835278101878	66880120.02920761
0.7007002917314895	67260704.47803934
0.7008170751134447	67641352.35761249
0.7009338779592968	68022063.67849872
0.7010507002722901	68246816.44199763
0.7011675420556689	68281738.25179942
0.701284403312678	68316665.88190278
0.7014012840465635	68351599.33327788
0.7015181842605713	68386538.60689487
0.701635103957948	68421483.70372409
0.701752043141941	68456434.62473612
0.701869001815798	68491391.3709017
0.7019859799827672	68355223.50005533
0.7021029776460976	68099935.7821087
0.7022199948090387	67844605.51620874
0.7023370314748403	67589232.69526458
0.7024540876467528	67333817.31218365
0.702571163328027	67078359.35987261
0.7026882585219152	66822858.83123551
0.7028053732316688	66567315.71917734
0.7029225074605406	66487002.51944013
0.7030396612117841	66474356.6857182
0.7031568344886527	66461708.744357325
0.7032740272944008	66449058.69500623
0.7033912396322832	66436406.537313566
0.7035084715055552	66423752.270927966
0.7036257229174727	66411095.89549796
0.7037429938712924	66398437.410672046
0.7038602843702709	66861372.201844595
0.7039775944176659	67405048.6065668
0.7040949240167356	67948815.62402335
0.7042122731707383	68492673.26931585
0.7043296418829335	69036621.55754955
0.7044470301565806	69580660.5038312
0.70456443799494	70124790.12327012
0.7046818654012724	70669010.4309793
0.7047993123788394	68646831.56146818
0.7049167789309024	66621370.501117595
0.7050342650607243	64595571.86392049
0.7051517707715678	62569435.593618125
0.7052692960666963	60542961.63393839
0.705386840949374	58516149.92859956
0.7055044054228656	56489000.421306536
0.7056219894904361	54776218.57909983
0.7057395931553511	55063071.3721416
0.705857216420877	55349971.973982446
0.7059748592902804	55636920.3925901
0.7060925217668288	55923916.63593447
0.70621020385379	56210960.71198603
0.7063279055544321	56498052.62871656
0.7064456268720246	56785192.39410032
0.7065633678098366	57056875.48539763
0.7066811283711383	57285904.09530983
0.7067989085592001	57514970.87665702
0.7069167083772933	57744075.835800946
0.7070345278286895	57973218.97910489
0.707152366916661	58202400.31293276
0.7072702256444803	58431619.843649335
0.7073881040154211	58660877.57762133
0.7075060020327569	58792644.26456943
0.7076239196997625	58782396.4367263
0.7077418570197124	58772146.90091188
0.7078598139958823	58761895.65684149
0.7079777906315483	58751642.704230405
0.7080957869299869	58741388.0427939
0.7082138028944751	58731131.67224716
0.7083318385282908	58720873.59230532
0.7084498938347124	58620492.30809511
0.708567968817018	58443687.449093804
0.7086860634784875	58266853.1226158
0.7088041778224007	58089989.32374989
0.7089223118520377	57913096.047584414
0.7090404655706796	57736173.28920635
0.709158638981608	57559221.04370167
0.709276832088105	57382239.306156054
0.7093950448934531	57399162.39095476
0.7095132774009353	57508577.66530938
0.7096315296138355	57618011.17554309
0.7097498015354378	57727462.92469516
0.7098680931690269	57836932.9158053
0.7099864045178884	57946421.151914105
0.7101047355853081	58055927.636062235
0.7102230863745722	58165452.37129098
0.7103414568889679	58089425.32163425
0.7104598471317828	57971219.71590793
0.7105782571063047	57852994.409247406
0.7106966868158224	57734749.39836912
0.710815136263625	57616484.67998903
0.7109336054530023	57498200.250822484
0.7110520943872445	57379896.10758445
0.7111706030696424	57261572.24698913
0.7112891315034873	57443040.075759545
0.7114076796920712	57638843.01498576
0.7115262476386865	57834678.588035196
0.7116448353466263	58030546.80034667
0.711763442819184	58226447.6573603
0.711882070059654	58422381.16451693
0.7120007170713306	58618347.327257976
0.7121193838575091	58809156.152638815
0.7122380704214853	58945866.42481674
0.7123567767665555	59082599.4820399
0.7124755028960166	59219355.328105986
0.7125942488131658	59356133.96681299
0.7127130145213015	59492935.40196015
0.7128318000237216	59629759.637346074
0.7129506053237256	59766606.676771425
0.7130694304246129	59838984.54259916
0.7131882753296837	59685887.784989536
0.7133071400422386	59532765.5112536
0.7134260245655789	59379617.71713881
0.7135449289030065	59226444.39839163
0.7136638530578235	59073245.55075807
0.7137827970333332	58920021.169983014
0.7139017608328388	58766771.2518112
0.7140207444596443	58715164.88309469
0.7141397479170543	58844917.48136615
0.7142587712083737	58974691.70507048
0.7143778143369084	59104487.55781219
0.7144968773059646	59234305.04319605
0.7146159601188489	59364144.16482744
0.7147350627788687	59494004.92631245
0.7148541852893318	59623887.33125764
0.7149733276535467	59829879.29187493
0.7150924898748222	60112630.93085897
0.715211671956468	60395429.69511623
0.7153308739017941	60678275.59250109
0.715450095714111	60961168.6308687
0.71556933739673	61244108.8180761
0.7156885989529628	61527096.161981314
0.7158078803861218	61810130.67044427
0.7159271816995193	61919820.739879616
0.7160465028964692	61927759.03271079
0.7161658439802853	61935698.64859077
0.7162852049542819	61943639.58774006
0.7164045858217744	61951581.85037922
0.716523986586078	61959525.43672881
0.7166434072505089	61967470.34700946
0.716762847818384	61975416.58144182
0.7168823082930204	62149363.908139765
0.7170017886777359	62372176.651344955
0.7171212889758488	62595026.5300072
0.7172408091906781	62817913.550315954
0.7173603493255433	63040837.718461506
0.7174799093837642	63263799.040634945
0.7175994893686615	63486797.52302884
0.7177190892835562	63709833.171836376
0.7178387091317702	64013529.70631244
0.7179583489166254	64325370.09677279
0.7180780086414448	64637262.46063179
0.7181976883095517	64949206.80655142
0.7183173879242699	65261203.143195406
0.718437107488924	65573251.47922891
0.7185568470068389	65885351.823318526
0.7186766064813399	66193275.367162466
0.7187963859157535	66395520.48783879
0.7189161853134061	66597799.31603522
0.719036004677625	66800111.8573697
0.7191558440117378	67002458.11746094
0.7192757033190732	67204838.10192914
0.7193955826029597	67407251.81639452
0.7195154818667269	67609699.26647915
0.7196354011137046	67764590.31205681
0.7197553403472235	67700393.63500682
0.7198752995706147	67636186.25851066
0.7199952787872098	67571968.18078506
0.720115278000341	67507739.4000465
0.7202352972133411	67443499.91451114
0.7203553364295432	67379249.72239496
0.7204753956522815	67314988.82191333
0.7205954748848902	67253934.19142471
0.7207155741307044	67199961.62404762
0.7208356933930594	67145980.06124273
0.7209558326752915	67091989.501510695
0.7210759919807375	67037989.94335197
0.7211961713127342	66983981.385266945
0.7213163706746197	66929963.82575549
0.7214365900697322	66875937.26331751
0.7215568295014103	67058205.58599418
0.721677088972994	67522454.63540244
0.7217973684878227	67986781.0596515
0.7219176680492374	68451184.87163846
0.7220379876605789	68915666.0842605
0.722158327325189	69380224.71041813
0.7222786870464099	69844860.76301321
0.7223990668275843	70309574.2549506
0.7225194666720555	70553485.72497189
0.7226398865831676	70640895.03387104
0.7227603265642646	70728318.91098812
0.722880786618692	70815757.3587516
0.7230012667497951	70903210.37958962
0.7231217669609201	70990677.97593114
0.7232422872554135	71078160.1502053
0.7233628276366229	71165656.90484199
0.7234833881078956	71149651.46113051
0.7236039686725803	71094342.0229439
0.7237245693340255	71039023.36651768
0.7238451900955812	70983695.49031529
0.7239658309605971	70928358.39280026
0.7240864919324239	70873012.07243557
0.7242071730144127	70817656.52768415
0.724327874209915	70762291.75700873
0.7244485955222832	71157058.03058892
0.7245693369548704	71626316.98946962
0.7246900985110294	72095654.15817611
0.7248108801941148	72565069.54974529
0.7249316820074803	73034563.17721151
0.7250525039544815	73504135.05361639
0.7251733460384739	73973785.19200076
0.7252942082628137	74442884.31317349
0.7254150906308574	74547429.76536793
0.7255359931459625	74651992.6418044
0.7256569158114868	74756572.94538698
0.7257778586307888	74861170.6790202
0.7258988216072273	74965785.845609
0.7260198047441617	75070418.44805878
0.7261408080449525	75175068.48927581
0.72626183151296	75257846.8537116
0.7263828751515454	75195173.26340398
0.7265039389640706	75132489.227498
0.726625022953898	75069794.74425264
0.7267461271243904	75007089.81192672
0.7268672514789111	74944374.42877878
0.7269883960208241	74881648.59306705
0.7271095607534942	74818912.30304931
0.7272307456802866	74737692.35910943
0.7273519508045666	74606558.31212239
0.7274731761297006	74475402.4094609
0.7275944216590555	74344224.64748232
0.7277156873959987	74213025.02254336
0.7278369733438982	74081803.53100002
0.727958279506122	73950560.16920845
0.7280796058860397	73819294.93352309
0.7282009524870207	73756496.74051414
0.7283223193124353	73794990.82105577
0.7284437063656539	73833491.3172774
0.7285651136500483	73871998.23024848
0.7286865411689898	73910511.5610383
0.7288079889258514	73949031.31071667
0.7289294569240056	73987557.48035324
0.7290509451668262	74026090.07101813
0.7291724536576875	74354069.80378608
0.7292939823999636	74921936.99400146
0.7294155313970303	75489898.82874967
0.7295371006522632	76057955.32380353
0.7296586901690385	76626106.49493943
0.7297802999507332	77194352.35793696
0.7299019300007252	77762692.92857978
0.7300235803223919	78331128.22264951
0.7301452509191123	78725315.22728534
0.7302669417942654	79039096.51403315
0.7303886529512311	79352930.0976622
0.7305103843933897	79666815.98688859
0.7306321361241218	79980754.19042961
0.7307539081468093	80294744.7170051
0.7308757004648336	80608787.57533437
0.7309975130815778	80922882.7741404
0.7311193460004248	81301375.18218213
0.7312411992247582	81694497.5271748
0.7313630727579622	82087685.39255822
0.7314849666034219	82480938.78925292
0.7316068807645224	82874257.72818017
0.7317288152446498	83267642.22026409
0.7318507700471907	83661092.27643023
0.7319727451755319	84054607.90760559
0.732094740633061	84585375.36046125
0.7322167564231665	85122407.44233972
0.7323387925492371	85659529.0295652
0.7324608490146619	86196740.13705508
0.732582925822831	86734040.77972966
0.7327050229771347	87271430.97251076
0.7328271404809642	87808910.7303245
0.7329492783377112	88309040.84396075
0.7330714365507675	88441187.11722234
0.7331936151235259	88573355.4148628
0.7333158140593796	88705545.7405527
0.7334380333617229	88837758.09796375
0.7335602730339499	88969992.49076776
0.7336825330794556	89102248.92263727
0.7338048135016354	89234527.39724517
0.7339271143038857	89173936.49259819
0.734049435489603	88467016.94701433
0.7341717770621846	87759979.58150609
0.7342941390250283	87052824.37643729
0.7344165213815324	86345551.31216791
0.734538924135096	85638160.36905345
0.7346613472891185	84930651.5274494
0.734783790847	84223024.76770484
0.7349062548121412	83315590.85557109
0.7350287391879431	82055046.8622022
0.7351512439778078	80794292.77816515
0.7352737691851374	79533328.56844895
0.735396314813335	78272154.19803002
0.7355188808658037	77010769.63188477
0.7356414673459482	75749174.83497593
0.7357640742571725	74487369.77226846
0.7358867016028818	73965191.26229922
0.7360093493864824	74173581.33423445
0.7361320176113801	74382006.13784805
0.736254706280982	74590465.67892893
0.7363774153986956	74798959.96326691
0.7365001449679286	75007488.99665187
0.7366228949920899	75216052.78487588
0.7367456654745885	75424651.33373128
0.7368684564188344	75175093.10425289
0.7369912678282374	74666533.07677604
0.7371140997062088	74157888.28929439
0.7372369520561599	73649158.72768103
0.7373598248815024	73140344.37780854
0.7374827181856494	72631445.22554354
0.7376056319720137	72122461.25675313
0.7377285662440091	71613392.45730117
0.7378515210050496	71686577.12608223
0.7379744962585505	71934981.87510471
0.738097492007927	72183428.02491863
0.7382205082565949	72431915.58242404
0.738343545007971	72680444.55452232
0.7384666022654723	72929014.9481162
0.7385896800325165	73177626.77010863
0.7387127783125219	73426280.02740504
0.7388358971089073	73283721.2037662
0.7389590364250921	73101894.92083499
0.7390821962644963	72920038.33352317
0.7392053766305403	72738151.43678038
0.7393285775266454	72556234.22555467
0.7394517989562333	72374286.6947936
0.7395750409227259	72192308.83944434
0.7396983034295463	72070340.73696323
0.739821586480118	73283988.62432338
0.7399448900778645	74497838.78632902
0.7400682142262109	75711891.25669868
0.740191558928582	76926146.06914544
0.7403149241884034	78140603.25739333
0.7404383100091014	79355262.85517289
0.7405617163941028	80570124.89621797
0.7406851433468352	81383839.52862656
0.7408085908707264	80361610.57430807
0.7409320589692048	79339211.24849768
0.7410555476456997	78316641.52279882
0.7411790569036406	77293901.3688131
0.7413025867464579	76270990.75813474
0.7414261371775823	75247909.66235434
0.7415497082004452	74224658.05305874
0.7416732998184786	73527890.68676692
0.741796912035115	73531746.01975882
0.7419205448537874	73535601.99530622
0.7420441982779297	73539458.61351621
0.742167872310976	73543315.8744959
0.7422915669563612	73547173.77835242
0.7424152822175206	73551032.32519291
0.7425390180978901	73554891.51512456
0.7426627746009065	73306147.30528446
0.7427865517300065	72749419.22116086
0.7429103494886282	72192598.34902266
0.7430341678802096	71635684.6734062
0.7431580069081896	71078678.17884383
0.7432818665760077	70521578.84986492
0.7434057468871037	69964386.6709983
0.7435296478449182	69407101.62676887
0.7436535694528923	69030618.61127555
0.7437775117144678	68777900.96282545
0.7439014746330868	68525141.19476765
0.7440254582121922	68272339.30008163
0.7441494624552276	68019495.27174638
0.7442734873656368	67766609.10273981
0.7443975329468645	67513680.78603819
0.7445215992023557	67260710.31461716
0.7446456861355559	66976501.458128795
0.7447697937499119	66680753.37314601
0.7448939220488703	66384955.9968158
0.7450180710358784	66089109.32092313
0.7451422407143843	65793213.337251104
0.7452664310878367	65497268.037581526
0.7453906421596846	65201273.413695656
0.7455148739333779	64905229.45737237
0.7456391264123667	65000331.53504358
0.7457633996001021	65157999.44029703
0.7458876935000356	65315693.62353497
0.7460120081156189	65473414.08913648
0.7461363434503048	65631160.841482334
0.7462606995075466	65788933.884953715
0.7463850762907978	65946733.22393211
0.7465094738035127	66103074.36284202
0.7466338920491467	65871104.627854034
0.746758331031155	65639096.23124332
0.7468827907529935	65407049.16656678
0.7470072712181189	65174963.42737945
0.7471317724299886	64942839.00723555
0.7472562943920602	64710675.89968845
0.7473808371077922	64478474.09828989
0.7475054005806435	64255354.42339624
0.7476299848140736	64088378.278048374
0.7477545898115426	63921374.303342916
0.7478792155765113	63754342.49464164
0.7480038621124406	63587282.8473057
0.7481285294227926	63420195.35669525
0.7482532175110298	63253080.01816952
0.7483779263806148	63085936.8270876
0.7485026560350116	62931497.84203669
0.7486274064776842	62811491.969463356
0.748752177712097	62691466.09591147
0.7488769697417158	62571420.21804708
0.749001782570006	62451354.332536526
0.7491266162004343	62331268.43604509
0.7492514706364677	62211162.52523751
0.7493763458815739	62091036.596778005
0.7495012419392209	61915844.304584056
0.7496261588128773	61661487.13612526
0.7497510965060128	61407087.57480488
0.7498760550220971	61152645.613557704
0.7500010343646007	60898161.24531695
0.7501260345369949	60643634.4630147
0.750251055542751	60389065.25958235
0.7503760973853414	60134453.62794927
0.7505011600682389	59832716.92176881
0.750626243594917	59491616.998935714
0.7507513479688495	59150460.226116
0.7508764731935109	58809246.593834035
0.7510016192723765	58467976.09261327
0.7511267862089218	58126648.71297595
0.7512519740066232	57785264.4454419
0.7513771826689577	57443823.28052974
0.7515024121994025	57163876.77009373
0.7516276626014359	56912582.398809195
0.751752933878536	56661246.14512988
0.7518782260341824	56409868.002074875
0.7520035390718548	56158447.96266258
0.7521288729950334	55906986.01991051
0.7522542278071992	55655482.16683462
0.7523796035118337	55403936.396449775
0.7525050001124189	55158921.29056841
0.7526304176124378	54915294.73990723
0.7527558560153731	54671627.58482125
0.752881315324709	54427919.81854252
0.7530067955439299	54184171.43430265
0.7531322966765205	53940382.425332405
0.7532578187259665	53696552.78486059
0.7533833616957542	53452682.50611537
0.75350892558937	53007231.549513355
0.7536345104103016	52552229.36273429
0.7537601161620366	52097151.34225765
0.7538857428480638	51641997.47544383
0.7540113904718717	51186767.749652795
0.7541370590369503	50731462.152240895
0.7542627485467898	50276080.670562476
0.7543884590048808	49816127.168672256
0.7545141904147151	49311261.15686603
0.7546399427797842	48806311.000725314
0.7547657161035808	48301276.68622516
0.754891510389598	47796158.19933929
0.7550173256413296	47290955.526038736
0.7551431618622698	46785668.65229274
0.7552690190559135	46280297.564067915
0.7553948972257561	45750087.0375786
0.7555207963752938	45136694.223430626
0.755646716508023	44523199.17714731
0.755772657627441	43909601.88168941
0.7558986197370455	43295902.3200155
0.756024602840335	42682100.47508147
0.7561506069408084	42068196.32983996
0.7562766320419653	41454189.867240354
0.7564026781473054	40823239.10815592
0.75652874526033	40162545.83065822
0.7566548333845401	39501742.43761393
0.7567809425234375	38840828.91067103
0.7569070726805247	38179805.23147402
0.7570332238593047	37518671.3816639
0.7571593960632813	36857427.342878185
0.7572855892959586	36196073.09675263
0.7574118035608413	35530867.321590334
0.7575380388614347	34861890.439653434
0.7576642952012449	34192802.061569296
0.7577905725837782	33523602.168756444
0.7579168710125422	32854290.74262693
0.7580431904910444	32184867.76459281
0.7581695310227928	31515333.216063194
0.7582958926112967	30845687.078441318
0.7584222752600652	30112707.40304641
0.7585486789726085	29343286.978352547
0.7586751037524372	28573738.316920944
0.7588015496030628	27804061.3973776
0.7589280165279966	27034256.19834919
0.7590545045307512	26264322.698454272
0.7591810136148396	25494260.87630939
0.7593075437837755	24724070.71052635
0.7594340950410726	24015048.259905197
0.7595606673902461	23323691.873445116
0.7596872608348112	22632220.260919932
0.7598138753782836	21940633.403126758
0.75994051102418	21248931.28085664
0.7600671677760173	20557113.874900013
0.7601938456373134	19865181.166041866
0.7603205446115863	19173133.135065965
0.7604472647023548	18471142.866753113
0.7605740059131385	17768058.807773508
0.7607007682474575	17064857.56811672
0.7608275517088319	16361539.128254885
0.7609543563007835	15658103.468651513
0.7610811820268336	14954550.569771962
0.7612080288905045	14250880.412077285
0.7613348968953197	13549827.818221828
0.7614617860448022	12904771.305570679
0.7615886963424764	12259607.283499874
0.7617156277918667	11614335.734092683
0.7618425803964988	10968956.639426725
0.7619695541598982	10323469.981578493
0.7620965490855914	9677875.742621098
0.7622235651771058	9032173.90462313
0.7623506024379685	8416429.629780315
0.7624776608717082	7932361.697269181
0.7626047404818536	7448213.0867692735
0.7627318412719337	6963983.784835115
0.762858963245479	6479673.778016996
0.7629861064060198	5995283.052864363
0.7631132707570876	5510811.595923703
0.7632404563022137	5026259.393740654
0.7633676630449308	4593604.995875539
0.7634948909887717	4271523.591716504
0.7636221401372697	3949388.507323861
0.7637494104939593	3627199.733750182
0.7638767020623748	3304957.26204804
0.7640040148460518	2982661.083266914
0.7641313488485262	2660311.188456002
0.7642587040733344	2337907.5686622565
0.7643860805240132	2075692.1342518686
0.7645134782041005	1885319.6657791478
0.7646408971171346	1694915.4685616025
0.764768337266654	1504479.5373112573
0.7648957986561985	1314011.8667389755
0.7650232812893079	1123512.4515549568
0.7651507851695227	932981.2864684057
0.7652783103003843	742418.366187697
0.7654058566854343	617905.1519873568
0.7655334243282153	538407.4328971714
0.7656610132322699	458896.4641872413
0.765788623401142	379372.243649118
0.7659162548383754	299834.76907428406
