#wavelength	surface flux
0.7	36484518.55451554
0.7001166666666666	36686467.765275985
0.7002333527777778	36876276.027653724
0.700350058336574	37066115.92474177
0.7004667833462966	37255987.46181241
0.7005835278101878	37445890.64413975
0.7007002917314895	37635825.47699718
0.7008170751134447	37825791.965660065
0.7009338779592968	38015790.11540429
0.7010507002722901	38061384.37352491
0.7011675420556689	37931217.759119466
0.701284403312678	37801029.45027849
0.7014012840465635	37670819.44338586
0.7015181842605713	37540587.73482544
0.701635103957948	37410334.32098035
0.701752043141941	37280059.19823297
0.701869001815798	37149762.36296495
0.7019859799827672	36997864.15317862
0.7021029776460976	36830922.39989364
0.7022199948090387	36663952.822982915
0.7023370314748403	36496955.417809434
0.7024540876467528	36329930.179735124
0.702571163328027	36162877.10412141
0.7026882585219152	35995796.18632798
0.7028053732316688	35828687.421715155
0.7029225074605406	35741902.959669925
0.7030396612117841	35686131.68526182
0.7031568344886527	35630351.11564132
0.7032740272944008	35574561.24925924
0.7033912396322832	35518762.084566064
0.7035084715055552	35462953.62001217
0.7036257229174727	35407135.85404749
0.7037429938712924	35351308.78512177
0.7038602843702709	35550904.06709222
0.7039775944176659	35793855.692906894
0.7040949240167356	36036847.810659304
0.7042122731707383	36279880.42709788
0.7043296418829335	36522953.54897266
0.7044470301565806	36766067.18303438
0.70456443799494	37009221.33603493
0.7046818654012724	37252416.014727786
0.7047993123788394	37155410.93596463
0.7049167789309024	37057999.24885692
0.7050342650607243	36960571.326467864
0.7051517707715678	36863127.1660918
0.7052692960666963	36765666.76502239
0.705386840949374	36668190.12055284
0.7055044054228656	36570697.229975715
0.7056219894904361	36528422.59062453
0.7057395931553511	36837150.273283325
0.705857216420877	37145929.410556145
0.7059748592902804	37454760.011018336
0.7060925217668288	37763642.08324757
0.70621020385379	38072575.63582214
0.7063279055544321	38381560.67732174
0.7064456268720246	38690597.21632873
0.7065633678098366	38954518.94499491
0.7066811283711383	39094095.796929404
0.7067989085592001	39233695.911672555
0.7069167083772933	39373319.2931014
0.7070345278286895	39512965.945093915
0.707152366916661	39652635.871528454
0.7072702256444803	39792329.0762839
0.7073881040154211	39932045.563240334
0.7075060020327569	39972854.4173175
0.7076239196997625	39869592.28974688
0.7077418570197124	39766312.95182177
0.7078598139958823	39663016.40067367
0.7079777906315483	39559702.63343362
0.7080957869299869	39456371.647232436
0.7082138028944751	39353023.439200275
0.7083318385282908	39249658.0064667
0.7084498938347124	39202956.58505188
0.708567968817018	39204302.89257449
0.7086860634784875	39205649.42448169
0.7088041778224007	39206996.18081087
0.7089223118520377	39208343.16159944
0.7090404655706796	39209690.366884805
0.709158638981608	39211037.79670439
0.709276832088105	39212385.45109561
0.7093950448934531	39331060.488428995
0.7095132774009353	39505709.89247198
0.7096315296138355	39680388.404749036
0.7097498015354378	39855096.03011142
0.7098680931690269	40029832.7734112
0.7099864045178884	40204598.63950175
0.7101047355853081	40379393.63323661
0.7102230863745722	40554217.759470314
0.7103414568889679	40327816.54653966
0.7104598471317828	40010203.12944878
0.7105782571063047	39692536.77678862
0.7106966868158224	39374817.47973637
0.710815136263625	39057045.22946802
0.7109336054530023	38739220.01715774
0.7110520943872445	38421341.83397887
0.7111706030696424	38103410.671102606
0.7112891315034873	38211879.02566404
0.7114076796920712	38340712.735511996
0.7115262476386865	38469567.91764493
0.7116448353466263	38598444.57564147
0.711763442819184	38727342.71308108
0.711882070059654	38856262.3335437
0.7120007170713306	38985203.440609656
0.7121193838575091	39135122.187542215
0.7122380704214853	39503633.19789361
0.7123567767665555	39872205.62674636
0.7124755028960166	40240839.48433742
0.7125942488131658	40609534.78090448
0.7127130145213015	40978291.52668864
0.7128318000237216	41347109.731929295
0.7129506053237256	41715989.40687134
0.7130694304246129	41972200.290500484
0.7131882753296837	41834309.13487314
0.7133071400422386	41696394.997386485
0.7134260245655789	41558457.87421034
0.7135449289030065	41420497.76151363
0.7136638530578235	41282514.65546487
0.7137827970333332	41144508.55223158
0.7139017608328388	41006479.44798111
0.7140207444596443	40925749.422298245
0.7141397479170543	40947262.84930796
0.7142587712083737	40968779.86188882
0.7143778143369084	40990300.460638456
0.7144968773059646	41011824.64615456
0.7146159601188489	41033352.419034906
0.7147350627788687	41054883.7798774
0.7148541852893318	41076418.72928003
0.7149733276535467	41212731.61436896
0.7150924898748222	41464803.10395569
0.715211671956468	41716916.60545741
0.7153308739017941	41969072.12587623
0.715450095714111	42221269.67221501
0.71556933739673	42473509.25147821
0.7156885989529628	42725790.870671265
0.7158078803861218	42978114.53680122
0.7159271816995193	42994457.563524485
0.7160465028964692	42872272.71818133
0.7161658439802853	42750067.508697286
0.7162852049542819	42627841.931678355
0.7164045858217744	42505595.98372984
0.716523986586078	42383329.66145672
0.7166434072505089	42261042.96146329
0.716762847818384	42138735.88035314
0.7168823082930204	42284918.29088145
0.7170017886777359	42510119.528039016
0.7171212889758488	42735358.29873597
0.7172408091906781	42960634.60922811
0.7173603493255433	43185948.46577207
0.7174799093837642	43411299.87462532
0.7175994893686615	43636688.84204681
0.7177190892835562	43862115.37429611
0.7178387091317702	44177141.18099905
0.7179583489166254	44501209.953038
0.7180780086414448	44825332.73653921
0.7181976883095517	45149509.54050433
0.7183173879242699	45473740.3739368
0.718437107488924	45798025.24584159
0.7185568470068389	46122364.16522516
0.7186766064813399	46437017.30875362
0.7187963859157535	46508205.62116209
0.7189161853134061	46579405.798289284
0.719036004677625	46650617.842112675
0.7191558440117378	46721841.754609995
0.7192757033190732	46793077.5377595
0.7193955826029597	46864325.19353944
0.7195154818667269	46935584.72392874
0.7196354011137046	46954980.471982345
0.7197553403472235	46735534.646159574
0.7198752995706147	46516052.246032596
0.7199952787872098	46296533.26550545
0.720115278000341	46076977.69848155
0.7202352972133411	45857385.53886312
0.7203553364295432	45637756.780551754
0.7204753956522815	45418091.41744702
0.7205954748848902	45194217.09502897
0.7207155741307044	44961106.9913554
0.7208356933930594	44727958.035998285
0.7209558326752915	44494770.22248189
0.7210759919807375	44261543.544329606
0.7211961713127342	44028277.995064594
0.7213163706746197	43794973.56820767
0.7214365900697322	43561630.257279836
0.7215568295014103	43663929.95615822
0.721677088972994	44166771.762082264
0.7217973684878227	44669697.37497312
0.7219176680492374	45172706.80880005
0.7220379876605789	45675800.07753232
0.722158327325189	46178977.19514289
0.7222786870464099	46682238.17560614
0.7223990668275843	47185583.03289967
0.7225194666720555	47364474.48870214
0.7226398865831676	47313388.05593819
0.7227603265642646	47262293.10876891
0.722880786618692	47211189.64577499
0.7230012667497951	47160077.66553727
0.7231217669609201	47108957.16663617
0.7232422872554135	47057828.14765197
0.7233628276366229	47006690.60716451
0.7234833881078956	46646647.06950426
0.7236039686725803	46169267.07452152
0.7237245693340255	45691807.51620703
0.7238451900955812	45214268.38129861
0.7239658309605971	44736649.656534925
0.7240864919324239	44258951.32864982
0.7242071730144127	43781173.3843767
0.724327874209915	43303315.8104472
0.7244485955222832	43572622.01461239
0.7245693369548704	43965523.489730224
0.7246900985110294	44358490.44842667
0.7248108801941148	44751522.90161727
0.7249316820074803	45144620.860215425
0.7250525039544815	45537784.33514065
0.7251733460384739	45931013.33731176
0.7252942082628137	46323256.76737398
0.7254150906308574	46106518.98587673
0.7255359931459625	45889745.08141588
0.7256569158114868	45672935.04797088
0.7257778586307888	45456088.87952021
0.7258988216072273	45239206.570041515
0.7260198047441617	45022288.11351149
0.7261408080449525	44805333.503905
0.72626183151296	44572869.28096833
0.7263828751515454	44237536.332661845
0.7265039389640706	43902147.49553071
0.726625022953898	43566702.760259844
0.7267461271243904	43231202.117532946
0.7268672514789111	42895645.558032475
0.7269883960208241	42560033.072439045
0.7271095607534942	42224364.65143113
0.7272307456802866	41866934.38213907
0.7273519508045666	41450811.65643455
0.7274731761297006	41034619.576942615
0.7275944216590555	40618358.132104106
0.7277156873959987	40202027.31035798
0.7278369733438982	39785627.100140885
0.727958279506122	39369157.489889875
0.7280796058860397	38952618.46803664
0.7282009524870207	38618850.733153805
0.7283223193124353	38407558.00574315
0.7284437063656539	38196230.06287837
0.7285651136500483	37984866.89868943
0.7286865411689898	37773468.50730689
0.7288079889258514	37562034.88285861
0.7289294569240056	37350566.0194734
0.7290509451668262	37139061.9112774
0.7291724536576875	37141539.42072223
0.7292939823999636	37321353.35692252
0.7294155313970303	37501197.26211254
0.7295371006522632	37681071.141286716
0.7296586901690385	37860974.9994406
0.7297802999507332	38040908.84157077
0.7299019300007252	38220872.672675095
0.7300235803223919	38400866.49775079
0.7301452509191123	38457596.10164958
0.7302669417942654	38457426.315187834
0.7303886529512311	38457256.50042834
0.7305103843933897	38457086.65736639
0.7306321361241218	38456916.785997264
0.7307539081468093	38456746.88631624
0.7308757004648336	38456576.958318606
0.7309975130815778	38456407.00199963
0.7311193460004248	38508950.55130955
0.7312411992247582	38573436.52902231
0.7313630727579622	38637933.254398026
0.7314849666034219	38702440.72922802
0.7316068807645224	38766958.95530379
0.7317288152446498	38831487.93441726
0.7318507700471907	38896027.66836062
0.7319727451755319	38960578.158926286
0.732094740633061	39075024.84761802
0.7322167564231665	39191736.46905254
0.7323387925492371	39308467.54242397
0.7324608490146619	39425218.07097426
0.732582925822831	39541988.057946004
0.7327050229771347	39658777.50658211
0.7328271404809642	39775586.42012644
0.7329492783377112	39853359.91167523
0.7330714365507675	39547195.46333298
0.7331936151235259	39240979.98758276
0.7333158140593796	38934713.47592025
0.7334380333617229	38628395.91983867
0.7335602730339499	38322027.310830936
0.7336825330794556	38015607.6403883
0.7338048135016354	37709136.90000118
0.7339271143038857	37318175.91549538
0.734049435489603	36644220.66556616
0.7341717770621846	35970153.08976184
0.7342941390250283	35295973.16936189
0.7344165213815324	34621680.88564213
0.734538924135096	33947276.2198741
0.7346613472891185	33272759.153329328
0.734783790847	32598129.667273223
0.7349062548121412	31962133.02158566
0.7350287391879431	31394514.238799542
0.7351512439778078	30826800.8528818
0.7352737691851374	30258992.84806709
0.735396314813335	29691090.20858441
0.7355188808658037	29123092.918662753
0.7356414673459482	28555000.96252495
0.7357640742571725	27986814.324394852
0.7358867016028818	27653719.686388344
0.7360093493864824	27552837.605998963
0.7361320176113801	27451938.711929657
0.736254706280982	27351023.001378004
0.7363774153986956	27250090.471541125
0.7365001449679286	27149141.119616147
0.7366228949920899	27048174.942799103
0.7367456654745885	26947191.93828592
0.7368684564188344	26774799.867888097
0.7369912678282374	26562029.67859227
0.7371140997062088	26349224.027598135
0.7372369520561599	26136382.9089953
0.7373598248815024	25923506.316873178
0.7374827181856494	25710594.245318677
0.7376056319720137	25497646.688418902
0.7377285662440091	25284663.64025961
0.7378515210050496	25174013.86664622
0.7379744962585505	25094145.300604507
0.738097492007927	25014263.42313514
0.7382205082565949	24934368.23201958
0.738343545007971	24854459.72503885
0.7384666022654723	24774537.89997354
0.7385896800325165	24694602.754604176
0.7387127783125219	24614654.286710482
0.7388358971089073	24464680.576625597
0.7389590364250921	24307659.501828264
0.7390821962644963	24150612.25685168
0.7392053766305403	23993538.837334495
0.7393285775266454	23836439.238913946
0.7394517989562333	23679313.45722684
0.7395750409227259	23522161.487909704
0.7396983034295463	23372627.166277695
0.739821586480118	23393110.824562896
0.7399448900778645	23413597.896791104
0.7400682142262109	23434088.383531414
0.740191558928582	23454582.285352822
0.7403149241884034	23475079.60282452
0.7404383100091014	23495580.3365158
0.7405617163941028	23516084.486996017
0.7406851433468352	23489997.117421463
0.7408085908707264	23250744.766944587
0.7409320589692048	23011452.541076075
0.7410555476456997	22772120.433169726
0.7411790569036406	22532748.436578903
0.7413025867464579	22293336.544655245
0.7414261371775823	22053884.750749536
0.7415497082004452	21814393.04821169
0.7416732998184786	21610373.84785783
0.741796912035115	21482501.77164104
0.7419205448537874	21354608.38341157
0.7420441982779297	21226693.679617405
0.742167872310976	21098757.656705823
0.7422915669563612	20970800.31112376
0.7424152822175206	20842821.639317464
0.7425390180978901	20714821.637732614
0.7426627746009065	20570332.859602705
0.7427865517300065	20405745.00753035
0.7429103494886282	20241129.72414914
0.7430341678802096	20076487.0048875
0.7431580069081896	19911816.84517265
0.7432818665760077	19747119.240430955
0.7434057468871037	19582394.186088607
0.7435296478449182	19417641.67757063
0.7436535694528923	19264081.498525538
0.7437775117144678	19118176.015302446
0.7439014746330868	18972246.214499034
0.7440254582121922	18826292.09206203
0.7441494624552276	18680313.643937897
0.7442734873656368	18534310.86607244
0.7443975329468645	18388283.754410554
0.7445215992023557	18242232.304896742
0.7446456861355559	18098162.959574554
0.7447697937499119	17954808.72416252
0.7448939220488703	17811430.59637795
0.7450180710358784	17668028.572238874
0.7451422407143843	17524602.647762425
0.7452664310878367	17381152.8189651
0.7453906421596846	17237679.081863124
0.7455148739333779	17094181.432471585
0.7456391264123667	16961789.475512534
0.7457633996001021	16831155.01611686
0.7458876935000356	16700498.784311052
0.7460120081156189	16569820.776466858
0.7461363434503048	16439120.98895463
0.7462606995075466	16308399.418144364
0.7463850762907978	16177656.060405826
0.7465094738035127	16046832.743531154
0.7466338920491467	15900771.04673108
0.746758331031155	15754685.00631473
0.7468827907529935	15608574.618225152
0.7470072712181189	15462439.878404219
0.7471317724299886	15316280.782793289
0.7472562943920602	15170097.327333193
0.7473808371077922	15023889.507963723
0.7475054005806435	14877522.27708258
0.7476299848140736	14730298.83640599
0.7477545898115426	14583050.858489256
0.7478792155765113	14435778.339242833
0.7480038621124406	14288481.274576651
0.7481285294227926	14141159.660399726
0.7482532175110298	13993813.492620282
0.7483779263806148	13846442.767146414
0.7485026560350116	13700033.289201899
0.7486274064776842	13556267.465675373
0.748752177712097	13412477.68117852
0.7488769697417158	13268663.931717277
0.749001782570006	13124826.213297967
0.7491266162004343	12980964.521925626
0.7492514706364677	12837078.85360466
0.7493763458815739	12693169.204338828
0.7495012419392209	12547783.500325358
0.7496261588128773	12400286.041972429
0.7497510965060128	12252764.00070967
0.7498760550220971	12105217.37244009
0.7500010343646007	11957646.153065775
0.7501260345369949	11810050.338488158
0.750251055542751	11662429.924608279
0.7503760973853414	11514784.907325994
0.7505011600682389	11368258.428874899
0.750626243594917	11222662.030393446
0.7507513479688495	11077041.3658458
0.7508764731935109	10931396.431187347
0.7510016192723765	10785727.22237308
0.7511267862089218	10640033.735357478
0.7512519740066232	10494315.966093991
0.7513771826689577	10348573.910535542
0.7515024121994025	10208874.044957673
0.7516276626014359	10071979.430112865
0.751752933878536	9935061.999499153
0.7518782260341824	9798121.749313626
0.7520035390718548	9661158.675753009
0.7521288729950334	9524172.775013536
0.7522542278071992	9387164.043290595
0.7523796035118337	9250132.476778967
0.7525050001124189	9114889.436342487
0.7526304176124378	8980017.78670455
0.7527558560153731	8845123.658458512
0.752881315324709	8710207.047857638
0.7530067955439299	8575267.951154947
0.7531322966765205	8440306.364602987
0.7532578187259665	8305322.284453226
0.7533833616957542	8170315.706956779
0.75350892558937	8038786.321486869
0.7536345104103016	7907399.5800254
0.7537601161620366	7775990.940773756
0.7538857428480638	7644560.400082109
0.7540113904718717	7513107.954300516
0.7541370590369503	7381633.599777989
0.7542627485467898	7250137.332862959
0.7543884590048808	7119682.922759221
0.7545141904147151	6999814.833709385
0.7546399427797842	6879926.7666449025
0.7547657161035808	6760018.718235889
0.754891510389598	6640090.685152148
0.7550173256413296	6520142.664062845
0.7551431618622698	6400174.651636722
0.7552690190559135	6280186.644541888
0.7553948972257561	6161606.074296669
0.7555207963752938	6047797.102013818
0.755646716508023	5933969.161568986
0.755772657627441	5820122.249800707
0.7558986197370455	5706256.363547116
0.756024602840335	5592371.499645845
0.7561506069408084	5478467.654933926
0.7562766320419653	5364544.826247784
0.7564026781473054	5252477.179259299
0.75652874526033	5143688.891466877
0.7566548333845401	5034882.4722931
0.7567809425234375	4926057.918716165
0.7569070726805247	4817215.227713698
0.7570332238593047	4708354.3962627435
0.7571593960632813	4599475.421339776
0.7572855892959586	4490578.299920984
0.7574118035608413	4388030.05071601
0.7575380388614347	4291693.775288915
0.7576642952012449	4195341.44381588
0.7577905725837782	4098973.0536210714
0.7579168710125422	4002588.6020277254
0.7580431904910444	3906188.0863590776
0.7581695310227928	3809771.50393794
0.7582958926112967	3713338.8520862777
0.7584222752600652	3621816.0300858417
0.7585486789726085	3533107.6969646765
0.7586751037524372	3444384.5791212916
0.7588015496030628	3355646.6740914257
0.7589280165279966	3266893.979410897
0.7590545045307512	3178126.4926145887
0.7591810136148396	3089344.2112371493
0.7593075437837755	3000547.132812683
0.7594340950410726	2917765.566740771
0.7595606673902461	2836719.8177525904
0.7596872608348112	2755660.561139497
0.7598138753782836	2674587.794650391
0.75994051102418	2593501.5160334613
0.7600671677760173	2512401.723036825
0.7601938456373134	2431288.413407961
0.7603205446115863	2350161.584894204
0.7604472647023548	2275215.553121072
0.7605740059131385	2200872.7447998123
0.7607007682474575	2126517.5460104262
0.7608275517088319	2052149.9546880743
0.7609543563007835	1977769.9687670036
0.7610811820268336	1903377.5861816574
0.7612080288905045	1828972.8048660234
0.7613348968953197	1754781.35491501
0.7614617860448022	1685209.0652537216
0.7615886963424764	1615625.1802107282
0.7617156277918667	1546029.697853628
0.7618425803964988	1476422.6162494111
0.7619695541598982	1406803.9334649453
0.7620965490855914	1337173.6475667336
0.7622235651771058	1267531.7566207917
0.7623506024379685	1200134.7682595577
0.7624776608717082	1142617.074814499
0.7626047404818536	1085089.7950871969
0.7627318412719337	1027552.9274800388
0.762858963245479	970006.4703949103
0.7629861064060198	912450.4222335956
0.7631132707570876	854884.7813975277
0.7632404563022137	797309.5462880387
0.7633676630449308	743097.6799472093
0.7634948909887717	696056.7001265552
0.7636221401372697	649007.8801426588
0.7637494104939593	601951.2186887208
0.7638767020623748	554886.7144579417
0.7640040148460518	507814.3661430706
0.7641313488485262	460734.1724368154
0.7642587040733344	413646.13203155575
0.7643860805240132	372459.9609891747
0.7645134782041005	338318.9899668883
0.7646408971171346	304172.3287827505
0.764768337266654	270019.97648842796
0.7648957986561985	235861.93213537865
0.7650232812893079	201698.1947749417
0.7651507851695227	167528.76345827765
0.7652783103003843	133353.63723639838
0.7654058566854343	111000.96411701449
