#wavelength	surface flux
0.7	50743181.48686455
0.7001166666666666	50784636.593923636
0.7002333527777778	51282097.74436155
0.700350058336574	51779641.80499097
0.7004667833462966	52277268.78962985
0.7005835278101878	52774978.71210086
0.7007002917314895	53272771.58622483
0.7008170751134447	53770647.42582774
0.7009338779592968	54268606.24473703
0.7010507002722901	54602745.98225571
0.7011675420556689	54737483.481716216
0.701284403312678	54872243.43742641
0.7014012840465635	55007025.85312942
0.7015181842605713	55141830.732568346
0.701635103957948	55276658.079487085
0.701752043141941	55411507.89763029
0.701869001815798	55546380.19074338
0.7019859799827672	55755419.94616095
0.7021029776460976	56016095.27517975
0.7022199948090387	56276814.05008705
0.7023370314748403	56537576.27812338
0.7024540876467528	56798381.966531016
0.702571163328027	57059231.12255295
0.7026882585219152	57320123.753434926
0.7028053732316688	57581059.86642167
0.7029225074605406	57505126.18301802
0.7030396612117841	57299082.17313721
0.7031568344886527	57093003.82258805
0.7032740272944008	56886891.125647254
0.7033912396322832	56680744.0765902
0.7035084715055552	56474562.669691846
0.7036257229174727	56268346.89922559
0.7037429938712924	56062096.75946407
0.7038602843702709	56245779.7336863
0.7039775944176659	56495634.66159103
0.7040949240167356	56745531.23198385
0.7042122731707383	56995469.45180493
0.7043296418829335	57245449.32799613
0.7044470301565806	57495470.86749998
0.70456443799494	57745534.07726022
0.7046818654012724	57995638.96422224
0.7047993123788394	55282268.325665824
0.7049167789309024	52565044.69116404
0.7050342650607243	49847368.18605231
0.7051517707715678	47129238.73485766
0.7052692960666963	44410656.262089156
0.705386840949374	41691620.69224302
0.7055044054228656	38972131.94979747
0.7056219894904361	36674633.154798836
0.7057395931553511	37061332.98006985
0.705857216420877	37448097.25531205
0.7059748592902804	37834925.99126657
0.7060925217668288	38221819.19867747
0.70621020385379	38608776.88828954
0.7063279055544321	38995799.0708494
0.7064456268720246	39382885.75710694
0.7065633678098366	39726375.281477496
0.7066811283711383	39949676.99683128
0.7067989085592001	40173015.92913763
0.7069167083772933	40396392.08459922
0.7070345278286895	40619805.469420195
0.707152366916661	40843256.08980536
0.7072702256444803	41066743.95196032
0.7073881040154211	41290269.06209261
0.7075060020327569	41504422.17231318
0.7076239196997625	41704907.832310885
0.7077418570197124	41905426.90658505
0.7078598139958823	42105979.40070491
0.7079777906315483	42306565.32024066
0.7080957869299869	42507184.670762844
0.7082138028944751	42707837.45784334
0.7083318385282908	42908523.68705516
0.7084498938347124	42815490.58708777
0.708567968817018	42473392.37506929
0.7086860634784875	42131237.14668175
0.7088041778224007	41789024.89242252
0.7089223118520377	41446755.60278804
0.7090404655706796	41104429.268272154
0.709158638981608	40762045.87936678
0.709276832088105	40419605.42656319
0.7093950448934531	40298872.31978554
0.7095132774009353	40283880.93485096
0.7096315296138355	40268887.05135221
0.7097498015354378	40253890.668872885
0.7098680931690269	40238891.78699649
0.7099864045178884	40223890.405306436
0.7101047355853081	40208886.523386106
0.7102230863745722	40193880.14081879
0.7103414568889679	40328142.30679837
0.7104598471317828	40496344.749104716
0.7105782571063047	40664575.225151315
0.7106966868158224	40832833.73961059
0.710815136263625	41001120.29715557
0.7109336054530023	41169434.90246024
0.7110520943872445	41337777.560199074
0.7111706030696424	41506148.27504763
0.7112891315034873	41780878.46839082
0.7114076796920712	42060727.8282216
0.7115262476386865	42340623.82961235
0.7116448353466263	42620566.48033649
0.711763442819184	42900555.78816922
0.711882070059654	43180591.76088683
0.7120007170713306	43460674.4062664
0.7121193838575091	43708159.202722915
0.7122380704214853	43615211.16152676
0.7123567767665555	43522247.6289905
0.7124755028960166	43429268.60253211
0.7125942488131658	43336274.07956938
0.7127130145213015	43243264.05751923
0.7128318000237216	43150238.53379902
0.7129506053237256	43057197.50582474
0.7130694304246129	42972584.682635754
0.7131882753296837	42917479.94770523
0.7133071400422386	42862366.028652206
0.7134260245655789	42807242.92394604
0.7135449289030065	42752110.63205574
0.7136638530578235	42696969.15145015
0.7137827970333332	42641818.48059772
0.7139017608328388	42586658.61796682
0.7140207444596443	42652913.34307893
0.7141397479170543	42935787.08493705
0.7142587712083737	43218707.97241842
0.7143778143369084	43501676.01338126
0.7144968773059646	43784691.21568432
0.7146159601188489	44067753.58718767
0.7147350627788687	44350863.13575296
0.7148541852893318	44634019.8692429
0.7149733276535467	44883969.60376293
0.7150924898748222	45100428.21287606
0.715211671956468	45316922.89842408
0.7153308739017941	45533453.66641986
0.715450095714111	45750020.52287687
0.71556933739673	45966623.473809995
0.7156885989529628	46183262.52523491
0.7158078803861218	46399937.68316871
0.7159271816995193	46566794.268668
0.7160465028964692	46704417.07388373
0.7161658439802853	46842062.81623365
0.7162852049542819	46979731.49954061
0.7164045858217744	47117423.1276282
0.716523986586078	47255137.704320416
0.7166434072505089	47392875.233442016
0.716762847818384	47530635.718818516
0.7168823082930204	47751968.27749277
0.7170017886777359	47997917.518483914
0.7171212889758488	48243907.75101507
0.7172408091906781	48489938.98191839
0.7173603493255433	48736011.21802693
0.7174799093837642	48982124.466174684
0.7175994893686615	49228278.73319723
0.7177190892835562	49474474.025930844
0.7178387091317702	49835233.084890075
0.7179583489166254	50207548.3913132
0.7180780086414448	50579925.75028769
0.7181976883095517	50952365.17215533
0.7183173879242699	51324866.66725998
0.718437107488924	51697430.24594724
0.7185568470068389	52070055.918564424
0.7186766064813399	52442338.39047784
0.7187963859157535	52804549.39170238
0.7189161853134061	53166820.76142709
0.719036004677625	53529152.50971346
0.7191558440117378	53891544.64662432
0.7192757033190732	54253997.182225175
0.7193955826029597	54616510.126581535
0.7195154818667269	54979083.489762254
0.7196354011137046	55291262.98200116
0.7197553403472235	55371193.8889677
0.7198752995706147	55451138.11775203
0.7199952787872098	55531095.67057455
0.720115278000341	55611066.54965587
0.7202352972133411	55691050.75721704
0.7203553364295432	55771048.29547936
0.7204753956522815	55851059.166664824
0.7205954748848902	55928301.43753474
0.7207155741307044	55999423.4541617
0.7208356933930594	56070557.32445799
0.7209558326752915	56141703.05039933
0.7210759919807375	56212860.63396177
0.7211961713127342	56284030.07712136
0.7213163706746197	56355211.38185494
0.7214365900697322	56426404.550139226
0.7215568295014103	56656255.21496303
0.721677088972994	57075435.151941806
0.7217973684878227	57494684.952242725
0.7219176680492374	57914004.62751085
0.7220379876605789	58333394.18939127
0.722158327325189	58752853.649532154
0.7222786870464099	59172383.019582845
0.7223990668275843	59591982.31119539
0.7225194666720555	59883576.53387019
0.7226398865831676	60084449.39521298
0.7227603265642646	60285355.7353655
0.722880786618692	60486295.55990849
0.7230012667497951	60687268.874422096
0.7231217669609201	60888275.68448815
0.7232422872554135	61089315.99568903
0.7233628276366229	61290389.813608795
0.7234833881078956	61537711.77095607
0.7236039686725803	61802620.85904378
0.7237245693340255	62067574.09864575
0.7238451900955812	62332571.497121476
0.7239658309605971	62597613.06182997
0.7240864919324239	62862698.80013293
0.7242071730144127	63127828.7193923
0.724327874209915	63393002.82697098
0.7244485955222832	63854845.17085695
0.7245693369548704	64349274.61240723
0.7246900985110294	64843786.458863705
0.7248108801941148	65338380.723962575
0.7249316820074803	65833057.42143729
0.7250525039544815	66327816.56502908
0.7251733460384739	66822658.1684782
0.7252942082628137	67317238.35142893
0.7254150906308574	67612637.83147176
0.7255359931459625	67908086.54476129
0.7256569158114868	68203584.49950312
0.7257778586307888	68499131.70390424
0.7258988216072273	68794728.16617265
0.7260198047441617	69090373.89451781
0.7261408080449525	69386068.89715151
0.72626183151296	69667350.86916244
0.7263828751515454	69852569.35296586
0.7265039389640706	70037818.70651656
0.726625022953898	70223098.93495964
0.7267461271243904	70408410.04344086
0.7268672514789111	70593752.03710672
0.7269883960208241	70779124.9211047
0.7271095607534942	70964528.70058346
0.7272307456802866	71158225.32434016
0.7273519508045666	71374271.73487094
0.7274731761297006	71590354.15313669
0.7275944216590555	71806472.58513881
0.7277156873959987	72022627.03687967
0.7278369733438982	72238817.51436286
0.727958279506122	72455044.0235917
0.7280796058860397	72671306.57057235
0.7282009524870207	72919991.95315547
0.7283223193124353	73216622.45503004
0.7284437063656539	73513302.39532097
0.7285651136500483	73810031.7822691
0.7286865411689898	74106810.62411445
0.7288079889258514	74403638.92910083
0.7289294569240056	74700516.70547068
0.7290509451668262	74997443.96147028
0.7291724536576875	75414902.35826147
0.7292939823999636	75932262.35046762
0.7294155313970303	76449708.56934017
0.7295371006522632	76967241.02924906
0.7296586901690385	77484859.74456753
0.7297802999507332	78002564.72967166
0.7299019300007252	78520355.9989413
0.7300235803223919	79038233.56675445
0.7301452509191123	79453876.58008991
0.7302669417942654	79822360.68084097
0.7303886529512311	80190906.19560894
0.7305103843933897	80559513.13462947
0.7306321361241218	80928181.50813955
0.7307539081468093	81296911.3263792
0.7308757004648336	81665702.59958777
0.7309975130815778	82034555.33800898
0.7311193460004248	82460361.92953473
0.7312411992247582	82899119.19683465
0.7313630727579622	83337949.59034568
0.7314849666034219	83776853.12225607
0.7316068807645224	84215829.80475485
0.7317288152446498	84654879.65003425
0.7318507700471907	85094002.67028809
0.7319727451755319	85533198.87771179
0.732094740633061	86087433.58666803
0.7322167564231665	86646936.44238944
0.7323387925492371	87206532.54858685
0.7324608490146619	87766221.92080179
0.732582925822831	88326004.57457891
0.7327050229771347	88885880.52546434
0.7328271404809642	89445849.78900883
0.7329492783377112	89971429.434841
0.7330714365507675	90158092.82537717
0.7331936151235259	90344787.32647838
0.7333158140593796	90531512.94332956
0.7334380333617229	90718269.68111716
0.7335602730339499	90905057.5450278
0.7336825330794556	91091876.54024915
0.7338048135016354	91278726.67196934
0.7339271143038857	91224545.61582223
0.734049435489603	90362631.42802659
0.7341717770621846	89500573.58786616
0.7342941390250283	88638372.0713995
0.7344165213815324	87776026.8546804
0.734538924135096	86913537.91375726
0.7346613472891185	86050905.22467844
0.734783790847	85188128.76348446
0.7349062548121412	84134191.77986549
0.7350287391879431	82742449.27500209
0.7351512439778078	81350474.8130517
0.7352737691851374	79958268.35535932
0.735396314813335	78565829.8632561
0.7355188808658037	77173159.29807317
0.7356414673459482	75780256.62112652
0.7357640742571725	74387121.79373468
0.7358867016028818	73812076.2141522
0.7360093493864824	74045101.00913602
0.7361320176113801	74278164.64158536
0.736254706280982	74511267.11797345
0.7363774153986956	74744408.44477457
0.7365001449679286	74977588.62846301
0.7366228949920899	75210807.67551559
0.7367456654745885	75444065.59240934
0.7368684564188344	74992618.15224297
0.7369912678282374	74154092.46074244
0.7371140997062088	73315427.01495965
0.7372369520561599	72476621.79160176
0.7373598248815024	71637676.76737522
0.7374827181856494	70798591.91897655
0.7376056319720137	69959367.22310308
0.7377285662440091	69120002.65644683
0.7378515210050496	69248375.61087616
0.7379744962585505	69667974.83075947
0.738097492007927	70087643.983846
0.7382205082565949	70507383.0817911
0.738343545007971	70927192.13625245
0.7384666022654723	71347071.15888996
0.7385896800325165	71767020.16136394
0.7387127783125219	72187039.15533887
0.7388358971089073	71365985.98734303
0.7389590364250921	70420306.33739273
0.7390821962644963	69474469.07416672
0.7392053766305403	68528474.17139822
0.7393285775266454	67582321.6028119
0.7394517989562333	66636011.34212992
0.7395750409227259	65689543.363072686
0.7396983034295463	64861474.619394556
0.739821586480118	66670656.11656064
0.7399448900778645	68480139.14397265
0.7400682142262109	70289923.75189474
0.740191558928582	72100009.9905829
0.7403149241884034	73910397.9103094
0.7404383100091014	75721087.56135632
0.7405617163941028	77532078.9940106
0.7406851433468352	78830669.59596261
0.7408085908707264	77783985.2485628
0.7409320589692048	76737126.45377225
0.7410555476456997	75690093.18251505
0.7411790569036406	74642885.40571341
0.7413025867464579	73595503.094282
0.7414261371775823	72547946.21913174
0.7415497082004452	71500214.75116976
0.7416732998184786	70886089.86124083
0.741796912035115	71202408.69613133
0.7419205448537874	71518780.25082757
0.7420441982779297	71835204.53411624
0.742167872310976	72151681.55478576
0.7422915669563612	72468211.32162538
0.7424152822175206	72784793.84342605
0.7425390180978901	73101429.12898016
0.7426627746009065	72865189.16326062
0.7427865517300065	71954850.96896394
0.7429103494886282	71044361.05163392
0.7430341678802096	70133719.38598508
0.7431580069081896	69222925.94672532
0.7432818665760077	68311980.70855774
0.7434057468871037	67400883.64618456
0.7435296478449182	66489634.734301515
0.7436535694528923	65754448.09436635
0.7437775117144678	65139762.91181982
0.7439014746330868	64524975.281743795
0.7440254582121922	63910085.187062226
0.7441494624552276	63295092.61069797
0.7442734873656368	62679997.53557111
0.7443975329468645	62064799.94459791
0.7445215992023557	61449499.82069294
0.7446456861355559	61178307.03587214
0.7447697937499119	61033866.83595088
0.7448939220488703	60889402.562663
0.7450180710358784	60744914.21199637
0.7451422407143843	60600401.77993794
0.7452664310878367	60455865.26247403
0.7453906421596846	60311304.655590706
0.7455148739333779	60166719.955272846
0.7456391264123667	60725457.96081335
0.7457633996001021	61396750.35394627
0.7458876935000356	62068154.62914591
0.7460120081156189	62739670.80505681
0.7461363434503048	63411298.90033067
0.7462606995075466	64083038.93362102
0.7463850762907978	64754890.923582576
0.7465094738035127	65425372.312606715
0.7466338920491467	65708131.74424624
0.746758331031155	65990938.30245797
0.7468827907529935	66273791.995095745
0.7470072712181189	66556692.83001563
0.7471317724299886	66839640.81507473
0.7472562943920602	67122635.95813113
0.7473808371077922	67405678.26704496
0.7475054005806435	67723580.79640833
0.7476299848140736	68255971.02458331
0.7477545898115426	68788449.98446311
0.7478792155765113	69321017.69083636
0.7480038621124406	69853674.15849358
0.7481285294227926	70386419.40222862
0.7482532175110298	70919253.43683818
0.7483779263806148	71452176.27711943
0.7485026560350116	71920519.53398006
0.7486274064776842	72213918.23477674
0.748752177712097	72507365.83535634
0.7488769697417158	72800862.34387
0.749001782570006	73094407.76846805
0.7491266162004343	73388002.11730346
0.7492514706364677	73681645.39853047
0.7493763458815739	73975337.62030464
0.7495012419392209	74047347.20085794
0.7496261588128773	73800603.19882256
0.7497510965060128	73553818.07278667
0.7498760550220971	73306991.81589653
0.7500010343646007	73060124.42129686
0.7501260345369949	72813215.88213132
0.750251055542751	72566266.19154286
0.7503760973853414	72319275.34267248
0.7505011600682389	72205477.22856791
0.750626243594917	72202907.40800011
0.7507513479688495	72200337.15912889
0.7508764731935109	72197766.48188286
0.7510016192723765	72195195.37619062
0.7511267862089218	72192623.84198076
0.7512519740066232	72190051.87918186
0.7513771826689577	72187479.4877225
0.7515024121994025	72545064.82839228
0.7516276626014359	73070635.74099296
0.751752933878536	73596294.24874483
0.7518782260341824	74122040.36624816
0.7520035390718548	74647874.10810465
0.7521288729950334	75173795.48891784
0.7522542278071992	75699804.52329454
0.7523796035118337	76225901.22584389
0.7525050001124189	76821233.12258646
0.7526304176124378	77431702.27860112
0.7527558560153731	78042273.17947434
0.752881315324709	78652945.84216495
0.7530067955439299	79263720.2836329
0.7531322966765205	79874596.52084029
0.7532578187259665	80485574.57075405
0.7533833616957542	81096654.45034277
0.75350892558937	81552974.19708134
0.7536345104103016	82002087.9442354
0.7537601161620366	82451276.54368041
0.7538857428480638	82900540.00789243
0.7540113904718717	83349878.34934792
0.7541370590369503	83799291.58052687
0.7542627485467898	84248779.71391131
0.7543884590048808	84696369.82396343
0.7545141904147151	85124360.17086451
0.7546399427797842	85552421.84948938
0.7547657161035808	85980554.87172742
0.754891510389598	86408759.24946915
0.7550173256413296	86837034.99460733
0.7551431618622698	87265382.11903626
0.7552690190559135	87693800.63465251
0.7553948972257561	88106111.66066024
0.7555207963752938	88464184.9534587
0.755646716508023	88822317.92513908
0.755772657627441	89180510.58564822
0.7558986197370455	89538762.94493416
0.756024602840335	89897075.01294655
0.7561506069408084	90255446.79963693
0.7562766320419653	90613878.31495877
0.7564026781473054	90726742.89013761
0.75652874526033	90407388.8527448
0.7566548333845401	90087981.58967893
0.7567809425234375	89768521.09206931
0.7569070726805247	89449007.35104363
0.7570332238593047	89129440.3577278
0.7571593960632813	88809820.10324612
0.7572855892959586	88490146.57872202
0.7574118035608413	88361921.265294
0.7575380388614347	88421026.73839076
0.7576642952012449	88480142.06239973
0.7577905725837782	88539267.23896262
0.7579168710125422	88598402.2697217
0.7580431904910444	88657547.15631928
0.7581695310227928	88716701.90039787
0.7582958926112967	88775866.50360054
0.7584222752600652	86935284.96509773
0.7585486789726085	84003059.3422159
0.7586751037524372	81070345.01506248
0.7588015496030628	78137141.90218213
0.7589280165279966	75203449.92212212
0.7590545045307512	72269268.99339876
0.7591810136148396	69334599.03452067
0.7593075437837755	66399439.963978454
0.7594340950410726	66253505.4662959
0.7595606673902461	66916944.634571776
0.7596872608348112	67580494.37604304
0.7598138753782836	68244154.70913714
0.75994051102418	68907925.6522874
0.7600671677760173	69571807.22392763
0.7601938456373134	70235799.442497
0.7603205446115863	70899902.32643576
0.7604472647023548	71098970.27902207
0.7605740059131385	71251835.99101692
0.7607007682474575	71404727.18063058
0.7608275517088319	71557643.85210884
0.7609543563007835	71710586.00969936
0.7610811820268336	71863553.65764937
0.7612080288905045	72016546.8002071
0.7613348968953197	72161345.00766431
0.7614617860448022	72137502.19443047
0.7615886963424764	72113655.40739441
0.7617156277918667	72089804.64589386
0.7618425803964988	72065949.90926637
0.7619695541598982	72042091.19684945
0.7620965490855914	72018228.50798048
0.7622235651771058	71994361.84199667
0.7623506024379685	71748096.83653483
0.7624776608717082	70527012.02325398
0.7626047404818536	69305723.69583751
0.7627318412719337	68084231.82036859
0.762858963245479	66862536.36291964
0.7629861064060198	65640637.28956102
0.7631132707570876	64418534.56635556
0.7632404563022137	63196228.15936401
0.7633676630449308	61844410.42281892
0.7634948909887717	60217114.41039705
0.7636221401372697	58589547.18197523
0.7637494104939593	56961708.69234714
0.7638767020623748	55333598.896306455
0.7640040148460518	53705217.74863124
0.7641313488485262	52076565.20409815
0.7642587040733344	50447641.21747245
0.7643860805240132	48146556.59679423
0.7645134782041005	45043323.29729595
0.7646408971171346	41939572.79224647
0.764768337266654	38835304.99544728
0.7648957986561985	35730519.820680946
0.7650232812893079	32625217.181719236
0.7651507851695227	29519396.99231767
0.7652783103003843	26413059.16621825
0.7654058566854343	23336478.27883949
0.7655334243282153	20280017.60151549
0.7656610132322699	17223047.51408259
0.765788623401142	14165567.931632236
0.7659162548383754	11107578.769253232
0.7660439075475152	8049079.942013092
