#wavelength	surface flux
0.676892	41817.284510054604
0.678297	44369.581390650535
0.679702	46925.795372761655
0.681109	49516.18047553061
0.682517	52127.0343581518
0.683926	54742.51081518105
0.685337	57357.15119830831
0.686749	59973.39453074343
0.688164	62574.428156480746
0.689581	65078.658440212836
0.691	67126.6429252965
0.692422	68617.7615680703
0.693847	71138.97538713594
0.695274	73957.97494099621
0.696705	76742.52761326502
0.698139	79047.61434949437
0.699576	80902.0824144762
0.701017	82324.51503263277
0.702461	83751.88047753727
0.70391	85532.9885194783
0.705362	86822.96840597161
0.706819	87750.3745201537
0.70828	88555.4836143643
0.709745	88897.48038489866
0.711216	89228.15160498719
0.71269	88860.40935452028
0.71417	88087.01499264974
0.715655	86300.10434749948
0.717145	83259.04287553467
0.71864	81403.8132387875
0.72014	80085.84393435327
0.721647	78789.56038435771
0.723158	76076.94371349402
0.724676	72635.04878083567
0.726199	69184.45844452169
0.727728	66191.59179588492
0.729264	62047.587491478895
0.730805	58240.28533652291
0.732353	54855.58048961018
0.733907	50935.97206262384
0.735468	46881.2900847974
0.737035	42512.33135341555
0.738609	38185.76082772404
0.74019	34370.87527596617
0.741777	30320.23404142004
0.743372	26430.828591309877
0.744973	22845.41365996042
0.746582	19461.01528568479
0.748197	16383.529587208792
0.74982	13578.166284532947
0.751451	11071.621985665746
0.753088	8928.838385202072
0.754734	7064.2155114934485
0.756386	5474.93966955117
0.758047	4141.300969330601
0.759715	3031.923730837849
0.76139	2082.990092394913
0.763074	1271.7071289522917
0.764765	594.0539635916516
0.766464	179.00803110973308
0.768172	250.88188779037534
0.769887	241.47110003155862
0.77161	869.688838487225
0.773341	1972.1023786530818
0.775081	3315.920125352676
0.776829	4950.318714187601
0.778585	6340.475146677913
0.780349	7580.857762273642
0.782121	12168.641813299173
0.783902	17077.953234509525
0.785691	22296.924223593436
0.787489	28536.242469160108
0.789295	35768.15085040111
0.79111	42946.649719171495
0.792933	37723.29832521802
0.794764	22263.54648950774
0.796604	61707.34907515812
0.798453	91880.5802633446
0.80031	111974.18657574165
0.802176	132252.85451169958
0.804051	154545.66140318388
0.805934	178597.4114572842
0.807826	203806.97837632243
0.809727	227927.8215647862
0.811636	253173.6899394879
0.813554	281951.7333750277
0.81548	322405.8119339647
0.817416	364304.5225070607
0.81936	406764.03607750114
0.821313	457978.70696786355
0.823274	498068.01634067163
0.825244	559610.9029331899
0.827223	618534.563801656
0.829211	674060.0585235427
0.831208	737721.1275728868
0.833213	809469.9089969798
0.835227	870373.1069356856
0.837249	948266.2949080182
0.83928	1032814.6107179628
0.841321	1114215.2009638846
0.843369	1221902.8640967992
0.845427	1318922.1097964828
0.847493	1434774.5795674075
0.849567	1406739.5294528105
0.851651	1079225.7022866178
0.853742	1388540.7062915196
0.855843	1900593.3569187683
0.857952	2100670.358005982
0.86007	2255231.7806540392
0.862196	2362666.8883857955
0.864331	2526586.4369880348
0.866474	2723052.4151075166
0.868626	2917380.589417262
0.870786	3119004.9026280623
0.872955	3322975.58973376
0.875132	3530741.254133853
0.877317	3759282.5139797674
0.879511	3963032.0391612444
0.881713	4133935.2499328577
0.883923	4320732.315159412
0.886142	4548692.786283996
0.888369	4664802.224274817
0.890604	4645890.380185736
0.892847	3563971.5347471302
0.895099	3281330.8546595597
0.897358	4916435.634933407
0.899626	5955842.547624915
0.901901	6534402.023472683
0.904185	7203229.817571102
0.906476	7455190.674927196
0.908776	7801720.167098289
0.911083	8071226.7145634815
0.913398	8462567.530622372
0.915721	8673478.17566129
0.918051	8486754.616661748
0.92039	9279236.966665784
0.922736	9876918.40715835
0.925089	8899895.910224987
0.927451	5299665.65888987
0.929819	3438112.7507266263
0.932195	4803896.906101682
0.934579	5069099.098267753
0.93697	6650839.718468225
0.939369	8426610.729827395
0.941774	8055748.146062436
0.944187	4901958.74651235
0.946607	5357143.863974756
0.949035	5371338.959051047
0.951469	6714500.899357058
0.953911	7745159.779731455
0.956359	9310811.502869692
0.958814	7915126.357405874
0.961277	6746185.868643199
0.963746	6771816.666295606
0.966222	7440297.569216894
0.968705	8209102.711629404
0.971194	11616371.041681655
0.97369	13621891.55580339
0.976193	13264450.160529722
0.978702	13761220.16726676
0.981217	13216420.37938545
0.983739	14781777.160950989
0.986268	16008269.907116584
0.988802	16754791.489739515
0.991343	17765794.964486707
0.99389	18187566.785723694
0.996444	18562293.351257034
0.999003	18079579.418730095
1.00157	18183391.88970801
1.00414	18669215.889288027
1.00672	19675741.129434247
1.0093	20493127.031908054
1.01189	21332479.95787838
1.01448	22102199.21435688
1.01708	22405765.948161583
1.01969	22470438.52975136
1.0223	22321388.552156575
1.02492	22109151.66087048
1.02754	21901596.861062735
1.03017	22208935.985732555
1.0328	22851835.69360632
1.03544	23198592.054689143
1.03808	23296785.73780217
1.04073	23170384.66104674
1.04339	23040684.813122664
1.04604	22919272.837454405
1.04871	22712966.308747277
1.05138	22544896.751389876
1.05405	22529990.66381706
1.05673	22688057.143253814
1.05941	22748443.950781405
1.0621	22837418.13960703
1.06479	22462692.61381283
1.06749	22058665.467769425
1.07019	21487252.4215251
1.07289	21322242.690154344
1.0756	21188424.674407557
1.07832	20937328.565920353
1.08104	20796750.15044178
1.08376	20650024.4222322
1.08649	20237806.48250435
1.08922	19209754.461904783
1.09195	17383593.289061483
1.09469	15293991.737522434
1.09743	14559243.34991315
1.10018	11183273.669666559
1.10293	7803927.762788709
1.10568	5789635.088022408
1.10844	8000586.439035357
1.1112	5103133.876875962
1.11396	4011721.330426372
1.11673	4175138.575866446
1.1195	4242946.468500034
1.12228	2321734.7858715234
1.12505	2310938.0936070527
1.12783	5177559.5662672445
1.13062	4734378.508781954
1.13341	2029488.3469435917
1.1362	4548632.275143427
1.13899	8225890.533251826
1.14178	6832024.90219606
1.14458	5243743.316024007
1.14738	6808742.8206715
1.15019	6591093.865821151
1.153	3042207.5461553475
1.1558	3401604.691528587
1.15862	3941022.6780192205
1.16143	3923594.90851446
1.16425	5223334.856815427
1.16707	5848791.176195477
1.16989	5733514.538106642
1.17271	6638666.748123205
1.17554	8926004.39290974
1.17837	10527554.587577887
1.1812	12426578.764787598
1.18403	15986922.484155603
1.18686	16658682.629278636
1.1897	15911838.629247634
1.19253	18843831.97667755
1.19537	21000614.43554524
1.19822	20517322.737572383
1.20106	21582711.46257723
1.2039	22629180.756317742
1.20675	23311844.714735806
1.2096	22998406.17438089
1.21245	23143096.11525258
1.2153	24375704.071752533
1.21815	25181107.591030493
1.221	25954249.912253257
1.22385	26684744.36690312
1.22671	27435326.28826404
1.22957	27840589.608941805
1.23242	28405839.282173004
1.23528	29205762.358370684
1.23814	30117553.32926568
1.241	30581337.91975247
1.24387	31068401.411842205
1.24673	32046364.286363136
1.24959	32151979.85858098
1.25245	32041341.699310936
1.25532	33733859.81008777
1.25818	35244004.2695322
1.26105	35775574.72934999
1.26392	36269457.97702161
1.26678	37099866.30566396
1.26965	37940602.50286534
1.27252	38270217.043169774
1.27538	39268361.15842255
1.27825	39152326.84038876
1.28112	38009083.9904055
1.28399	37706296.432704344
1.28686	37558904.17614226
1.28973	35194542.6477173
1.2926	34132442.87484375
1.29546	34703548.39539633
1.29833	35237070.75293738
1.3012	32869633.052913558
1.30407	35395928.439751096
1.30694	34530145.45456713
1.30981	35985427.18208363
1.31267	33087304.92808043
1.31554	33994637.213378526
1.31841	35435655.23603688
1.32128	33293248.3628713
1.32414	27079443.834144115
1.32701	23102219.83902339
1.32987	15665073.065188404
1.33274	6028232.132846409
1.3356	3111916.2001586324
1.33847	843209.3064271999
1.34133	260233.17408997452
1.34419	459471.151119321
1.34705	473135.4275304804
1.34991	123633.33672795989
1.35277	32619.9006404097
1.35563	138879.68338035094
1.35849	186130.2768185237
1.36135	101126.0563371867
1.3642	149945.78670725107
1.36706	131783.7924492873
1.36991	144567.45511187005
1.37277	310395.7995404483
1.37562	343259.2649927853
1.37847	191831.11774346238
1.38132	42609.98168013162
1.38417	12545.456777705156
1.38701	48126.08091995232
1.38986	84007.44884784761
1.39271	149607.0272868824
1.39555	224139.48737888152
1.39839	186028.25077547948
1.40123	414111.21992416796
1.40407	613941.2324606848
1.40691	761019.2235747001
1.40974	373624.2740978681
1.41258	101097.10019078912
1.41541	143822.27690051988
1.41824	178285.8449328416
1.42107	212406.81066216045
1.4239	185031.91510765345
1.42673	369688.16994911875
1.42955	587896.7555719286
1.43237	356922.9948850613
1.43519	474802.08133904147
1.43801	416971.25651877065
1.44083	750670.3457757868
1.44365	1294126.1130709648
1.44646	1047351.581567083
1.44927	1686538.3384301171
1.45208	1943930.3135299776
1.45489	2017852.237480911
1.45769	2676762.225438705
1.4605	3647391.017360694
1.4633	2919261.6790262344
1.4661	3142568.1255169148
1.4689	2830529.0750593087
1.47169	3094297.0853845477
1.47449	3106638.7303850837
1.47728	3152691.531264447
1.48007	2609074.301778008
1.48286	2950665.009545233
1.48564	3156738.522644025
1.48842	2385896.1043418846
1.4912	2238644.0285539646
1.49398	2724007.778487675
1.49676	2780715.2943225373
1.49953	4159385.628687407
1.5023	5848880.099734129
1.50507	6473749.728942639
1.50784	5658085.74902188
1.51061	5221757.936662438
1.51337	6296052.4905672865
1.51613	7775197.725746658
1.51888	8268739.121988964
1.52164	9718409.652848039
1.52439	10363584.88290616
1.52714	10955459.38483422
1.52989	12257016.066743968
1.53263	12620746.813628469
1.53538	12935573.132415328
1.53812	14192015.936872482
1.54086	15534441.181734873
1.54359	15539240.744828386
1.54632	16424083.48291537
1.54905	17093766.054986294
1.55178	17650391.029321596
1.5545	18714652.52578183
1.55723	19220168.140800856
1.55995	20113584.01418361
1.56266	21269325.559009224
1.56538	21815125.124082427
1.56809	21937915.245845355
1.5708	21687823.000289004
1.57351	21161879.01459093
1.57621	21135164.049962044
1.57891	20983813.362053454
1.58161	21186005.15466279
1.5843	21524857.539868794
1.587	21514192.92050066
1.58969	20992724.659586083
1.59238	20210603.785499707
1.59506	19815171.65435899
1.59774	19553187.418680616
1.60042	19076786.550362952
1.6031	18141929.406527437
1.60577	17337510.22945922
1.60844	16835354.420939546
1.61111	16413253.500608686
1.61378	15752686.39330487
1.61644	14811575.44189007
1.6191	13810646.294789784
1.62176	12740850.189857699
1.62441	11680166.270558693
1.62707	11040832.166446092
1.62971	10232259.738090258
1.63236	10008241.080015242
1.635	11291174.115529602
1.63764	13097568.758172287
1.64028	13611614.970491491
1.64292	12130368.691128401
1.64555	9020356.345344638
1.64818	7701623.679625308
1.65081	9182419.676352914
1.65343	11051658.123229275
1.65605	11149458.3291029
1.65867	10873154.162398733
1.66128	10554883.109373223
1.6639	8641557.846196508
1.66651	4928380.882546108
1.66911	4036389.15840433
1.67172	6455342.514597399
1.67432	7801354.334128757
1.67692	7277491.830398042
1.67951	6635287.105055548
1.68211	6984949.9058963545
1.6847	6733992.899720347
1.68728	5845652.275637775
1.68987	5643521.668560725
1.69245	4962372.389988614
1.69503	3699487.4780660225
1.6976	3531118.482537976
1.70018	4046893.665662594
1.70275	3861008.3994431985
1.70531	4057813.8422247926
1.70788	4718691.211622895
1.71044	4955933.405527306
1.713	5569764.585000392
1.71556	6019864.015568622
1.71811	6169947.58721927
1.72066	6332340.127070664
1.72321	5967725.085132126
1.72575	5542146.617365474
1.7283	5366472.099668736
1.73084	5126594.265346131
1.73337	4917794.095219995
1.73591	4865987.293739406
1.73844	4777040.1987197315
1.74097	4665243.768631094
1.74349	4489997.60779014
1.74602	4301128.558043877
1.74854	4209942.298383012
1.75105	3932570.418561737
1.75357	3269874.035334993
1.75608	2883308.716161254
1.75859	2941589.4375504237
1.7611	2963839.5300083277
1.7636	2830269.7611725293
1.7661	2403163.755880779
1.7686	2004702.6873464603
1.7711	1897830.6312334274
1.77359	1668007.0063333334
1.77608	1270799.1068845505
1.77857	1063484.2236517738
1.78105	1098992.0361479996
1.78354	1105146.6562973207
1.78602	885774.3446784213
1.78849	678166.7870624063
1.79097	578383.4522524239
1.79344	518978.11476161296
1.79591	595903.2176852559
1.79837	718480.6002479331
1.80084	466998.4118105221
1.8033	234262.78993422832
1.80576	175644.60613723262
1.80821	160439.90051549947
1.81067	129661.68422864233
1.81312	102275.41014054441
1.81557	95464.91642245355
1.81801	98014.98140245811
1.82046	95034.64356585409
1.8229	99135.68975509095
1.82533	86869.82259819061
1.82777	69160.20176416515
1.8302	70889.76588233165
1.83263	81963.50464985684
1.83506	78894.40483874147
1.83749	78112.03346540654
1.83991	155345.97270332926
1.84233	324253.48915399384
1.84475	493130.70433382754
1.84716	485438.4533850287
1.84957	332932.86805511895
1.85198	228045.458103329
1.85439	172286.21439650145
1.8568	240502.50298677734
1.8592	312267.0399611969
1.8616	227859.63741498336
1.864	156806.78192278615
1.86639	187066.60831555212
1.86878	191846.36188885962
1.87118	131048.08990893902
1.87356	144674.76524807312
1.87595	304846.86751070136
1.87833	614746.3885907896
1.88071	870966.3207283787
1.88309	728147.3343083244
1.88547	520393.75940650504
1.88784	485459.5595034641
1.89021	454799.9511591628
1.89258	736972.1135984948
1.89494	1099249.5467457138
1.89731	846872.096504685
1.89967	378541.1582949087
1.90203	148069.10112291278
1.90439	183677.35287525968
1.90674	338475.85864500597
1.90909	374061.9817684726
1.91144	248146.62492603564
1.91379	128795.61268997967
1.91613	98840.15558521064
1.91848	89297.31520468209
1.92082	65042.177913886226
1.92315	61963.30469826937
1.92549	86535.06107547256
1.92782	100261.92729539654
1.93015	107492.7179311845
1.93248	125105.53415780154
1.93481	150629.80450296792
1.93713	180667.65144610422
1.93945	204623.37758330806
1.94177	229723.4378793967
1.94409	238328.88435985736
1.94641	240285.71360756934
1.94872	302136.82594378386
1.95103	368255.08861606364
1.95334	281603.53263472836
1.95564	187030.11055131402
1.95795	180044.20140817823
1.96025	252808.7668898129
1.96255	375801.6189680544
1.96484	508890.5714896966
1.96714	633496.4311640895
1.96943	729875.822130377
1.97172	758589.6174691329
1.97401	706379.4818580712
1.97629	617692.199968464
1.97858	539438.2370753784
1.98086	632894.6951691435
1.98314	887794.522255626
1.98541	1093786.842535798
1.98769	1117680.3361214008
1.98996	1010925.9048641518
1.99223	866457.2960706848
1.9945	850693.5058540428
1.99677	1043624.4606197705
1.99903	1295561.9266140128
2.00129	1352726.944262503
2.00355	1160192.1090632658
2.00581	971862.2873511028
2.00806	1207575.7445372082
2.01031	1646304.0726593414
2.01256	1719285.0856192976
2.01481	1579870.8132283671
2.01706	1494893.3982160592
2.0193	1520724.8595553464
2.02154	1548902.1713220098
2.02378	1447786.692590182
2.02602	1481717.3013508285
2.02825	1658725.4305833422
2.03049	1751263.9668692106
2.03272	1758724.2474962275
2.03494	1760557.1543530056
2.03717	1836883.8145819108
2.03939	1977629.3085283653
2.04162	2054844.1472879604
2.04384	2172118.961901045
2.04605	2320126.5808577873
2.04827	2439823.938434577
2.05048	2445229.040230353
2.05269	2362334.659313183
2.0549	2326570.447804581
2.05711	2379298.807368938
2.05931	2473077.899550091
2.06151	2540306.808422791
2.06371	2545348.306252818
2.06591	2544775.813690517
2.06811	2542957.1646479843
2.0703	2535842.5927190213
2.07249	2523135.483275926
2.07468	2511101.53223707
2.07686	2504321.586024717
2.07905	2495556.756027113
2.08123	2487269.9695493947
2.08341	2483455.8708816795
2.08559	2490033.2101119356
2.08776	2494523.370410896
2.08994	2490658.428293372
2.09211	2480039.2796751093
2.09428	2466188.0752848308
2.09645	2455961.5631808545
2.09861	2440835.4827899006
2.10077	2422946.5199841107
2.10293	2403919.060808324
2.10509	2384794.53212555
2.10725	2363913.271768664
2.1094	2352490.8662529048
2.11155	2345279.6629584073
2.1137	2338417.9778863466
2.11585	2326968.6253937487
2.11799	2311414.763961652
2.12013	2297074.046466489
2.12227	2285463.507833748
2.12441	2276989.4664527625
2.12655	2264983.5344562917
2.12868	2252654.988685975
2.13081	2241609.9049745845
2.13294	2229912.0746931043
2.13507	2205900.4045503875
2.13719	2181948.4054576564
2.13931	2157879.939917779
2.14143	2129808.658699415
2.14355	2085934.5925910587
2.14567	2075322.6412196988
2.14778	2059779.4401435906
2.14989	2029235.9839212156
2.152	1973576.230102925
2.1541	1965050.5618310599
2.15621	1967079.5308284685
2.15831	1965212.7220182284
2.16041	1932373.69299993
2.16251	1909188.19155954
2.1646	1880478.2577294013
2.1667	1847591.7191657403
2.16879	1837470.3723470292
2.17087	1836086.6347688285
2.17296	1831487.3793579563
2.17504	1816748.0750339048
2.17713	1760838.8251092643
2.1792	1699598.5182742858
2.18128	1644728.9402458197
2.18336	1611695.6094951078
2.18543	1568130.7009185855
2.1875	1484262.6533443443
2.18957	1355221.8342486739
2.19163	1165435.1768379488
2.1937	1009722.9466184573
2.19576	891556.1946622315
2.19782	817416.198712757
2.19987	728878.7359215943
2.20193	657764.9229508092
2.20398	610128.679008744
2.20603	609149.4880734233
2.20808	658569.5951006627
2.21012	730492.4920954517
2.21217	816215.4351516678
2.21421	865885.9808375734
2.21625	879283.489933866
2.21828	857305.6398321283
2.22032	806122.1468664446
2.22235	761475.0646786122
2.22438	721955.0087519434
2.22641	688745.0234304876
2.22843	667300.0347041267
2.23046	652282.657901403
2.23248	643645.2412133485
2.2345	629113.0987049452
2.23651	609659.8181000359
2.23853	584591.4332651701
2.24054	529538.5431121447
2.24255	449902.7767526338
2.24456	351786.7110003197
2.24657	310030.19673383806
2.24857	332663.8277811043
2.25057	394138.79889752367
2.25257	420077.6044573931
2.25457	417576.68003720045
2.25656	403890.606454306
2.25856	412263.8163768841
2.26055	414915.08361898595
2.26254	414451.2290163556
2.26453	412002.1031274646
2.26651	428475.77641962754
2.2685	456858.4038160868
2.27048	499509.43939980585
2.27246	531859.2066755329
2.27443	551287.0493533759
2.27641	536576.8336067195
2.27838	506334.8659595992
2.28036	469841.24343289173
2.28233	438654.2184674804
2.28429	417013.0347338826
2.28626	400297.80893897143
2.28823	384437.629713049
2.29019	376305.59687898715
2.29215	373925.51450097526
2.29411	381765.4549449535
2.29607	381028.3417665873
2.29802	373181.98773366003
2.29998	362328.4028872251
2.30193	378240.92880548985
2.30388	424680.0093886647
2.30583	530469.8107659545
2.30778	637182.5833621472
2.30972	735900.3777295433
2.31167	747200.8226028965
2.31361	698446.52559831
2.31555	532768.7602547104
2.31749	397583.801427861
2.31943	293604.9647310357
2.32137	313957.23364718846
2.32331	332159.15345540846
2.32524	348563.7602704582
2.32718	324713.37336907565
2.32911	312911.95326083363
2.33104	319229.8562819189
2.33297	324995.2995795389
2.3349	325488.79899478663
2.33683	309972.59745754465
2.33876	293332.7523705762
2.34068	276211.28978447895
2.34261	259197.88729816832
2.34453	249098.3906594682
2.34646	246722.43735207166
2.34838	270208.8661427954
2.3503	303583.58408494684
2.35223	353898.985357668
2.35415	405307.0779176878
2.35607	457739.8125782768
2.35799	515627.7892775033
2.35991	569604.7143859412
2.36183	618861.4048158325
2.36375	594418.083317036
2.36566	536223.8235530998
2.36758	407485.2179719417
2.3695	300326.402091212
2.37142	207000.78473641616
2.37334	222778.38002107458
2.37526	255638.84597423428
2.37718	316018.7280272579
2.3791	358878.2431566113
2.38101	392673.6611165818
2.38293	404389.4113039583
2.38485	423012.09048487956
2.38677	448687.1076907837
2.3887	476023.3832656249
2.39062	498368.0014431392
2.39254	505052.1490244118
2.39446	507611.28125661385
2.39639	507525.72960764397
2.39831	526883.507796089
2.40024	541042.7279926101
2.40216	544436.261468081
2.40409	544382.7556095812
2.40602	547092.3118764856
2.40795	599396.1756945676
2.40989	659303.0284463542
2.41182	727872.0991654614
2.41376	746081.7894343297
2.4157	748233.2917285252
2.41764	730621.8518544137
2.41958	730188.6694967241
2.42152	743722.8554000533
2.42347	763432.51176429
2.42542	793737.5652892039
2.42737	848987.2502228026
