#wavelength	surface flux
0.8	77942382.58180739
0.8002000000000001	78656928.1735521
0.8004000500000003	79517959.24833092
0.8006001500125003	80380683.4240827
0.8008003000500035	81243623.28087847
0.8010005001250161	82106778.87263884
0.8012007502500472	82970150.2532959
0.8014010504376099	84175799.23817675
0.8016014007002193	85496329.87499437
0.8018018010503944	86817190.6444712
0.8020022515006572	88138381.62914099
0.8022027520635323	89459902.91155581
0.8024033027515483	90664791.5014958
0.8026039035772362	91755362.0606374
0.8028045545531306	92846205.26241884
0.8030052556917691	93937321.17500126
0.803206007005692	95028709.86656086
0.8034068085074435	95949695.85941151
0.8036076602095705	96392483.50818588
0.8038085621246229	96835381.85387208
0.8040095142651542	97278390.92414498
0.8042105166437206	97721510.7466853
0.8044115692728815	98173828.3014051
0.8046126721651998	99017104.76073691
0.8048138253332411	99860592.03918287
0.8050150287895745	100704290.18944922
0.805216282546772	101548199.26425293
0.8054175866174087	102392319.31632487
0.8056189410140631	103453091.50734563
0.8058203457493168	104575395.76328766
0.8060218008357541	105697980.59529224
0.8062233062859632	106820846.07350537
0.8064248621125346	107943992.26808728
0.806626468328063	109055526.80743398
0.8068281249451449	110157125.06159899
0.8070298319763813	111258998.7153289
0.8072315894343755	112361147.83747141
0.8074333973317341	113463572.49689488
0.8076352556810671	114586954.84902121
0.8078371644949874	115760403.28256044
0.8080391237861113	116934145.07820831
0.8082411335670578	118108180.30930439
0.8084431938504498	119282509.04920946
0.8086453046489125	120470001.09696615
0.8088474659750746	121897401.25244616
0.8090496778415686	123325158.25796692
0.809251940261029	124753272.20273806
0.8094542532460944	126181743.1759966
0.8096566168094059	127610571.26699683
0.8098590309636085	128947165.40026034
0.8100614957213493	130262421.96391058
0.8102640110952797	131578007.34170191
0.8104665770980536	132893921.6158382
0.8106691937423283	134210164.86854354
0.8108718610407639	135345761.43436489
0.8110745790060241	136343259.24381906
0.8112773476507757	137341006.42772645
0.8114801669876885	138339003.04842955
0.8116830370294355	139337249.16828725
0.8118859577886929	140345215.65760264
0.8120889292781401	141373105.42074338
0.8122919515104597	142401252.15632483
0.8124950244983374	143429655.92859024
0.8126981482544621	144458316.80179855
0.8129013227915257	145508307.23809475
0.8131045481222237	146799842.34925464
0.8133078242592543	148091700.34419245
0.8135111512153191	149383881.30362862
0.813714529003123	150676385.30830482
0.8139179576353739	151969212.43898243
0.8141214371247829	153200010.00089213
0.8143249674840641	154419024.0102496
0.814528548725935	155638342.77310866
0.8147321808631167	156857966.3656601
0.8149358639083326	158077894.86410928
0.8151395978743097	158977675.6779388
0.8153433827737784	159661170.17028624
0.8155472186194719	160344835.53625655
0.8157511054241268	161028671.81856823
0.815955043200483	161712679.05995095
0.8161590319612831	162085745.20637497
0.8163630717192736	161888829.62500936
0.8165671624872033	161691864.81474862
0.8167713042778252	161494850.76328513
0.8169754971038948	161297787.4583087
0.8171797409781707	160603311.44763255
0.8173840359134155	155938055.43934536
0.8175883819223938	151271633.11706147
0.8177927790178745	146604044.18919435
0.8179972272126291	141935288.36409402
0.8182017265194322	137265365.35004216
0.8184062769510622	136097886.63990322
0.8186108785203001	135469270.05768958
0.8188155312399301	134840496.32133123
0.8190202351227402	134211565.39153807
0.819224990181521	133582477.22901288
0.8194297964290664	136374369.5248363
0.8196346538781738	141229044.49228862
0.8198395625416434	146084933.12848088
0.8200445224322789	150942035.73683423
0.820249533562887	155800352.62083825
0.8204545959462778	158834104.04349852
0.8206597095952644	158930070.21831056
0.8208648745226633	159026060.38466638
0.8210700907412941	159122074.54856378
0.8212753582639793	159218112.71600205
0.8214806771035456	159396476.90082824
0.8216860472728215	160081966.31729367
0.8218914687846397	160767627.10611326
0.822096941651836	161453459.3101304
0.822302465887249	162139462.97219813
0.8225080415037209	162825638.13518178
0.8227136685140968	163867721.02785614
0.8229193469312254	164950447.9332042
0.8231250767679583	166033445.520279
0.8233308580371503	167116713.85674992
0.8235366907516598	168200253.0103058
0.8237425749243477	169593064.5192785
0.8239485105680789	171150000.44262823
0.824154497695721	172707325.59995782
0.824360536320145	174265040.08857706
0.8245666264542252	175823144.00581834
0.8247727681108388	176743293.94621506
0.8249789613028664	176749445.8836613
0.8251852060431922	176755599.35909188
0.825391502344703	176761754.37289134
0.8255978502202894	176767910.92544428
0.8258042496828445	176526095.74714693
0.8260107007452654	175079920.46610382
0.8262172034204517	173633383.64124194
0.8264237577213068	172186485.18217343
0.8266303636607373	170739224.99848953
0.8268370212516525	169291602.99976042
0.8270437305069654	169067013.16685185
0.8272504914395923	168937967.48214105
0.8274573040624523	168808889.53600904
0.8276641683884679	168679779.3203906
0.8278710844305652	168550636.82721812
0.8280780522016729	168496734.184598
0.8282850717147234	168477224.82037133
0.8284921429826521	168457710.5788036
0.8286992660183978	168438191.45867544
0.8289064408349024	168418667.4587673
0.8291136674451112	168352639.32396987
0.8293209458619727	168227961.4530317
0.8295282760984382	168103252.41262594
0.829735658167463	167978512.19495994
0.8299430920820048	167853740.79223967
0.8301505778550254	167821521.06394026
0.8303581154994891	168158818.61575392
0.8305657050283641	168496200.49195588
0.8307733464546212	168833666.71362662
0.8309810397912352	169171217.30185336
0.8311887850511829	169508852.27772644
0.8313965822474458	170225707.78425437
0.8316044313930077	170960340.21761125
0.8318123325008561	171695156.3090771
0.8320202855839813	172430156.1045655
0.8322282906553774	173165339.65000284
0.8324363477280413	173770083.54121596
0.8326444568149735	174322390.0782093
0.8328526179291771	174874834.6918363
0.8330608310836596	175427417.4166175
0.8332690962914304	175980138.28707922
0.8334774135655034	176245995.06546453
0.833685782918895	176191327.34494716
0.8338942043646247	176136645.9574997
0.834102677915716	176081950.89970535
0.834311203585195	176027242.1681466
0.8345197813860912	175994792.9936309
0.8347284113314379	176037309.49613068
0.8349370934342709	176079836.62775606
0.8351458277076294	176122374.39116427
0.8353546141645565	176164922.78901345
0.8355634528180977	176207481.82396203
0.8357723436813022	176646892.2384712
0.8359812867672226	177091312.47756582
0.8361902820889144	177535843.82172
0.8363993296594368	177980486.29871032
0.8366084294918518	178425239.93632007
0.8368175815992247	178509168.73857546
0.8370267859946247	178468808.44921842
0.8372360426911234	178428438.06978905
0.8374453517017962	178388057.59776485
0.8376547130397217	178347667.0306226
0.8378641267179816	178628968.1696016
0.8380735927496613	179229551.44985917
0.8382831111478488	179830284.87593648
0.8384926819256358	180431168.48536998
0.8387023050961173	181032202.31570634
0.8389119806723914	181426665.14500895
0.8391217086675596	181239445.4175171
0.8393314890947265	181052178.88509354
0.8395413219670003	180864865.53603685
0.8397512072974922	180677505.35864276
0.8399611450993165	180502961.77796888
0.8401711353855914	180967168.23397747
0.8403811781694378	181431490.74159992
0.8405912734639802	181895929.3298494
0.8408014212823464	182360484.02774614
0.8410116216376671	182825154.86431733
0.8412218745430766	182341788.73891908
0.8414321800117124	181582425.79922053
0.8416425380567154	180822873.01878667
0.8418529486912297	180063130.35015756
0.8420634119284025	179303197.7458619
0.8422739277813847	179399107.29859158
0.8424844962633302	180249238.36144617
0.842695117387396	181099581.95706537
0.8429057911667428	181950138.13858354
0.8431165176145345	182800906.95914745
0.8433272967439382	182349958.7323501
0.8435381285681244	178723130.10837987
0.8437490131002665	175095394.77725443
0.8439599503535415	171466752.51229846
0.84417094034113	167837203.08677366
0.8443819830762154	164315086.6151019
0.8445930785719846	162974615.04967052
0.8448042268416277	161633808.3663485
0.8450154278983382	160292666.48135585
0.8452266817553128	158951189.31089205
0.8454379884257517	157609376.77113545
0.8456493479228583	157546900.2022728
0.845860760259839	157792568.27283797
0.846072225449904	158038297.76042077
0.8462837435062666	158284088.68037552
0.8464953144421433	158529941.04806042
0.8467069382707537	158977212.94758588
0.8469186150053215	159581549.09561148
0.847130344659073	160186036.32767427
0.8473421272452377	160790674.68154445
0.8475539627770492	161395464.19500375
0.8477658512677435	162045259.76402462
0.8479777927305605	162790461.16670898
0.8481897871787432	163535848.8697438
0.848401834625538	164281422.91970482
0.8486139350841944	165027183.36317787
0.8488260885679657	165746821.53738302
0.8490382950901076	166145945.7934261
0.8492505546638802	166545169.8305334
0.8494628673025462	166944493.67364982
0.8496752330193721	167343917.3477276
0.8498876518276269	167743440.87772337
0.8501001237405839	167750454.37811926
0.8503126487715191	167679097.79841354
0.850525226933712	167607723.37956294
0.8507378582404455	167536331.11710766
0.8509505427050057	167464921.0065867
0.8511632803406821	167211127.60612276
0.8513760711607672	166832383.826851
0.8515889151785576	166453545.36163387
0.8518018124073523	166074612.18680072
0.8520147628604541	165695584.2786741
0.8522277665511693	165648445.06995556
0.8524408234928071	166215257.34985435
0.8526539336986805	166782211.33282328
0.8528670971821053	167349307.05428797
0.8530803139564007	167916544.54968238
0.8532935840348901	168461183.95957747
0.8535069074308987	168813909.49700418
0.8537202841577566	169166723.21581554
0.8539337142287962	169519625.13805664
0.8541471976573534	169872615.28577808
0.8543607344567677	170225693.6810365
0.8545743246403821	169251124.8834276
0.8547879682215422	168065452.87692195
0.8550016652135977	166879484.45241487
0.8552154156299011	165693219.53580156
0.8554292194838088	164506658.05295828
0.8556430767886797	163730623.6261686
0.855856987557877	163203836.4887436
0.8560709518047664	162676917.65453455
0.8562849695427177	162149867.09061676
0.8564990407851035	161622684.76405784
0.8567131655452999	160927394.29990155
0.8569273438366862	159956695.1708855
0.8571415756726455	158985753.367087
0.8573558610665638	158014568.8278372
0.8575702000318304	157043141.49245363
0.8577845925818384	156505289.59283948
0.857999038729984	158677092.1058677
0.8582135384896665	160849437.5695237
0.858428091874289	163022326.1195457
0.8586426988972576	165195757.89170465
0.8588573595719821	167369733.0218074
0.8590720739118751	167038369.92013583
0.8592868419303532	166411473.0346972
0.8595016636408359	165784419.42503724
0.8597165390567462	165157209.05197504
0.8599314681915105	164529841.8763194
0.8601464510585584	163327663.5234175
0.860361487671323	161820162.11613542
0.8605765780432408	160312283.83350194
0.8607917221877518	158804028.58129656
0.8610069201182988	157295396.26527855
0.8612221718483286	155570562.3022739
0.8614374773912907	153534156.92246953
0.8616528367606385	151497242.44132078
0.8618682499698288	149459818.73155043
0.8620837170323213	147421885.665853
0.8622992379615795	145645359.8751165
0.8625148127710699	145164515.64422315
0.8627304414742627	144683551.20227203
0.8629461240846313	144202466.51921034
0.8631618606156526	143721261.56497785
0.8633776510808066	143239936.3095069
0.8635934954935769	144659010.68135834
0.8638093938674504	146234228.88016072
0.8640253462159173	147809840.88351277
0.8642413525524714	149385846.7898656
0.8644574128906095	150962246.69769472
0.8646735272438323	150339846.35192627
0.8648896956256433	148694604.09487677
0.8651059180495498	147048950.5272629
0.8653221945290621	145402885.54625872
0.8655385250776946	143756409.04900697
0.8657549097089641	143815868.4885437
0.8659713484363913	146059842.762991
0.8661878412735006	148304378.031008
0.866404388233819	150549474.4328417
0.8666209893308775	152795132.1087748
0.8668376445782103	154627030.41953596
0.8670543539893549	154768333.2773681
0.8672711175778525	154909671.46091482
0.8674879353572469	155051044.97900724
0.8677048073410862	155192453.84047925
0.8679217335429217	155333898.0541667
0.8681387139763074	153997001.77564156
0.8683557486548015	152586329.32715094
0.8685728375919655	151175304.21054646
0.8687899808013633	149763926.33766592
0.8690071782965637	148352195.6203153
0.869224430091138	147744364.33089536
0.8694417361986609	147463630.3524946
0.8696590966327107	147182826.19059932
0.869876511406869	146901951.8276635
0.8700939805347206	146621007.24613714
0.8703115040298544	146751572.97426614
0.870529081905862	147352726.97349545
0.8707467141763385	147954031.26122433
0.8709644008548827	148555485.87502515
0.8711821419550964	149157090.85247904
0.8713999374905854	149831600.91060948
0.871617787474958	150757381.23801234
0.8718356919218269	151683393.0104979
0.8720536508448075	152609636.2859266
0.8722716642575187	153536111.12217364
0.8724897321735832	154462817.57713017
0.8727078546066265	156013396.448926
0.8729260315702784	157573850.58688498
0.873144263078171	159134694.83837676
0.8733625491439405	160695929.30093154
0.8735808897812266	162257554.0721026
0.8737992850036719	162629032.56428277
0.874017734824923	162578935.4079169
0.8742362392586293	162528825.727262
0.874454798318444	162478703.51918688
0.8746734120180236	162428568.7805598
0.8748920803710283	162413970.6010181
0.875110803391121	162435092.22280875
0.8753295810919689	162456219.12500486
0.875548413487242	162477351.3089265
0.8757673005906139	162498488.77589414
0.8759862424157616	163100073.32482144
0.8762052389763657	165381344.00384492
0.8764242902861098	167663185.00053656
0.8766433963586814	169945596.457478
0.8768625572077712	172228578.51728436
0.8770817728470732	174494941.05473804
0.8773010432902849	175419697.4428286
0.8775203685511077	176344685.0200175
0.8777397486432454	177269903.84409958
0.8779591835804065	178195353.97288877
0.8781786733763015	179121035.46420896
0.8783982180446457	178710166.49987543
0.878617817599157	177901527.19655037
0.8788374720535569	177092685.73339987
0.8790571814215703	176283642.05988377
0.8792769457169257	175474396.1254493
0.879496764953355	175198997.62399256
0.8797166391445934	175403676.0701991
0.8799365683043796	175608405.68601722
0.8801565524464557	175813186.48423925
0.8803765915845676	176018018.47766107
0.8805966857324639	176262346.04333135
0.880816834903897	176605807.10895342
0.881037039112623	176949354.03984204
0.8812572983724012	177292986.85746336
0.8814776126969944	177636705.58328924
0.8816979821001687	178019830.9953024
0.8819184065956938	179328669.41525465
0.8821388861973429	180637835.04481322
0.8823594209188923	181947327.9657779
0.882580010774122	183257148.25997227
0.8828006557768155	184567296.00924087
0.8830213559407598	186769036.572482
0.8832421112797452	189195489.8350205
0.8834629218075651	191622549.7108732
0.8836837875380171	194050216.3516956
0.8839047084849018	196478489.90917856
0.884125684662023	196694766.27662262
0.8843467160831886	195137976.98211196
0.8845678027622095	193580798.49027765
0.8847889447129001	192023230.70382008
0.8850101419490785	190465273.5254162
0.8852313944845657	188874307.30892786
0.885452702333187	187211543.15939042
0.8856740655087704	185548363.31881583
0.8858954840251476	183884767.68328154
0.8861169578961539	182220756.14883915
0.886338487135628	180518515.13282898
0.886560071757412	178312649.21222517
0.8867817117753515	176106231.82514122
0.8870034072032955	173899262.83370954
0.8872251580550963	171691742.10003257
0.8874469643446101	169483669.48617083
0.8876688260856963	169467900.68218374
0.8878907432922178	169905967.5526944
0.8881127159780409	170344143.9399224
0.8883347441570356	170782429.8712477
0.8885568278430749	171220825.37405542
0.8887789670500358	171446453.83153334
0.8890011617917983	171521129.61517093
0.8892234120822464	171595824.06775445
0.8894457179352669	171670537.19395107
0.8896680793647509	171745268.99842927
0.8898904963845921	172269625.00316775
0.8901129690086883	173651971.25885272
0.8903354972509405	175034663.10110128
0.8905580811252535	176417700.61631146
0.8907807206455347	177801083.8908986
0.8910034158256963	179172450.1820277
0.8912261666796527	180433673.15616792
0.8914489732213227	181695211.43605202
0.8916718354646282	182957065.10050735
0.8918947534234944	184219234.22837755
0.8921177271118502	185481718.89852896
0.8923407565436284	185985953.48951235
0.8925638417327644	186366571.4470453
0.8927869826931977	186747284.55906776
0.8930101794388711	187128092.84936818
0.8932334319837308	187508996.3417411
0.8934567403417267	187837221.82800248
0.8936801045268123	188132737.01916048
0.8939035245529441	188428326.0891161
0.8941270004340824	188723989.0563393
0.894350532184191	189019725.93930423
0.8945741198172371	189763472.72768795
0.8947977633471915	191250253.82953176
0.8950214627880284	192737406.62665096
0.8952452181537254	194224931.21196857
0.8954690294582639	195712827.6784334
0.8956928967156286	197165454.0757716
0.8959168199398075	198387139.46576643
0.8961407991447926	199609130.27710903
0.8963648343445789	200831426.58615443
0.896588925553165	202054028.46927643
0.8968130727845534	203276936.00286937
0.8970372760527496	204270373.1028527
0.8972615353717629	205235308.93716565
0.8974858507556059	206200486.00543725
0.8977102222182949	207165904.3679757
0.8979346497738496	208131564.0851053
0.8981591334362931	209178655.91930592
0.8983836732196523	210270410.81238645
0.8986082691379572	211362438.64418954
0.8988329212052417	212454739.48295057
0.8990576294355432	213547313.39692223
0.8992823938429022	214528500.56869397
0.8995072144413631	215343908.9770536
0.8997320912449734	216159521.23751503
0.8999570242677847	216975337.4010414
0.9001820135238516	217791357.5186087
0.9004070590272328	218722494.50658986
0.9006321607919896	220256276.72319767
0.9008573188321878	221790442.38536116
0.9010825331618959	223324991.5889395
0.9013078037951865	224859924.42981896
0.9015331307461353	226395241.00390783
0.9017585140288219	227184610.00444198
0.9019839536573292	227909892.88902304
0.9022094496457435	228635357.0943247
0.9024350020081551	229361002.66567853
0.9026606107586572	230086829.64842495
0.902886275911347	230932878.07389796
0.9031119974803249	231837005.64027622
0.9033377754796951	232741359.23854607
0.903563609923565	233645938.92521513
0.903789500826046	234550744.75680643
0.9040154482012526	235327475.64082766
0.904241452063303	235938197.7715815
0.9044675124263188	236549072.58286792
0.9046936293044254	237160100.11285704
0.9049198027117517	237771280.39972895
0.9051460326624297	238223873.70041117
0.9053723191705955	238000629.2322258
0.9055986622503881	237777328.95292363
0.9058250619159507	237553972.8485516
0.9060515181814298	237330560.90515336
0.9062780310609752	237107093.1087694
0.9065046005687405	237968750.05220369
0.906731226718883	238891161.42757043
0.9069579095255627	239813803.40577978
0.907184649002944	240736676.04448378
0.907411445165195	241659779.40134838
0.9076382980264862	242842406.91591978
0.907865207600993	244133014.14862728
0.9080921739028933	245423944.03314257
0.9083191969463691	246715196.65012875
0.9085462767456058	248006772.08026984
0.9087734133147922	249140762.39656588
0.9090006066681211	250092650.5042397
0.909227856819788	251044776.5839392
0.9094551637839932	251997140.6951599
0.9096825275749393	252949742.89740816
0.9099099482068329	253943307.26380172
0.9101374256938848	255081853.87174645
0.9103649600503083	256220685.11634263
0.9105925512903209	257359801.06874976
0.9108201994281437	258499201.80014616
0.9110479044780008	259638887.38172412
0.9112756664541204	261466289.4219955
0.911503485370734	263309883.4994743
0.9117313612420768	265153938.47547245
0.9119592940823873	266998454.46521404
0.912187283905908	268843431.5839537
0.9124153307268845	269857449.7113625
0.9126434345595664	270569964.39559466
0.9128715954182063	271282657.2084972
0.9130998133170609	271995528.1946033
0.9133280882703902	272708577.3984559
0.913556420292458	273899641.6049394
