#wavelength	surface flux
0.8	2830269.921484112
0.8002000000000001	2882520.9596670563
0.8004000500000003	2936187.071134862
0.8006001500125003	2989880.7608172367
0.8008003000500035	3043587.873922036
0.8010005001250161	3097308.4138051365
0.8012007502500472	3151042.3838231303
0.8014010504376099	3204909.7086686026
0.8016014007002193	3258830.6703287135
0.8018018010503944	3312765.112229239
0.8020022515006572	3366713.037740264
0.8022027520635323	3420674.45023262
0.8024033027515483	3477013.8049623515
0.8026039035772362	3535684.3152276794
0.8028045545531306	3594369.4931205767
0.8030052556917691	3653069.3423079755
0.803206007005692	3711783.8664576197
0.8034068085074435	3770666.7861304367
0.8036076602095705	3829995.3175296835
0.8038085621246229	3889338.6810617335
0.8040095142651542	3948696.880434703
0.8042105166437206	4008069.919357496
0.8044115692728815	4067485.9316797564
0.8046126721651998	4128126.7248778483
0.8048138253332411	4188782.678274191
0.8050150287895745	4249453.7956589395
0.805216282546772	4310140.080823017
0.8054175866174087	4370841.537558354
0.8056189410140631	4432825.641863438
0.8058203457493168	4495184.019035177
0.8060218008357541	4557557.985801129
0.8062233062859632	4619947.546058803
0.8064248621125346	4682352.703706499
0.806626468328063	4746753.284374432
0.8068281249451449	4812870.392546806
0.8070298319763813	4879004.029996304
0.8072315894343755	4945154.2008551145
0.8074333973317341	5011320.909256665
0.8076352556810671	5076663.110952222
0.8078371644949874	5139997.10430063
0.8080391237861113	5203346.931147391
0.8082411335670578	5266712.595450824
0.8084431938504498	5330094.1011704
0.8086453046489125	5393457.889816724
0.8088474659750746	5456212.646728082
0.8090496778415686	5518983.092328751
0.809251940261029	5581769.230540776
0.8094542532460944	5644571.065287407
0.8096566168094059	5707388.6004926525
0.8098590309636085	5774597.864356318
0.8100614957213493	5842848.17474882
0.8102640110952797	5911115.54771893
0.8104665770980536	5979399.987532308
0.8106691937423283	6047701.498455667
0.8108718610407639	6117693.21510693
0.8110745790060241	6188981.784649628
0.8112773476507757	6260288.176334775
0.8114801669876885	6331612.394617824
0.8116830370294355	6402954.443955402
0.8118859577886929	6473497.209823431
0.8120889292781401	6542360.419526642
0.8122919515104597	6611240.845032275
0.8124950244983374	6680138.490644286
0.8126981482544621	6749053.360667692
0.8129013227915257	6818662.460283676
0.8131045481222237	6896040.725697317
0.8133078242592543	6973438.33567732
0.8135111512153191	7050855.295059797
0.813714529003123	7128291.6086821295
0.8139179576353739	7205747.28138288
0.8141214371247829	7297274.834509303
0.8143249674840641	7391550.2888355395
0.814528548725935	7485849.312025301
0.8147321808631167	7580171.909970988
0.8149358639083326	7674518.088566131
0.8151395978743097	7762610.020686654
0.8153433827737784	7846482.408407343
0.8155472186194719	7930375.764224932
0.8157511054241268	8014290.093381459
0.815955043200483	8098225.401120333
0.8161590319612831	8178725.194158592
0.8163630717192736	8252911.499923278
0.8165671624872033	8327116.352264323
0.8167713042778252	8401339.755818525
0.8169754971038948	8475581.715223655
0.8171797409781707	8538378.58640529
0.8173840359134155	8509673.298728164
0.8175883819223938	8480960.834729154
0.8177927790178745	8452241.192614127
0.8179972272126291	8423514.370588563
0.8182017265194322	8394780.366857521
0.8184062769510622	8415056.58593444
0.8186108785203001	8442880.927403053
0.8188155312399301	8470712.224956999
0.8190202351227402	8498550.480335362
0.819224990181521	8526395.695277555
0.8194297964290664	8686849.06660699
0.8196346538781738	8927267.68640693
0.8198395625416434	9167746.410861727
0.8200445224322789	9408285.254997738
0.820249533562887	9648884.233844712
0.8204545959462778	9856574.216091577
0.8206597095952644	10011253.169841923
0.8208648745226633	10165970.793330826
0.8210700907412941	10320727.096225576
0.8212753582639793	10475522.088195894
0.8214806771035456	10621963.301432809
0.8216860472728215	10716733.238750847
0.8218914687846397	10811526.868553221
0.822096941651836	10906344.196763095
0.822302465887249	11001185.229304966
0.8225080415037209	11096049.972105023
0.8227136685140968	11187835.499750452
0.8229193469312254	11279291.726219794
0.8231250767679583	11370770.816745786
0.8233308580371503	11462272.777044358
0.8235366907516598	11553797.612833072
0.8237425749243477	11676078.088334693
0.8239485105680789	11814678.036226338
0.824154497695721	11953312.634104867
0.824360536320145	12091981.890632892
0.8245666264542252	12230685.814475045
0.8247727681108388	12360110.613938216
0.8249789613028664	12476228.654509751
0.8251852060431922	12592375.724591529
0.825391502344703	12708551.831440775
0.8255978502202894	12824756.982316839
0.8258042496828445	12940669.334838884
0.8260107007452654	13055047.579998696
0.8262172034204517	13169454.419719681
0.8264237577213068	13283889.861150626
0.8266303636607373	13398353.91144198
0.8268370212516525	13512846.57774585
0.8270437305069654	13614811.221353933
0.8272504914395923	13715820.13585628
0.8274573040624523	13816854.302587276
0.8276641683884679	13917913.727859868
0.8278710844305652	14018998.417988898
0.8280780522016729	14129865.330388943
0.8282850717147234	14245219.843796069
0.8284921429826521	14360603.19583143
0.8286992660183978	14476015.393704887
0.8289064408349024	14591456.444627734
0.8291136674451112	14706957.594549978
0.8293209458619727	14822527.010241332
0.8295282760984382	14938125.318286454
0.829735658167463	15053752.525908723
0.8299430920820048	15169408.64033275
0.8301505778550254	15286243.230830858
0.8303581154994891	15407695.268734733
0.8305657050283641	15529177.669648204
0.8307733464546212	15650690.44116181
0.8309810397912352	15772233.590868492
0.8311887850511829	15893807.12636236
0.8313965822474458	16034403.817342255
0.8316044313930077	16175917.212050866
0.8318123325008561	16317465.985108286
0.8320202855839813	16459050.145358901
0.8322282906553774	16600669.701649591
0.8324363477280413	16726873.030613674
0.8326444568149735	16846887.13779126
0.8328526179291771	16966931.248495504
0.8330608310836596	17087005.3702276
0.8332690962914304	17207109.510489974
0.8334774135655034	17319322.006522052
0.833685782918895	17422713.789849747
0.8338942043646247	17526131.421123214
0.834102677915716	17629574.90680457
0.834311203585195	17733044.25335726
0.8345197813860912	17842801.18505243
0.8347284113314379	17973663.083686303
0.8349370934342709	18104557.69779476
0.8351458277076294	18235485.035556592
0.8353546141645565	18366445.10515308
0.8355634528180977	18497437.914766908
0.8357723436813022	18610768.921173908
0.8359812867672226	18723909.777708676
0.8361902820889144	18837078.91945752
0.8363993296594368	18950276.35349184
0.8366084294918518	19063502.0868847
0.8368175815992247	19207470.606235523
0.8370267859946247	19362053.499937724
0.8372360426911234	19516675.0393633
0.8374453517017962	19671335.23417372
0.8376547130397217	19826034.09403282
0.8378641267179816	19968475.25927216
0.8380735927496613	20098750.839971203
0.8382831111478488	20229058.989565346
0.8384926819256358	20359399.716196816
0.8387023050961173	20489773.02801006
0.8389119806723914	20620676.87271967
0.8391217086675596	20753014.80804319
0.8393314890947265	20885385.82785044
0.8395413219670003	21017789.94041265
0.8397512072974922	21150227.154003095
0.8399611450993165	21282523.531238064
0.8401711353855914	21406214.903319698
0.8403811781694378	21529937.19824432
0.8405912734639802	21653690.423742704
0.8408014212823464	21777474.58754752
0.8410116216376671	21901289.69739327
0.8412218745430766	22025956.942178633
0.8414321800117124	22150894.285805006
0.8416425380567154	22275862.863767345
0.8418529486912297	22400862.68387421
0.8420634119284025	22525893.75393599
0.8422739277813847	22693018.11240432
0.8424844962633302	22897242.53311907
0.842695117387396	23101518.009938743
0.8429057911667428	23305844.555627625
0.8431165176145345	23510222.182953026
0.8433272967439382	23681542.667400956
0.8435381285681244	23772145.810314406
0.8437490131002665	23862771.604013566
0.8439599503535415	23953420.054161094
0.84417094034113	24044091.166421223
0.8443819830762154	24137203.134049907
0.8445930785719846	24279052.975406095
0.8448042268416277	24420938.279222544
0.8450154278983382	24562859.05436493
0.8452266817553128	24704815.309701093
0.8454379884257517	24846807.054101102
0.8456493479228583	25011691.66678822
0.845860760259839	25182121.830119014
0.846072225449904	25352594.600990638
0.8462837435062666	25523109.990055017
0.8464953144421433	25693668.00796676
0.8467069382707537	25840041.717952833
0.8469186150053215	25967567.859897703
0.847130344659073	26095125.883378096
0.8473421272452377	26222715.796364233
0.8475539627770492	26350337.606828745
0.8477658512677435	26459387.126659255
0.8479777927305605	26528960.34831942
0.8481897871787432	26598550.963284977
0.848401834625538	26668158.975904316
0.8486139350841944	26737784.390526768
0.8488260885679657	26789361.959263086
0.8490382950901076	26620743.410781853
0.8492505546638802	26452082.70766341
0.8494628673025462	26283379.83936925
0.8496752330193721	26114634.795357764
0.8498876518276269	25945847.565085504
0.8501001237405839	24732371.0805567
0.8503126487715191	23310061.32727193
0.850525226933712	21887395.996549632
0.8507378582404455	20464374.999494668
0.8509505427050057	19040998.24718961
0.8511632803406821	17902911.268289033
0.8513760711607672	16960154.709190786
0.8515889151785576	16017162.460951304
0.8518018124073523	15073934.46465055
0.8520147628604541	14130470.661351278
0.8522277665511693	13849245.19934791
0.8524408234928071	14793115.3993864
0.8526539336986805	15737221.566975156
0.8528670971821053	16681563.761105865
0.8530803139564007	17626142.040783998
0.8532935840348901	18679843.28762009
0.8535069074308987	20653412.817777343
0.8537202841577566	22627475.74031879
0.8539337142287962	24602032.1785911
0.8541471976573534	26577082.255971737
0.8543607344567677	28552626.09587208
0.8545743246403821	29251030.811106537
0.8547879682215422	29746707.40281646
0.8550016652135977	30242507.913674243
0.8552154156299011	30738432.374659773
0.8554292194838088	31234480.816760905
0.8556430767886797	31575594.240536217
0.855856987557877	31822645.194738556
0.8560709518047664	32069757.911679287
0.8562849695427177	32316932.406799342
0.8564990407851035	32564168.695543252
0.8567131655452999	32779068.958483744
0.8569273438366862	32940938.012838084
0.8571415756726455	33102847.53445604
0.8573558610665638	33264797.533454463
0.8575702000318304	33426788.019952457
0.8577845925818384	33588882.75994228
0.857999038729984	33751416.26626978
0.8582135384896665	33913990.40597383
0.858428091874289	34076605.189212814
0.8586426988972576	34239260.62614757
0.8588573595719821	34401956.72694161
0.8590720739118751	34396681.38786966
0.8592868419303532	34371595.59971673
0.8595016636408359	34346503.540116765
0.8597165390567462	34321405.2075019
0.8599314681915105	34296300.60030388
0.8601464510585584	33909728.9829819
0.860361487671323	33331199.88839749
0.8605765780432408	32752526.161539603
0.8607917221877518	32173707.766249523
0.8610069201182988	31594744.66636078
0.8612221718483286	30690711.689139377
0.8614374773912907	29318029.147173364
0.8616528367606385	27945003.43457223
0.8618682499698288	26571634.46554208
0.8620837170323213	25197922.1542699
0.8622992379615795	24057459.83797788
0.8625148127710699	24072676.7628404
0.8627304414742627	24087897.491934147
0.8629461240846313	24103122.026210163
0.8631618606156526	24118350.366619755
0.8633776510808066	24133582.51411444
0.8635934954935769	24572263.61101898
0.8638093938674504	25045764.942294132
0.8640253462159173	25519384.648902085
0.8642413525524714	25993122.76043668
0.8644574128906095	26466979.306499057
0.8646735272438323	27004821.11937119
0.8648896956256433	27572497.22560449
0.8651059180495498	28140315.25086438
0.8653221945290621	28708275.230630036
0.8655385250776946	29276377.200391434
0.8657549097089641	29752230.963219695
0.8659713484363913	30109923.88226717
0.8661878412735006	30467706.224544577
0.866404388233819	30825578.0124075
0.8666209893308775	31183539.26821723
0.8668376445782103	31505823.857471593
0.8670543539893549	31682209.175340466
0.8672711175778525	31858638.58953893
0.8674879353572469	32035112.11109075
0.8677048073410862	32211629.75102302
0.8679217335429217	32388191.520365383
0.8681387139763074	32602131.94105543
0.8683557486548015	32817980.53023443
0.8685728375919655	33033883.08156099
0.8687899808013633	33249839.60852491
0.8690071782965637	33465850.124620855
0.869224430091138	33501778.86869977
0.8694417361986609	33464419.575978793
0.8696590966327107	33427050.94343465
0.869876511406869	33389672.96873236
0.8700939805347206	33352285.649536416
0.8703115040298544	33366089.25927575
0.870529081905862	33438433.0468052
0.8707467141763385	33510794.92028151
0.8709644008548827	33583174.88422618
0.8711821419550964	33655572.9431618
0.8713999374905854	33741795.18432157
0.871617787474958	33875688.56264457
0.8718356919218269	34009615.41431227
0.8720536508448075	34143575.747692905
0.8722716642575187	34277569.5711568
0.8724897321735832	34411596.89307663
0.8727078546066265	34671984.78858557
0.8729260315702784	34934359.63015606
0.873144263078171	35196800.06543666
0.8733625491439405	35459306.110826105
0.8735808897812266	35721877.782727
0.8737992850036719	35859660.05787369
0.874017734824923	35953255.17650032
0.8742362392586293	36046873.69390657
0.874454798318444	36140515.615942165
0.8746734120180236	36234180.94845826
0.8748920803710283	36347547.291124985
0.875110803391121	36480716.08215028
0.8753295810919689	36613918.16537341
0.875548413487242	36747153.54911734
0.8757673005906139	36880422.24170722
0.8759862424157616	37114542.36291292
0.8762052389763657	37640442.97748877
0.8764242902861098	38166475.06721791
0.8766433963586814	38692638.664969616
0.8768625572077712	39218933.80362092
0.8770817728470732	39741083.763209574
0.8773010432902849	39929446.18922758
0.8775203685511077	40117855.70585236
0.8777397486432454	40306312.32485606
0.8779591835804065	40494816.058014736
0.8781786733763015	40683366.91710646
0.8783982180446457	40611839.043009296
0.878617817599157	40462910.70247479
0.8788374720535569	40313945.129855216
0.8790571814215703	40164942.31584252
0.8792769457169257	40015902.25112632
0.879496764953355	40113220.27922096
0.8797166391445934	40432088.24255171
0.8799365683043796	40751035.9228733
0.8801565524464557	41070063.34011498
0.8803765915845676	41389170.51421127
0.8805966857324639	41664026.65269086
0.880816834903897	41827605.79426417
0.881037039112623	41991225.83062293
0.8812572983724012	42154886.77199077
0.8814776126969944	42318588.62859402
0.8816979821001687	42476092.35806789
0.8819184065956938	42486767.11527283
0.8821388861973429	42497444.54116708
0.8823594209188923	42508124.63641779
0.882580010774122	42518807.401692316
0.8828006557768155	42529492.83765816
0.8830213559407598	42953288.484230645
0.8832421112797452	43481090.8191733
0.8834629218075651	44009025.10469937
0.8836837875380171	44537091.37379698
0.8839047084849018	45065289.65946195
0.884125684662023	45194509.31410345
0.8843467160831886	45003925.035461724
0.8845678027622095	44813293.11075034
0.8847889447129001	44622613.52805775
0.8850101419490785	44431886.27546951
0.8852313944845657	44612949.70550988
0.885452702333187	45607966.9749472
0.8856740655087704	46603232.99870174
0.8858954840251476	47598747.838961944
0.8861169578961539	48594511.55793176
0.886338487135628	49484348.781787574
0.886560071757412	48961488.74257566
0.8867817117753515	48438497.988353945
0.8870034072032955	47915376.486443445
0.8872251580550963	47392124.20415808
0.8874469643446101	46868741.10880182
0.8876688260856963	47038940.76598749
0.8878907432922178	47352755.892717846
0.8881127159780409	47666649.47322967
0.8883347441570356	47980621.52713701
0.8885568278430749	48294672.07405749
0.8887789670500358	48328456.802534334
0.8890011617917983	48163381.09730621
0.8892234120822464	47998264.1231517
0.8894457179352669	47833105.86975378
0.8896680793647509	47667906.32679239
0.8898904963845921	47546390.920949265
0.8901129690086883	47508274.42103814
0.8903354972509405	47470148.39200206
0.8905580811252535	47432012.83145868
0.8907807206455347	47393867.737025216
0.8910034158256963	47333147.61177285
0.8912261666796527	47070745.29709027
0.8914489732213227	46808277.38182895
0.8916718354646282	46545743.84958855
0.8918947534234944	46283144.68396535
0.8921177271118502	46020479.868550904
0.8923407565436284	44288052.09053578
0.8925638417327644	42315443.61358422
0.8927869826931977	40342341.98451277
0.8930101794388711	38368747.080034174
0.8932334319837308	36394658.77682978
0.8934567403417267	35058385.242642395
0.8936801045268123	34118411.10449743
0.8939035245529441	33178201.97281858
0.8941270004340824	32237757.788856436
0.894350532184191	31297078.49384854
0.8945741198172371	31619631.701839782
0.8947977633471915	34037575.97238496
0.8950214627880284	36456124.72899767
0.8952452181537254	38875278.1227981
0.8954690294582639	41295036.30494843
0.8956928967156286	43686699.369207494
0.8959168199398075	45892707.20024065
0.8961407991447926	48099266.533232115
0.8963648343445789	50306377.50605678
0.896588925553165	52514040.256623395
0.8968130727845534	54722254.92287794
0.8970372760527496	55217957.84601673
0.8972615353717629	55499445.91596849
0.8974858507556059	55781004.35793778
0.8977102222182949	56062633.18951749
0.8979346497738496	56344332.428305246
0.8981591334362931	56718639.72247843
0.8983836732196523	57143647.24774965
0.8986082691379572	57568761.02490191
0.8988329212052417	57993981.080498464
0.8990576294355432	58419307.44110928
0.8992823938429022	58735755.22484703
0.8995072144413631	58890235.41150656
0.8997320912449734	59044754.2182127
0.8999570242677847	59199311.654620476
0.9001820135238516	59353907.73038737
0.9004070590272328	59589039.71017716
0.9006321607919896	60246224.546391994
0.9008573188321878	60903573.67881656
0.9010825331618959	61561087.148523904
0.9013078037951865	62218764.99659879
0.9015331307461353	62876607.26413534
0.9017585140288219	63647832.62716116
0.9019839536573292	64429002.61101595
0.9022094496457435	65210367.887366146
0.9024350020081551	65991928.50503632
0.9026606107586572	66773684.51286065
0.902886275911347	67091056.88365004
0.9031119974803249	67184549.1451873
0.9033377754796951	67278064.77978995
0.903563609923565	67371603.79330121
0.903789500826046	67465166.19156592
0.9040154482012526	67449387.04355791
0.904241452063303	67291931.22421172
0.9044675124263188	67134436.04091075
0.9046936293044254	66976901.48381396
0.9049198027117517	66819327.54307782
0.9051460326624297	66723895.75139549
0.9053723191705955	66893223.575559236
0.9055986622503881	67062593.731678866
0.9058250619159507	67232006.23033755
0.9060515181814298	67401461.08212098
0.9062780310609752	67570958.29761724
0.9065046005687405	67969188.38053747
0.906731226718883	68380275.98746242
0.9069579095255627	68791466.36628856
0.907184649002944	69202759.54270944
0.907411445165195	69614155.54242484
0.9076382980264862	70134257.43092152
0.907865207600993	70699591.98617001
0.9080921739028933	71265067.87505715
0.9083191969463691	71830685.13291642
0.9085462767456058	72396443.79509042
0.9087734133147922	72641541.20033978
0.9090006066681211	72516168.78895436
0.909227856819788	72390765.03446627
0.9094551637839932	72265329.92903937
0.9096825275749393	72139863.46483617
0.9099099482068329	72058394.05687042
0.9101374256938848	72133382.05980979
0.9103649600503083	72208388.80974984
0.9105925512903209	72283414.31137738
0.9108201994281437	72358458.56938039
0.9110479044780008	72433521.58844782
0.9112756664541204	73146217.59192531
0.911503485370734	73873686.64646004
0.9117313612420768	74601337.56825842
0.9119592940823873	75329170.40278703
0.912187283905908	76057185.1955245
0.9124153307268845	76145305.71742
0.9126434345595664	76001137.99525066
0.9128715954182063	75856934.23115093
0.9130998133170609	75712694.41611008
0.9133280882703902	75568418.5411155
0.913556420292458	75589085.35149124
0.9137848093975312	75779902.35389636
0.9140132555998806	75970767.06055206
0.9142417589137806	76161679.48338443
0.9144703193535092	76352639.63432264
0.9146989369333476	76550739.61560887
