#wavelength	surface flux
0.7	55230989.5441435
0.7001166666666666	55142786.52031837
0.7002333527777778	55766979.87243733
0.700350058336574	56391277.25678134
0.7004667833462966	57015678.690688595
0.7005835278101878	57640184.191503234
0.7007002917314895	58264793.776567
0.7008170751134447	58889507.46322817
0.7009338779592968	59514325.26883684
0.7010507002722901	60051039.3970521
0.7011675420556689	60480499.932666734
0.701284403312678	60910032.045036614
0.7014012840465635	61339635.7460925
0.7015181842605713	61769311.04776514
0.701635103957948	62199057.96198776
0.701752043141941	62628876.50069601
0.701869001815798	63058766.675827995
0.7019859799827672	63415317.948766135
0.7021029776460976	63720839.03731162
0.7022199948090387	64026411.046038926
0.7023370314748403	64332033.983434215
0.7024540876467528	64637707.85798568
0.702571163328027	64943432.678182416
0.7026882585219152	65249208.45251665
0.7028053732316688	65555035.189479515
0.7029225074605406	65599045.247426026
0.7030396612117841	65541943.531106316
0.7031568344886527	65484832.297833875
0.7032740272944008	65427711.54602259
0.7033912396322832	65370581.274085976
0.7035084715055552	65313441.48043743
0.7036257229174727	65256292.163489915
0.7037429938712924	65199133.3216562
0.7038602843702709	65513066.23314732
0.7039775944176659	65889992.95950218
0.7040949240167356	66266982.50697826
0.7042122731707383	66644034.88604538
0.7043296418829335	67021150.107175894
0.7044470301565806	67398328.1808432
0.70456443799494	67775569.1175225
0.7046818654012724	68152872.92769146
0.7047993123788394	63592563.91679802
0.7049167789309024	59025828.65241955
0.7050342650607243	54458332.26548997
0.7051517707715678	49890074.62916471
0.7052692960666963	45321055.61656899
0.705386840949374	40751275.10080644
0.7055044054228656	36180732.95495048
0.7056219894904361	32242751.206565846
0.7057395931553511	32328807.99950834
0.705857216420877	32414879.135249723
0.7059748592902804	32500964.61618035
0.7060925217668288	32587064.444691215
0.70621020385379	32673178.623173486
0.7063279055544321	32759307.15401873
0.7064456268720246	32845450.039619245
0.7065633678098366	32959166.05051627
0.7066811283711383	33148798.366922453
0.7067989085592001	33338462.288714703
0.7069167083772933	33528157.821160465
0.7070345278286895	33717884.96952843
0.707152366916661	33907643.73908782
0.7072702256444803	34097434.13510858
0.7073881040154211	34287256.16286228
0.7075060020327569	34469178.930766895
0.7076239196997625	34639581.878399946
0.7077418570197124	34810013.2265241
0.7078598139958823	34980472.979872935
0.7079777906315483	35150961.143180825
0.7080957869299869	35321477.721182466
0.7082138028944751	35492022.71861369
0.7083318385282908	35662596.14021128
0.7084498938347124	35574590.37479126
0.708567968817018	35267317.12079963
0.7086860634784875	34959992.65459866
0.7088041778224007	34652616.96765307
0.7089223118520377	34345190.05142673
0.7090404655706796	34037711.897381194
0.709158638981608	33730182.49697629
0.709276832088105	33422601.841671266
0.7093950448934531	33301300.57577006
0.7095132774009353	33268842.19147255
0.7096315296138355	33236378.397444308
0.7097498015354378	33203909.192783736
0.7098680931690269	33171434.576589085
0.7099864045178884	33138954.547958363
0.7101047355853081	33106469.10598954
0.7102230863745722	33073978.249780416
0.7103414568889679	33185401.90223976
0.7104598471317828	33329546.122752704
0.7105782571063047	33473714.36730229
0.7106966868158224	33617906.63989263
0.710815136263625	33762122.94452837
0.7109336054530023	33906363.285214975
0.7110520943872445	34050627.665958315
0.7111706030696424	34194916.09076519
0.7112891315034873	34379026.03709647
0.7114076796920712	34565065.52049272
0.7115262476386865	34751136.010469526
0.7116448353466263	34937237.512194544
0.711763442819184	35123370.03083661
0.711882070059654	35309533.571565285
0.7120007170713306	35495728.13955063
0.7121193838575091	35651205.87598227
0.7122380704214853	35486017.17469022
0.7123567767665555	35320800.94194812
0.7124755028960166	35155557.173167154
0.7125942488131658	34990285.863758184
0.7127130145213015	34824987.00913052
0.7128318000237216	34659660.60469427
0.7129506053237256	34494306.64585704
0.7130694304246129	34344648.099036954
0.7131882753296837	34249937.654684216
0.7133071400422386	34155211.4252574
0.7134260245655789	34060469.40812574
0.7135449289030065	33965711.60065787
0.7136638530578235	33870938.00022213
0.7137827970333332	33776148.60418619
0.7139017608328388	33681343.40991759
0.7140207444596443	33681331.45468146
0.7141397479170543	33850449.414992064
0.7142587712083737	34019595.56162916
0.7143778143369084	34188769.89929082
0.7144968773059646	34357972.432675466
0.7146159601188489	34527203.166482285
0.7147350627788687	34696462.105411425
0.7148541852893318	34865749.254163645
0.7149733276535467	35029411.502157256
0.7150924898748222	35187400.55209446
0.715211671956468	35345415.933540024
0.7153308739017941	35503457.650882624
0.715450095714111	35661525.70851136
0.71556933739673	35819620.110816404
0.7156885989529628	35977740.862188466
0.7158078803861218	36135887.967019334
0.7159271816995193	36248365.33011251
0.7160465028964692	36334040.67988407
0.7161658439802853	36419730.30888059
0.7162852049542819	36505434.21948192
0.7164045858217744	36591152.414068416
0.716523986586078	36676884.89502063
0.7166434072505089	36762631.66471963
0.716762847818384	36848392.72554694
0.7168823082930204	36977665.132342316
0.7170017886777359	37119755.73226606
0.7171212889758488	37261870.01395637
0.7172408091906781	37404007.98136033
0.7173603493255433	37546169.638425566
0.7174799093837642	37688354.98910024
0.7175994893686615	37830564.037333414
0.7177190892835562	37972796.787074566
0.7178387091317702	38218427.22839363
0.7179583489166254	38474475.58577103
0.7180780086414448	38730566.61787486
0.7181976883095517	38986700.331817366
0.7183173879242699	39242876.73471222
0.718437107488924	39499095.83367428
0.7185568470068389	39755357.6358196
0.7186766064813399	40011961.85298677
0.7187963859157535	40276102.116062805
0.7189161853134061	40540286.40251601
0.719036004677625	40804514.71968365
0.7191558440117378	41068787.07490398
0.7192757033190732	41333103.47551722
0.7193955826029597	41597463.928863585
0.7195154818667269	41861868.44228573
0.7196354011137046	42079777.374524474
0.7197553403472235	42083445.76375588
0.7198752995706147	42087114.764385484
0.7199952787872098	42090784.3765152
0.720115278000341	42094454.60024694
0.7202352972133411	42098125.43568263
0.7203553364295432	42101796.88292423
0.7204753956522815	42105468.9420737
0.7205954748848902	42135648.19719917
0.7207155741307044	42224269.59312711
0.7208356933930594	42312905.759287536
0.7209558326752915	42401556.69814235
0.7210759919807375	42490222.41215375
0.7211961713127342	42578902.903784044
0.7213163706746197	42667598.17549642
0.7214365900697322	42756308.229753986
0.7215568295014103	42967728.097512275
0.721677088972994	43325579.04047476
0.7217973684878227	43683489.625260465
0.7219176680492374	44041459.86181074
0.7220379876605789	44399489.760066874
0.722158327325189	44757579.32997286
0.7222786870464099	45115728.58147364
0.7223990668275843	45473937.52451649
0.7225194666720555	45714682.7185798
0.7226398865831676	45872176.22530757
0.7227603265642646	46029695.980952755
0.722880786618692	46187241.98989088
0.7230012667497951	46344814.256497055
0.7231217669609201	46502412.78514768
0.7232422872554135	46660037.58021962
0.7233628276366229	46817688.646091
0.7234833881078956	47107214.191722766
0.7236039686725803	47446845.66663419
0.7237245693340255	47786533.74679088
0.7238451900955812	48126278.44162823
0.7239658309605971	48466079.760581
0.7240864919324239	48805937.71308737
0.7242071730144127	49145852.30858585
0.724327874209915	49485823.55651619
0.7244485955222832	49918836.59627841
0.7245693369548704	50367296.11053501
0.7246900985110294	50815830.368043326
0.7248108801941148	51264439.38126242
0.7249316820074803	51713123.16264889
0.7250525039544815	52161881.72466631
0.7251733460384739	52610715.07977747
0.7252942082628137	53059561.7661569
0.7254150906308574	53472863.10920001
0.7255359931459625	53886233.335800335
0.7256569158114868	54299672.45743856
0.7257778586307888	54713180.48559725
0.7258988216072273	55126757.43176053
0.7260198047441617	55540403.30741437
0.7261408080449525	55954118.12404819
0.72626183151296	56335095.84945603
0.7263828751515454	56498122.0881441
0.7265039389640706	56661175.49787191
0.726625022953898	56824256.08316812
0.7267461271243904	56987363.84856195
0.7268672514789111	57150498.79858325
0.7269883960208241	57313660.93776273
0.7271095607534942	57476850.27063219
0.7272307456802866	57697081.22473247
0.7273519508045666	58071358.60228516
0.7274731761297006	58445698.3594006
0.7275944216590555	58820100.50647554
0.7277156873959987	59194565.05390847
0.7278369733438982	59569092.0120999
0.727958279506122	59943681.39145003
0.7280796058860397	60318333.20236384
0.7282009524870207	60773942.605056405
0.7283223193124353	61349280.87769306
0.7284437063656539	61924715.040040635
0.7285651136500483	62500245.10808288
0.7286865411689898	63075871.097801946
0.7288079889258514	63651593.02518736
0.7289294569240056	64227410.90622601
0.7290509451668262	64803324.756912164
0.7291724536576875	65434728.88809989
0.7292939823999636	66112138.38966893
0.7294155313970303	66789660.79282292
0.7295371006522632	67467296.11637725
0.7296586901690385	68145044.37915164
0.7297802999507332	68822905.59996954
0.7299019300007252	69500879.79765931
0.7300235803223919	70178966.99104688
0.7301452509191123	70848111.46352108
0.7302669417942654	71513187.60925071
0.7303886529512311	72178374.60100484
0.7305103843933897	72843672.45725775
0.7306321361241218	73509081.19648619
0.7307539081468093	74174600.83717236
0.7308757004648336	74840231.39779721
0.7309975130815778	75505972.89684965
0.7311193460004248	76200401.71752806
0.7312411992247582	76901415.60050555
0.7313630727579622	77602546.31913003
0.7314849666034219	78303793.89287499
0.7316068807645224	79005158.34121515
0.7317288152446498	79706639.68363035
0.7318507700471907	80408237.93960297
0.7319727451755319	81109953.128618
0.732094740633061	81943602.56302916
0.7322167564231665	82783325.39528508
0.7323387925492371	83623188.18134645
0.7324608490146619	84463190.94453856
0.732582925822831	85303333.70819144
0.7327050229771347	86143616.49563728
0.7328271404809642	86984039.33021522
0.7329492783377112	87820187.85664892
0.7330714365507675	88613077.72759782
0.7331936151235259	89406099.74685834
0.7333158140593796	90199253.93645452
0.7334380333617229	90992540.31841682
0.7335602730339499	91785958.91477649
0.7336825330794556	92579509.74756905
0.7338048135016354	93373192.83883221
0.7339271143038857	93978034.4057059
0.734049435489603	93949784.95293564
0.7341717770621846	93921530.79192322
0.7342941390250283	93893271.921884
0.7344165213815324	93865008.34203312
0.734538924135096	93836740.05158554
0.7346613472891185	93808467.04975626
0.734783790847	93780189.33576001
0.7349062548121412	93542160.84277108
0.7350287391879431	92933357.94045703
0.7351512439778078	92324453.57099134
0.7352737691851374	91715447.7174648
0.735396314813335	91106340.36296214
0.7355188808658037	90497131.49056807
0.7356414673459482	89887821.08336069
0.7357640742571725	89278409.1244192
0.7358867016028818	89318534.84046514
0.7360093493864824	90000244.58192642
0.7361320176113801	90682067.94167702
0.736254706280982	91364004.93865424
0.7363774153986956	92046055.59179853
0.7365001449679286	92728219.92005026
0.7366228949920899	93410497.94235726
0.7367456654745885	94092889.67766798
0.7368684564188344	94019889.47930688
0.7369912678282374	93519881.23390329
0.7371140997062088	93019789.65379193
0.7372369520561599	92519614.72508341
0.7373598248815024	92019356.4338879
0.7374827181856494	91519014.7663097
0.7376056319720137	91018589.7084535
0.7377285662440091	90518081.24642093
0.7378515210050496	90953090.91021842
0.7379744962585505	91669667.11780266
0.738097492007927	92386362.75475465
0.7382205082565949	93103177.84097901
0.738343545007971	93820112.39638427
0.7384666022654723	94537166.44088283
0.7385896800325165	95254339.99438772
0.7387127783125219	95971633.07681909
0.7388358971089073	95449430.93074933
0.7389590364250921	94802805.31201507
0.7390821962644963	94156071.92234385
0.7392053766305403	93509230.74377531
0.7393285775266454	92862281.7583432
0.7394517989562333	92215224.94807957
0.7395750409227259	91568060.29501526
0.7396983034295463	91064288.76611355
0.739821586480118	93752719.48005913
0.7399448900778645	96441598.26578504
0.7400682142262109	99130925.19798341
0.740191558928582	101820700.35133429
0.7403149241884034	104510923.80054194
0.7404383100091014	107201595.62032512
0.7405617163941028	109892715.88540989
0.7406851433468352	111878067.40009366
0.7408085908707264	110632975.63321729
0.7409320589692048	109387676.35104704
0.7410555476456997	108142169.51899542
0.7411790569036406	106896455.10247271
0.7413025867464579	105650533.06688021
0.7414261371775823	104404403.37761478
0.7415497082004452	103158066.00006875
0.7416732998184786	102493814.65946965
0.741796912035115	103078587.37018524
0.7419205448537874	103663457.54301915
0.7420441982779297	104248425.19421518
0.742167872310976	104833490.34002028
0.7422915669563612	105418652.996683
0.7424152822175206	106003913.18045501
0.7425390180978901	106589270.90759061
0.7426627746009065	106358378.54420081
0.7427865517300065	105132261.4559901
0.7429103494886282	103905940.01493008
0.7430341678802096	102679414.18696417
0.7431580069081896	101452683.938027
0.7432818665760077	100225749.2340466
0.7434057468871037	98998610.04094991
0.7435296478449182	97771266.32465506
0.7436535694528923	96779584.78984818
0.7437775117144678	95949195.99223964
0.7439014746330868	95118668.79649943
0.7440254582121922	94288003.1795592
0.7441494624552276	93457199.11834915
0.7442734873656368	92626256.58979575
0.7443975329468645	91795175.57082024
0.7445215992023557	90963956.03834169
0.7446456861355559	90539361.403832
0.7447697937499119	90264536.85247184
0.7448939220488703	89989666.49701986
0.7450180710358784	89714750.3298422
0.7451422407143843	89439788.34330332
0.7452664310878367	89164780.52976643
0.7453906421596846	88889726.88159423
0.7455148739333779	88614627.39114726
0.7456391264123667	89613060.86297794
0.7457633996001021	90815298.95001927
0.7458876935000356	92017737.41007727
0.7460120081156189	93220376.27654299
0.7461363434503048	94423215.58282034
0.7462606995075466	95626255.3623165
0.7463850762907978	96829495.64844076
0.7465094738035127	98030265.2176249
0.7466338920491467	98532448.94750433
0.746758331031155	99034716.37467256
0.7468827907529935	99537067.51307805
0.7470072712181189	100039502.3766733
0.7471317724299886	100542020.97941257
0.7472562943920602	101044623.33525194
0.7473808371077922	101547309.45815107
0.7475054005806435	102094751.74581553
0.7476299848140736	102917449.63833524
0.7477545898115426	103740284.64717056
0.7478792155765113	104563256.79517421
0.7480038621124406	105386366.10520189
0.7481285294227926	106209612.60011438
0.7482532175110298	107032996.30277689
0.7483779263806148	107856517.23605536
0.7485026560350116	108558516.8631015
0.7486274064776842	108931369.15437758
0.748752177712097	109304283.58770151
0.7488769697417158	109677260.1734318
0.749001782570006	110050298.92192593
0.7491266162004343	110423399.84354469
0.7492514706364677	110796562.94865057
0.7493763458815739	111169788.24760766
0.7495012419392209	111254914.95751266
0.7496261588128773	110925790.3748673
0.7497510965060128	110596610.93812461
0.7498760550220971	110267376.63814259
0.7500010343646007	109938087.46577717
0.7501260345369949	109608743.41188288
0.750251055542751	109279344.4673133
0.7503760973853414	108949890.62291944
0.7505011600682389	108816724.33525357
0.750626243594917	108847477.32249042
0.7507513479688495	108878235.43522513
0.7508764731935109	108908998.67431195
0.7510016192723765	108939767.04060529
0.7511267862089218	108970540.53495966
0.7512519740066232	109001319.15822977
0.7513771826689577	109032102.91127044
0.7515024121994025	109532420.71596575
0.7516276626014359	110251742.67602664
0.751752933878536	110971184.5230796
0.7518782260341824	111690746.27710733
0.7520035390718548	112410427.95809439
0.7521288729950334	113130229.58602789
0.7522542278071992	113850151.18089944
0.7523796035118337	114570192.76270382
0.7525050001124189	115397260.9505403
0.7526304176124378	116247716.7774778
0.7527558560153731	117098314.34705202
0.752881315324709	117949053.68288867
0.7530067955439299	118799934.80861494
0.7531322966765205	119650957.74786101
0.7532578187259665	120502122.52426389
0.7533833616957542	121353429.16146281
0.75350892558937	121954975.69341734
0.7536345104103016	122544871.3773455
0.7537601161620366	123134865.37722066
0.7538857428480638	123724957.70942973
0.7540113904718717	124315148.39036004
0.7541370590369503	124905437.43640374
0.7542627485467898	125495824.86395547
0.7543884590048808	126083468.36626065
0.7545141904147151	126642865.84061995
0.7546399427797842	127202356.54789074
0.7547657161035808	127761940.50361283
0.754891510389598	128321617.7233275
0.7550173256413296	128881388.22257902
0.7551431618622698	129441252.01691362
0.7552690190559135	130001209.12188049
0.7553948972257561	130441424.18977243
0.7555207963752938	130479470.42824177
0.755646716508023	130517523.00775084
0.755772657627441	130555581.92935652
0.7558986197370455	130593647.19411579
0.756024602840335	130631718.80308583
0.7561506069408084	130669796.75732405
0.7562766320419653	130707881.05788802
0.7564026781473054	130392500.85603476
0.75652874526033	129455053.69835201
0.7566548333845401	128517450.29947583
0.7567809425234375	127579690.63336685
0.7569070726805247	126641774.67398071
0.7570332238593047	125703702.39526813
0.7571593960632813	124765473.77117486
0.7572855892959586	123827088.77564421
0.7574118035608413	122986229.76244621
0.7575380388614347	122240796.4661724
0.7576642952012449	121495238.93101558
0.7577905725837782	120749557.13627064
0.7579168710125422	120003751.06122527
0.7580431904910444	119257820.68516709
0.7581695310227928	118511765.98738052
0.7582958926112967	117765586.94714338
0.7584222752600652	113027176.93127191
0.7585486789726085	105994664.28701702
0.7586751037524372	98960979.55731876
0.7588015496030628	91926122.54681848
0.7589280165279966	84890093.06016369
0.7590545045307512	77852890.90192783
0.7591810136148396	70814515.87666571
0.7593075437837755	63774967.788889036
0.7594340950410726	62855451.58089506
0.7595606673902461	63711767.5941487
0.7596872608348112	64568226.326738745
0.7598138753782836	65424827.80244995
0.75994051102418	66281572.04507457
0.7600671677760173	67138459.07840562
0.7601938456373134	67995488.92624289
0.7603205446115863	68852661.61238766
0.7604472647023548	69255768.49827887
0.7605740059131385	69613794.2818693
0.7607007682474575	69971879.73642403
0.7608275517088319	70330024.87188704
0.7609543563007835	70688229.69820677
0.7610811820268336	71046494.22533067
0.7612080288905045	71404818.46320839
0.7613348968953197	71749732.50846234
0.7614617860448022	71818331.16001983
0.7615886963424764	71886941.24468601
0.7617156277918667	71955562.76436622
0.7618425803964988	72024195.72096644
0.7619695541598982	72092840.11639275
0.7620965490855914	72161495.95255157
0.7622235651771058	72230163.23134983
0.7623506024379685	71944824.58512712
0.7624776608717082	70107741.60751177
0.7626047404818536	68270352.44940008
0.7627318412719337	66432657.0597652
0.762858963245479	64594655.38756422
0.7629861064060198	62756347.38175104
0.7631132707570876	60917732.991268314
0.7632404563022137	59078812.16505549
0.7633676630449308	57272921.46704834
0.7634948909887717	55537692.372210644
0.7636221401372697	53802174.07252606
0.7637494104939593	52066366.5197899
0.7638767020623748	50330269.66579745
0.7640040148460518	48593883.46232736
0.7641313488485262	46857207.861156754
0.7642587040733344	45120242.81405065
0.7643860805240132	42790736.21183162
0.7645134782041005	39754107.10999893
0.7646408971171346	36716971.903314665
0.764768337266654	33679330.5074304
0.7648957986561985	30641182.837979168
0.7650232812893079	27602528.81058343
0.7651507851695227	24563368.34084977
0.7652783103003843	21523701.344371524
0.7654058566854343	18823932.608825464
0.7655334243282153	16355708.732798018
