#wavelength	surface flux
0.6450077295303345	3285.3008095041278
0.6472567915916443	3808.6523535057695
0.6494921445846558	4451.248165860074
0.6517150402069092	5149.676006351007
0.6539263725280762	5920.587151984092
0.6561272740364075	6759.514798208565
0.6583186388015747	7658.744552872909
0.6605015397071838	8677.301319154321
0.6626768708229065	9769.647740453263
0.6648455858230591	10951.296322950897
0.6670085787773132	12099.926686425148
0.6691668033599854	11649.881557401093
0.6713210344314575	10400.190227574749
0.6734722256660461	15895.742908560282
0.6756211519241333	18066.6115467124
0.6777685880661011	19841.817495234878
0.6799154281616211	21614.98089541398
0.6820623278617859	23434.611945705597
0.6842101216316223	25283.698496894893
0.6863595843315125	27143.29842173838
0.688511312007904	28978.715383800823
0.6906660795211792	30506.637082935056
0.6928245425224304	31201.633516625025
0.6949873566627502	33425.65788171615
0.6971551775932312	35746.81207860481
0.6993286609649658	37244.760169433954
0.7015084028244019	38100.70070577126
0.7036949396133423	39559.32576105759
0.7058889269828796	40655.39795945634
0.7080909013748169	41455.256437316784
0.710301399230957	41919.00848968607
0.712520956993103	42086.21757494546
0.7147500514984131	41526.19844481215
0.7169892191886902	38904.2200697402
0.7192389369010925	37688.938632174446
0.7214996814727783	37587.55995307613
0.723771870136261	35686.85355475168
0.7260559797286987	33139.378885504644
0.7283523678779602	31193.162972284255
0.7306615710258484	28373.940245664046
0.7329838871955872	26424.645687390745
0.7353196740150452	23895.77351118394
0.7376693487167358	20817.132548717713
0.7400332689285278	18173.816397570467
0.7424117922782898	15298.777704739756
0.7448052167892456	12689.29096223505
0.7472138404846191	10235.127814262269
0.7496379613876343	8014.26481048618
0.7520779371261597	6073.133468370093
0.7545340061187744	4439.453248419955
0.7570064663887024	3097.6812076475376
0.7594954967498779	2017.2057672670169
0.7620013952255249	1148.30354303114
0.7645244002342224	443.58913883769566
0.7670646905899048	120.9492456382672
0.7696225643157959	137.6800131906467
0.7721980810165405	801.8884860756018
0.7747915983200073	1991.2955465319474
0.7774031162261963	3532.340254915605
0.7800329327583313	4607.198901273986
0.7826811671257019	8483.348403847373
0.7853479981422424	12743.077115231605
0.7880334854125977	17965.45343502641
0.7907378077507019	24105.330387620023
0.7934610247612	16825.190099417978
0.7962033748626709	29327.6604908232
0.7989648580551147	53577.759386785765
0.801745593547821	69081.82725649342
0.8045456409454346	86156.40737058873
0.8073651194572449	104958.75545072147
0.8102040886878967	120896.35355557429
0.8130625486373901	136973.5831695784
0.8159406185150146	169129.46486135147
0.8188382983207703	199877.7550916079
0.8217556476593018	238686.72322952875
0.8246926665306091	275523.81495636946
0.8276493549346924	322096.8555606625
0.8306257724761963	364286.6662728448
0.8336219191551208	417231.83516130823
0.8366377949714661	462900.6663073907
0.8396733403205872	529067.0158731599
0.8427285552024841	603219.2525574404
0.8458034992218018	688464.3204731815
0.8488980531692505	766363.9846859195
0.8520121574401855	552306.3311632978
0.8551458716392517	939810.5652979502
0.8582990765571594	1121794.973705956
0.8614717125892639	1233571.8011633279
0.8646637797355652	1361609.047923412
0.8678751587867737	1516570.572000562
0.8711057901382446	1688918.6085683124
0.8743556141853333	1852653.0548587465
0.87762451171875	2030124.5038159022
0.8809124231338501	2150857.014723032
0.8842192888259888	2250264.827224725
0.8875449895858765	2333167.2816373915
0.8908893465995789	2291112.553973488
0.894252359867096	1403370.9785701295
0.8976338505744934	2447265.959440721
0.9010337591171265	3183795.272345221
0.9044519662857056	3833751.364833676
0.9078882932662964	3916567.2121142405
0.9113426208496094	4152039.3453911
0.914814829826355	4409333.4908419885
0.9183048605918884	3996049.4447356276
0.9218124747276306	4953186.439520626
0.925337553024292	3980608.371221763
0.9288799166679382	916282.1188633232
0.9324395060539246	1492266.357204077
0.9360161423683167	1881011.450739167
0.9396095871925354	3266085.4822245543
0.943219780921936	1752680.6742936813
0.9468464851379395	1337850.5190322262
0.9504896402359009	1633179.1675758269
0.9541489481925964	2542221.026134549
0.9578243494033813	3091553.742377286
0.9615156054496765	1772464.6721306958
0.9652225375175476	2026212.6586211633
0.9689450263977051	2545153.1875425624
0.9726828336715698	5696060.637934063
0.9764357805252075	5373856.732920735
0.9802037477493286	5275031.272272433
0.983986496925354	6392119.630760632
0.9877838492393494	7332581.234838227
0.9915955662727356	8562916.262201283
0.9954215884208679	9275608.77531306
0.9992615580558777	9471320.02484787
1.0031154155731201	9778717.134985043
1.0069829225540161	10833395.073447337
1.0108637809753418	11688433.049387129
1.0147579908370972	12680968.655043337
1.018665075302124	12934168.149001166
1.022585153579712	12859634.131177725
1.0265177488327026	12610035.76223941
1.0304628610610962	12821588.448222086
1.0344202518463135	13524906.057161879
1.0383895635604858	13696478.109385941
1.0423706769943237	13562942.648134654
1.0463634729385376	13433601.05787204
1.0503677129745483	13165186.346622603
1.0543830394744873	13191139.644873973
1.058409333229065	13235857.492279874
1.0624464750289917	13266368.632717054
1.0664942264556885	12835248.478951372
1.0705522298812866	12184852.580270674
1.0746204853057861	12240086.107633984
1.0786986351013184	11991185.19571842
1.0827864408493042	11868879.743710605
1.086883783340454	11309518.01588387
1.0909905433654785	9532636.015073122
1.0951062440872192	7232086.021846615
1.0992310047149658	5769242.201212065
1.10336434841156	2436669.7848903807
1.1075061559677124	2762451.403570438
1.1116561889648438	1319579.948924656
1.115814208984375	1231151.8802451198
1.1199802160263062	979714.9208135038
1.124153733253479	300809.80862278416
1.1283347606658936	1310018.3912025795
1.1325229406356812	586499.7547507221
1.1367181539535522	1982868.247753716
1.1409201622009277	2229556.246998713
1.145128846168518	1432019.1504791544
1.1493438482284546	1980482.2567384667
1.1535650491714478	451371.35310891556
1.1577922105789185	836732.3157731859
1.1620250940322876	940263.9451914307
1.1662636995315552	1547125.487074944
1.170507550239563	1567767.9872070365
1.174756646156311	2897095.257344358
1.1790107488632202	4433264.648735269
1.1832695007324219	6551329.451983632
1.1875330209732056	7491384.350091884
1.191800832748413	8556641.974589316
1.1960728168487549	10890960.123202953
1.2003488540649414	11128241.810769835
1.2046287059783936	12592625.412027676
1.2089121341705322	12637933.575791415
1.2131990194320679	12914803.027862428
1.2174891233444214	14199771.046288984
1.2217823266983032	15171861.88425087
1.2260783910751343	16130313.424025647
1.230377197265625	16600285.046323385
1.2346785068511963	17399553.775197797
1.238982081413269	18496812.17765135
1.2432878017425537	18888919.59313613
1.2475954294204712	19904391.185561657
1.2519049644470215	19846894.747700516
1.256216049194336	21582429.423507355
1.2605286836624146	22225298.466092102
1.2648425102233887	22438221.241704494
1.2691574096679688	23270999.506670367
1.2734732627868652	23416181.43369549
1.2777899503707886	23743844.871679977
1.2821072340011597	21683770.060299534
1.2864248752593994	21492524.593917523
1.2907428741455078	18293188.968510218
1.2950609922409058	17919156.881733473
1.2993791103363037	17621543.368258193
1.303696870803833	18339691.262692858
1.3080145120620728	17961859.238218028
1.3123314380645752	16067027.195865994
1.3166478872299194	17775261.405693494
1.3209635019302368	16845829.618138805
1.3252781629562378	10913728.109117039
1.3295916318893433	6732048.232737454
1.3339040279388428	1520485.2793531402
1.3382149934768677	266893.59147300676
1.3425244092941284	67483.46350539663
1.3468321561813354	130296.17821532817
1.3511382341384888	11325.073244724235
1.3554422855377197	25381.314863081305
1.3597444295883179	21740.041407169672
1.3640443086624146	16621.2227546183
1.3683418035507202	11067.784034773522
1.3726370334625244	39657.19489329877
1.3769296407699585	32780.275046329945
1.381219506263733	3799.880704220619
1.3855066299438477	2607.392348951614
1.3897908926010132	10897.008743746717
1.3940720558166504	34813.95130676874
1.3983501195907593	36621.12604380705
1.4026249647140503	117567.25774843602
1.4068963527679443	174113.40923102497
1.4111642837524414	31651.68052293177
1.4154287576675415	22098.149843362808
1.419689416885376	31682.778347054733
1.4239463806152344	31769.986554829557
1.4281994104385376	114933.43784090674
1.4324485063552856	76532.44170234226
1.436693549156189	99302.20974548794
1.440934419631958	205358.6774779919
1.4451709985733032	280389.6317350463
1.449403166770935	480323.298428444
1.453631043434143	551745.0163894476
1.4578542709350586	862746.9647451441
1.4620729684829712	958458.6997119309
1.4662868976593018	839837.0294874838
1.4704961776733398	810871.2230101976
1.4747005701065063	860789.7482967284
1.4788999557495117	701028.0809982088
1.4830944538116455	768391.2765915061
1.4872838258743286	588981.489683602
1.491468071937561	456004.71069811826
1.4956470727920532	582966.0709723565
1.4998208284378052	933962.8816803793
1.5039892196655273	1890932.84011985
1.5081522464752197	1651612.00395152
1.5123097896575928	1758464.3490420752
1.5164618492126465	2799390.541462554
1.5206083059310913	3176548.219264286
1.5247491598129272	3570403.295043561
1.5288842916488647	5125493.568349681
1.5330137014389038	5263970.542556116
1.5371372699737549	5731865.7971153185
1.541254997253418	7803947.650744991
1.545366883277893	7843625.855437279
1.5494728088378906	8602891.463634193
1.5535727739334106	9851645.18557498
1.5576666593551636	10847362.365932891
1.561754584312439	12366686.374402303
1.5658363103866577	13714580.986526402
1.5699119567871094	13823047.15325965
1.5739814043045044	13155839.327997116
1.5780447721481323	12990084.567094514
1.582101821899414	13349438.915496819
1.5861525535583496	13989573.800072497
1.5901970863342285	13293471.978911228
1.5942351818084717	12420652.450419521
1.5982669591903687	12190725.905801516
1.6022924184799194	11292469.252753906
1.606311559677124	10305534.282863032
1.6103241443634033	9774408.627999738
1.6143304109573364	8925829.228629705
1.6183301210403442	7677585.351299972
1.6223233938217163	6306993.967918391
1.6263102293014526	5270669.970424882
1.6302905082702637	4440713.005067966
1.634264349937439	5166520.946773559
1.638231635093689	7820009.518881422
1.6421923637390137	7174594.743006117
1.646146535873413	3558124.2425234
1.6500942707061768	3583184.6102508637
1.6540353298187256	6095391.473035254
1.6579699516296387	5793523.609237577
1.661897897720337	5491496.536425024
1.6658192873001099	2848488.5705007
1.6697341203689575	1693126.9040321899
1.6736423969268799	3545112.920877943
1.677544116973877	2874619.3011863222
1.6814392805099487	2834619.196334065
1.6853278875350952	2692236.2161747897
1.6892099380493164	2161597.2793322066
1.6930854320526123	1650512.027283467
1.696954369544983	1033840.7526804175
1.7008168697357178	1289297.7286617116
1.7046726942062378	1230246.7211401956
1.708522081375122	1810653.5971792946
1.712364912033081	2285042.14837101
1.7162011861801147	2825220.805648824
1.7200311422348022	3174021.0259273155
1.723854422569275	2768034.9648595406
1.7276713848114014	2464881.5241777236
1.731481909751892	2265299.1269711843
1.7352858781814575	2211412.6153428755
1.7390835285186768	2217229.546526231
1.7428747415542603	2146132.8378533944
1.7466596364974976	1990010.5899700942
1.7504380941390991	1913780.4993410949
1.7542102336883545	1347709.9479684494
1.7579760551452637	1259307.9341887198
1.7617355585098267	1259299.5637996863
1.7654887437820435	1016732.0174541142
1.7692357301712036	763350.0508270325
1.7729763984680176	673317.5387238865
1.776710867881775	413482.9016361515
1.7804391384124756	371354.3119792188
1.7841613292694092	395289.4115513952
1.7878772020339966	233592.48272137903
1.7915871143341064	159341.3278364375
1.7952908277511597	176996.85860914228
1.7989884614944458	241523.78207142247
1.8026801347732544	82992.94387576854
1.806365728378296	37856.730851123386
1.8100452423095703	28271.320246721243
1.8137187957763672	17893.52460089261
1.817386507987976	16739.029774034887
1.8210482597351074	16134.87971536011
1.8247040510177612	14882.74736480376
1.828354001045227	9106.31372040902
1.8319982290267944	10366.102783129414
1.8356364965438843	9512.13451772655
1.8392690420150757	18107.311970128354
1.8428958654403687	89075.12815780504
1.8465168476104736	153997.52872256158
1.8501322269439697	77316.98490815639
1.8537418842315674	35521.081937986346
1.8573459386825562	82875.04862688358
1.860944390296936	75370.82961422637
1.864537239074707	34472.03587133594
1.8681244850158691	40192.63854442458
1.871706247329712	20510.909307213347
1.8752825260162354	49588.86903947806
1.8788533210754395	223268.48563960142
1.8824186325073242	251683.78555795472
1.8859784603118896	125545.6088948202
1.8895330429077148	107817.32194798779
1.8930821418762207	292807.91444067174
1.8966259956359863	369437.83252007456
1.9001644849777222	73704.04249170137
1.9036977291107178	28908.609591334745
1.9072256088256836	89813.60255021768
1.9107483625411987	64963.46435400423
1.9142658710479736	19417.903584300868
1.9177782535552979	14609.27377109555
1.9212853908538818	9260.453000612562
1.9247875213623047	12727.427074736486
1.9282845258712769	17206.664157819414
1.9317764043807983	21311.493328861645
1.9352631568908691	30652.046681440344
1.9387450218200684	42253.371255624115
1.942221760749817	45253.98819706557
1.9456936120986938	47784.61955597749
1.9491604566574097	92844.05878412689
1.952622413635254	91710.26033910931
1.956079363822937	43319.05836912906
1.959531545639038	57114.979747314304
1.962978720664978	121642.64720753883
1.966421127319336	194198.96958831852
1.9698586463928223	265546.97153963393
1.9732913970947266	263594.8762503748
1.9767193794250488	183597.3881379402
1.9801424741744995	181227.09375327334
1.9835609197616577	369822.69041696616
1.9869745969772339	442876.5118056886
1.990383505821228	347837.578692783
1.9937876462936401	248530.68881946703
1.9971871376037598	426063.2387953904
2.000581979751587	642058.9146722661
2.003972291946411	454741.0681101785
2.007357597351074	451472.55332991556
2.0107386112213135	842486.6935676772
2.0141148567199707	814610.6051614848
2.017486572265625	686369.046521829
2.0208535194396973	696570.299746429
2.0242159366607666	585281.2178820565
2.027573823928833	731219.7210670164
2.0309269428253174	884797.4484176048
2.034275770187378	820420.8676552853
2.0376198291778564	904356.4252111935
2.040959596633911	1100104.0872553491
2.044294595718384	1254360.4095594415
2.0476250648498535	1454328.5561593152
2.0509510040283203	1450843.3268982975
2.054272413253784	1331761.1763782797
2.057589530944824	1391549.3981732912
2.0609018802642822	1550336.5351330435
2.0642096996307373	1583422.5184967269
2.0675129890441895	1584915.9225068744
2.0708119869232178	1576772.5274199927
2.074106216430664	1565869.5436419188
2.0773961544036865	1561143.9743863756
2.080681324005127	1551051.716448852
2.0839622020721436	1550306.3449719762
2.087238311767578	1562110.7580971431
2.090510129928589	1561370.4125246927
2.0937774181365967	1545357.1422604185
2.0970399379730225	1532546.4667694594
2.1002981662750244	1510927.2131430584
2.1035518646240234	1486267.7435897237
2.1068007946014404	1459203.224599495
2.1100454330444336	1442602.3253852136
2.1132853031158447	1435714.546885729
2.116520881652832	1419372.661235651
2.1197516918182373	1397843.0652643363
2.1229779720306396	1382261.4059684826
2.12619948387146	1367976.7193360305
2.1294167041778564	1350867.0885850708
2.132629156112671	1337889.7958405896
2.1358368396759033	1303175.9717342223
2.139039993286133	1269501.3443059123
2.1422386169433594	1224798.119653786
2.145432472229004	1190013.0735538246
2.1486217975616455	1163182.1750838629
2.151806354522705	1088370.3626204731
2.1549863815307617	1076934.706232267
2.1581614017486572	1087977.9083826013
2.16133189201355	1047121.6862428795
2.1644976139068604	1013029.9132020804
2.167658567428589	980048.4483442786
2.1708147525787354	983419.2073817141
2.173966407775879	986966.9431711121
2.1771130561828613	942040.0896492578
2.1802549362182617	867556.3028611018
2.183391809463501	828932.0098767345
2.1865241527557373	784311.8283680212
2.1896514892578125	649234.7423868743
2.1927738189697266	453428.9294552964
2.1958916187286377	326210.97319081245
2.1990041732788086	259459.89499027768
2.2021119594573975	204770.78369891978
2.2052149772644043	194973.1182646189
2.208312749862671	230976.84482662074
2.2114057540893555	291042.6642176033
2.214493751525879	335521.0346155863
2.217576742172241	328629.7077458156
2.2206547260284424	276621.7928716573
2.2237277030944824	226819.37336138898
2.2267956733703613	207932.48854049164
2.2298583984375	207738.30282544487
2.2329163551330566	202276.97931523612
2.235969066619873	188901.18106661897
2.2390167713165283	170077.50194758934
2.2420592308044434	129694.06349700017
2.2450966835021973	76217.646894144
2.248128890991211	69160.36785899747
2.2511560916900635	100297.97151575166
2.254178285598755	106728.91281931664
2.257194995880127	100088.99804830691
2.260206699371338	103118.69529900585
2.2632133960723877	103777.16035144072
2.266214609146118	109272.43705388204
2.2692108154296875	128888.72094565564
2.2722020149230957	154073.10066271486
2.2751877307891846	163950.7920722459
2.278168201446533	150086.8652240021
2.2811436653137207	127107.6267309152
2.284113883972168	109810.16932955912
2.287078857421875	99488.70389620285
2.290038824081421	93085.78265466113
2.2929933071136475	93599.59989860714
2.295942783355713	93875.31618212911
2.298887014389038	83812.37758183206
2.301826238632202	80659.16163143175
2.304760217666626	119109.7281356791
2.3076889514923096	199336.70926039293
2.310612440109253	272233.6890558164
2.3135311603546143	266368.2693003113
2.3164443969726562	154874.81910936863
2.319352865219116	75066.0646637713
2.322256088256836	84124.4037473054
2.3251543045043945	94740.63322989349
2.328047275543213	81928.33419820483
2.330935478210449	83055.03838987698
2.3338186740875244	85816.75810023867
2.3366971015930176	78809.41188533526
2.3395702838897705	67862.66779311358
2.3424389362335205	57234.0036519883
2.3453025817871094	51688.48202710017
2.348161458969116	56633.01217533236
2.351015567779541	73593.57932843304
2.353865146636963	98939.88779419198
2.3567099571228027	130070.54294273072
2.3595502376556396	168343.63067191184
2.3623859882354736	199124.71387529484
2.3652172088623047	177258.40391120827
2.368043899536133	103828.91453023026
2.370866537094116	53529.92146862895
2.3736846446990967	49749.92001407601
2.3764986991882324	73120.16450797125
2.3793084621429443	97740.65369253329
2.3821144104003906	110197.1755130908
2.384916305541992	116289.54014503284
2.387714147567749	127907.83580175403
2.3905084133148193	141464.61910953396
2.393299102783203	145811.6764744424
2.3960859775543213	145173.98720807704
2.398869514465332	155129.2505097743
2.4016497135162354	160224.61168215997
2.4044265747070312	162416.70663121899
2.407200336456299	181868.55288075996
2.409970998764038	224599.33440441324
2.4127390384674072	265916.17361002037
2.415503978729248	270016.1994804804
2.418266534805298	257985.45310985783
2.4210267066955566	265620.7333715484
2.4237842559814453	277727.6799398545
2.426539897918701	311226.0063832513
2.429293394088745	370491.4135762184
2.4320452213287354	422108.60420863493
2.4347951412200928	420770.71103719703
2.4375438690185547	419652.4133000143
2.440291166305542	491782.59149533376
2.443037271499634	489514.61306366586
2.445782423019409	419993.25900699623
2.4485268592834473	364742.02941668907
2.451270818710327	377997.163013216
2.454014539718628	443149.6745247141
2.4567582607269287	498807.1646583766
2.4595019817352295	512970.6545182095
2.4622461795806885	510811.8070218693
2.4649908542633057	479817.0454384303
2.4677364826202393	426397.26790966647
2.4704833030700684	367851.3184245223
2.473231554031372	321664.5719698547
2.4759814739227295	292823.35244731157
2.4787333011627197	292118.2298581433
