#wavelength	surface flux
0.8	5428788.802893663
0.8002000000000001	5509267.1592558725
0.8004000500000003	5594729.207900186
0.8006001500125003	5680262.759027955
0.8008003000500035	5765817.693543512
0.8010005001250161	5851394.016792738
0.8012007502500472	5936991.734122653
0.8014010504376099	6020582.455320627
0.8016014007002193	6103514.623655541
0.8018018010503944	6186467.525032538
0.8020022515006572	6269441.164634916
0.8022027520635323	6352435.547647123
0.8024033027515483	6437367.403572299
0.8026039035772362	6524198.807591916
0.8028045545531306	6611051.919462544
0.8030052556917691	6697926.74461118
0.803206007005692	6784823.288466028
0.8034068085074435	6871914.937809625
0.8036076602095705	6959514.373429725
0.8038085621246229	7047135.708908661
0.8040095142651542	7134778.949721521
0.8042105166437206	7222444.101344555
0.8044115692728815	7310086.473489969
0.8046126721651998	7395828.312606139
0.8048138253332411	7481591.587182019
0.8050150287895745	7567376.302576623
0.805216282546772	7653182.4641500525
0.8054175866174087	7739010.07726383
0.8056189410140631	7828681.780515886
0.8058203457493168	7919457.954829579
0.8060218008357541	8010256.823186736
0.8062233062859632	8101078.391261026
0.8064248621125346	8191922.664727273
0.806626468328063	8286487.810226935
0.8068281249451449	8384252.869899658
0.8070298319763813	8482042.370837418
0.8072315894343755	8579856.31915034
0.8074333973317341	8677694.720950378
0.8076352556810671	8771068.732754463
0.8078371644949874	8853660.677528104
0.8080391237861113	8936273.270287957
0.8082411335670578	9018906.51619595
0.8084431938504498	9101560.420415506
0.8086453046489125	9183990.183300236
0.8088474659750746	9261882.726637173
0.8090496778415686	9339794.743110048
0.809251940261029	9417726.237586984
0.8094542532460944	9495677.214937607
0.8096566168094059	9573647.680032479
0.8098590309636085	9663140.752767542
0.8100614957213493	9755348.596768223
0.8102640110952797	9847579.492729915
0.8104665770980536	9939833.446415633
0.8106691937423283	10032110.463589808
0.8108718610407639	10125297.375724792
0.8110745790060241	10219185.693659332
0.8112773476507757	10313097.483673438
0.8114801669876885	10407032.751635022
0.8116830370294355	10500991.503413541
0.8118859577886929	10590820.091817195
0.8120889292781401	10672043.818326108
0.8122919515104597	10753287.850766642
0.8124950244983374	10834552.194215292
0.8126981482544621	10915836.853749791
0.8129013227915257	10999430.411779884
0.8131045481222237	11109249.428524625
0.8133078242592543	11219095.900023563
0.8135111512153191	11328969.833140345
0.813714529003123	11438871.234740421
0.8139179576353739	11548800.111690914
0.8141214371247829	11698959.004668243
0.8143249674840641	11856951.384873383
0.814528548725935	12014983.26317348
0.8147321808631167	12173054.649443364
0.8149358639083326	12331165.553559769
0.8151395978743097	12467302.307629026
0.8153433827737784	12588599.731569164
0.8155472186194719	12709927.47986524
0.8157511054241268	12831285.560098369
0.815955043200483	12952673.979851637
0.8161590319612831	13054666.614253918
0.8163630717192736	13121088.727037432
0.8165671624872033	13187527.445349067
0.8167713042778252	13253982.773340348
0.8169754971038948	13320454.71516366
0.8171797409781707	13344193.557482675
0.8173840359134155	13026654.099806264
0.8175883819223938	12709035.257265799
0.8177927790178745	12391337.01001452
0.8179972272126291	12073559.338201342
0.8182017265194322	11755702.221970532
0.8184062769510622	11697330.864272239
0.8186108785203001	11678888.1597671
0.8188155312399301	11660440.844585862
0.8190202351227402	11641988.917575808
0.819224990181521	11623532.377584012
0.8194297964290664	12035066.48173564
0.8196346538781738	12705882.34861212
0.8198395625416434	13376865.919455053
0.8200445224322789	14048017.236190978
0.820249533562887	14719336.340755891
0.8204545959462778	15241921.730001414
0.8206597095952644	15524984.74857638
0.8208648745226633	15808118.53290621
0.8210700907412941	16091323.100682076
0.8212753582639793	16374598.469599599
0.8214806771035456	16635386.115072018
0.8216860472728215	16757250.852869676
0.8218914687846397	16879146.05685179
0.822096941651836	17001071.734634962
0.822302465887249	17123027.893837508
0.8225080415037209	17245014.54207992
0.8227136685140968	17354901.119583156
0.8229193469312254	17463438.095803194
0.8231250767679583	17572002.206267327
0.8233308580371503	17680593.45775901
0.8235366907516598	17789211.857063655
0.8237425749243477	17992134.205350623
0.8239485105680789	18245075.642578375
0.824154497695721	18498080.31516527
0.824360536320145	18751148.238920365
0.8245666264542252	19004279.429656383
0.8247727681108388	19222827.87464529
0.8249789613028664	19391811.32304467
0.8251852060431922	19560837.01730629
0.825391502344703	19729904.967991404
0.8255978502202894	19899015.185664345
0.8258042496828445	20068993.98582074
0.8260107007452654	20243028.28875766
0.8262172034204517	20417106.100270133
0.8264237577213068	20591227.431235533
0.8266303636607373	20765392.29253375
0.8268370212516525	20939600.695047207
0.8270437305069654	21059560.84529947
0.8272504914395923	21175308.43392885
0.8274573040624523	21291084.959455416
0.8276641683884679	21406890.429113258
0.8278710844305652	21522724.850138657
0.8280780522016729	21672486.409234338
0.8282850717147234	21837780.203779552
0.8284921429826521	22003115.32177323
0.8286992660183978	22168491.77354654
0.8289064408349024	22333909.569432676
0.8291136674451112	22497794.968548503
0.8293209458619727	22659736.91758631
0.8295282760984382	22821719.35211117
0.829735658167463	22983742.282244842
0.8299430920820048	23145805.71811084
0.8301505778550254	23309313.843834028
0.8303581154994891	23478467.31620994
0.8305657050283641	23647663.076954115
0.8307733464546212	23816901.136638343
0.8309810397912352	23986181.505837772
0.8311887850511829	24155504.195129164
0.8313965822474458	24388444.401565693
0.8316044313930077	24624393.703754604
0.8318123325008561	24860401.993269287
0.8320202855839813	25096469.28485623
0.8322282906553774	25332595.593266092
0.8324363477280413	25522392.58590427
0.8326444568149735	25693561.24279983
0.8328526179291771	25864772.691859413
0.8330608310836596	26036026.943781517
0.8332690962914304	26207324.00926638
0.8334774135655034	26348370.12818947
0.833685782918895	26455612.37180183
0.8338942043646247	26562881.425975032
0.834102677915716	26670177.29741185
0.834311203585195	26777499.992816444
0.8345197813860912	26902454.75027514
0.8347284113314379	27086701.601620972
0.8349370934342709	27270994.51467954
0.8351458277076294	27455333.500966147
0.8353546141645565	27639718.57199963
0.8355634528180977	27824149.7393008
0.8357723436813022	27946855.784865253
0.8359812867672226	28068829.789650436
0.8361902820889144	28190834.287936755
0.8363993296594368	28312869.28734768
0.8366084294918518	28434934.795508504
0.8368175815992247	28653234.805809684
0.8370267859946247	28904723.031936362
0.8372360426911234	29156274.130119495
0.8374453517017962	29407888.11607715
0.8376547130397217	29659565.005531263
0.8378641267179816	29875611.968107183
0.8380735927496613	30056296.360706307
0.8382831111478488	30237025.924403474
0.8384926819256358	30417800.67049147
0.8387023050961173	30598620.61026614
0.8389119806723914	30775128.8489369
0.8391217086675596	30939419.457269948
0.8393314890947265	31103751.138254948
0.8395413219670003	31268123.902160216
0.8397512072974922	31432537.75925657
0.8399611450993165	31596144.704788778
0.8401711353855914	31717680.428818993
0.8403811781694378	31839246.536780186
0.8405912734639802	31960843.0362684
0.8408014212823464	32082469.93488154
0.8410116216376671	32204127.240219317
0.8412218745430766	32346794.829297647
0.8414321800117124	32495602.417687453
0.8416425380567154	32644447.20797443
0.8418529486912297	32793329.20945901
0.8420634119284025	32942248.43144384
0.8422739277813847	33242106.984590493
0.8424844962633302	33674991.10923509
0.842695117387396	34107983.4549103
0.8429057911667428	34541084.04867194
0.8431165176145345	34974292.91758223
0.8433272967439382	35270624.31081573
0.8435381285681244	35232883.48843716
0.8437490131002665	35195133.230853006
0.8439599503535415	35157373.53570448
0.84417094034113	35119604.400632136
0.8443819830762154	35091553.22737023
0.8445930785719846	35259454.42836208
0.8448042268416277	35427397.60465409
0.8450154278983382	35595382.76674015
0.8452266817553128	35763409.92511672
0.8454379884257517	35931479.0902829
0.8456493479228583	36240372.296727955
0.845860760259839	36583244.729831964
0.846072225449904	36926202.881044246
0.8462837435062666	37269246.77179441
0.8464953144421433	37612376.42351745
0.8467069382707537	37883378.29028855
0.8469186150053215	38098159.649573505
0.847130344659073	38312994.70419834
0.8473421272452377	38527883.46758662
0.8475539627770492	38742825.95316596
0.8477658512677435	38924675.70824654
0.8479777927305605	39036188.769756
0.8481897871787432	39147729.7095308
0.848401834625538	39259298.534540616
0.8486139350841944	39370895.251756616
0.8488260885679657	39452308.0781148
0.8490382950901076	39165470.26236068
0.8492505546638802	38878560.73715247
0.8494628673025462	38591579.48456306
0.8496752330193721	38304526.48666008
0.8498876518276269	38017401.72550801
0.8501001237405839	36092058.547593206
0.8503126487715191	33839231.194918126
0.850525226933712	31585840.635406137
0.8507378582404455	29331886.728254292
0.8509505427050057	27077369.332624346
0.8511632803406821	25314602.409923736
0.8513760711607672	23888539.804582853
0.8515889151785576	22462120.683588423
0.8518018124073523	21035344.957814932
0.8520147628604541	19608212.538110845
0.8522277665511693	19149064.311030786
0.8524408234928071	20480630.88135156
0.8526539336986805	21812530.343315274
0.8528670971821053	23144762.78014456
0.8530803139564007	24477328.275081486
0.8532935840348901	25976320.024547514
0.8535069074308987	28878427.736263447
0.8537202841577566	31781260.974909745
0.8539337142287962	34684819.92186603
0.8541471976573534	37589104.758557245
0.8543607344567677	40494115.66645815
0.8545743246403821	41337804.79570894
0.8547879682215422	41854228.05182763
0.8550016652135977	42370780.41376028
0.8552154156299011	42887461.91378345
0.8554292194838088	43404272.584181994
0.8556430767886797	43713559.72263765
0.855856987557877	43896842.92685637
0.8560709518047664	44080171.95187603
0.8562849695427177	44263546.80915201
0.8564990407851035	44446967.51014236
0.8567131655452999	44553911.13738353
0.8569273438366862	44535496.12770007
0.8571415756726455	44517076.51426418
0.8573558610665638	44498652.29592493
0.8575702000318304	44480223.471531115
0.8577845925818384	44534488.51168165
0.857999038729984	45042868.55498981
0.8582135384896665	45551375.693308674
0.858428091874289	46060009.95841215
0.8586426988972576	46568771.38208176
0.8588573595719821	47077659.996107474
0.8590720739118751	46943676.44885077
0.8592868419303532	46733847.857124686
0.8595016636408359	46523966.80825067
0.8597165390567462	46314033.289114505
0.8599314681915105	46104047.2865985
0.8601464510585584	45096020.963099055
0.860361487671323	43664176.26626456
0.8605765780432408	42231973.60825627
0.8607917221877518	40799412.89958231
0.8610069201182988	39366494.05073156
0.8612221718483286	37012871.187582046
0.8614374773912907	33331856.9197445
0.8616528367606385	29649922.398340996
0.8618682499698288	25967067.39330481
0.8620837170323213	22283291.674517974
0.8622992379615795	19208106.605942752
0.8625148127710699	19148392.10528987
0.8627304414742627	19088662.676011816
0.8629461240846313	19028918.314376436
0.8631618606156526	18969159.01665064
0.8633776510808066	18909384.77910042
0.8635934954935769	19913314.285507016
0.8638093938674504	21004689.71898563
0.8640253462159173	22096337.996322576
0.8642413525524714	23188259.185728833
0.8644574128906095	24280453.355432212
0.8646735272438323	24963663.683866348
0.8648896956256433	25456729.021149848
0.8651059180495498	25949917.62476769
0.8653221945290621	26443229.52553597
0.8655385250776946	26936664.75428013
0.8657549097089641	27631327.128955964
0.8659713484363913	28583620.224459533
0.8661878412735006	29536151.39323742
0.866404388233819	30488920.69480737
0.8666209893308775	31441928.18870227
0.8668376445782103	32190048.550117653
0.8670543539893549	32101135.118132222
0.8672711175778525	32012199.457788732
0.8674879353572469	31923241.56353026
0.8677048073410862	31834261.429798186
0.8679217335429217	31745259.051032625
0.8681387139763074	32083257.524766542
0.8683557486548015	32442553.917943355
0.8685728375919655	32801940.135218903
0.8687899808013633	33161416.19904799
0.8690071782965637	33520982.1318935
0.869224430091138	33337942.48703037
0.8694417361986609	32934034.981887236
0.8696590966327107	32530026.49986791
0.869876511406869	32125917.015728053
0.8700939805347206	31721706.50421736
0.8703115040298544	31473291.054658536
0.870529081905862	31403047.859268356
0.8707467141763385	31332787.10307935
0.8709644008548827	31262508.781701304
0.8711821419550964	31192212.890742954
0.8713999374905854	31135896.832633372
0.871617787474958	31127876.60300607
0.8718356919218269	31119854.36832135
0.8720536508448075	31111830.12807796
0.8722716642575187	31103803.881774515
0.8724897321735832	31095775.628909487
0.8727078546066265	31611890.674184665
0.8729260315702784	32136108.717714388
0.873144263078171	32660457.815754432
0.8733625491439405	33184938.00106904
0.8735808897812266	33709549.306430176
0.8737992850036719	33711464.417997286
0.874017734824923	33528203.158899903
0.8742362392586293	33344896.084487826
0.874454798318444	33161543.18330715
0.8746734120180236	32978144.443901196
0.8748920803710283	32874377.458856285
0.875110803391121	32850652.9319132
0.8753295810919689	32826922.473838367
0.875548413487242	32803186.083149016
0.8757673005906139	32779443.758361988
0.8759862424157616	33168600.46959862
0.8762052389763657	34752614.49145788
0.8764242902861098	36337024.5168215
0.8766433963586814	37921830.64469189
0.8768625572077712	39507032.97409474
0.8770817728470732	41073641.66421538
0.8773010432902849	41157955.417985275
0.8775203685511077	41242290.25019374
0.8777397486432454	41326646.16611014
0.8779591835804065	41411023.17100564
0.8781786733763015	41495421.27015224
0.8783982180446457	40512889.35130924
0.878617817599157	39212713.784870096
0.8788374720535569	37912213.17453996
0.8790571814215703	36611387.439057566
0.8792769457169257	35310236.49714128
0.879496764953355	34835433.32632873
0.8797166391445934	35103744.83148269
0.8799365683043796	35372123.414512955
0.8801565524464557	35640569.09218898
0.8803765915845676	35909081.88128466
0.8805966857324639	36167968.05257485
0.880816834903897	36402571.16151517
0.881037039112623	36637232.92123281
0.8812572983724012	36871953.34639037
0.8814776126969944	37106732.451654315
0.8816979821001687	37339890.40546148
0.8819184065956938	37533562.785682835
0.8821388861973429	37727283.58399943
0.8823594209188923	37921052.81251543
0.882580010774122	38114870.483338475
0.8828006557768155	38308736.60857932
0.8830213559407598	39130967.02893084
0.8832421112797452	40111430.81563144
0.8834629218075651	41092139.718278125
0.8836837875380171	42073093.79815076
0.8839047084849018	43054293.116543524
0.884125684662023	42987202.9779165
0.8843467160831886	42079829.37243927
0.8845678027622095	41172228.92356067
0.8847889447129001	40264401.57456968
0.8850101419490785	39356347.268741615
0.8852313944845657	39852128.36113789
0.885452702333187	43421353.80904701
0.8856740655087704	46991471.5633176
0.8858954840251476	50562481.84702579
0.8861169578961539	54134384.883303255
0.886338487135628	57288135.54077747
0.886560071757412	54866267.62416698
0.8867817117753515	52443794.2405774
0.8870034072032955	50020715.23864083
0.8872251580550963	47597030.466956615
0.8874469643446101	45172739.77407798
0.8876688260856963	44857104.27445645
0.8878907432922178	44977928.5167056
0.8881127159780409	45098782.96501523
0.8883347441570356	45219667.6269371
0.8885568278430749	45340582.51002431
0.8887789670500358	44773554.76984206
0.8890011617917983	43718355.463309266
0.8892234120822464	42662892.35694936
0.8894457179352669	41607165.384813726
0.8896680793647509	40551174.48093422
0.8898904963845921	39791857.4097524
0.8901129690086883	39598915.70601268
0.8903354972509405	39405925.766847074
0.8905580811252535	39212887.58019653
0.8907807206455347	39019801.133999586
0.8910034158256963	38864947.36014911
0.8912261666796527	39052170.28581709
0.8914489732213227	39239440.01721654
0.8916718354646282	39426756.566049024
0.8918947534234944	39614119.944018535
0.8921177271118502	39801530.162832424
0.8923407565436284	39058634.8952764
0.8925638417327644	38163788.13995419
0.8927869826931977	37268717.672942854
0.8930101794388711	36373423.438314825
0.8932334319837308	35477905.38012828
0.8934567403417267	34938975.374514826
0.8936801045268123	34621627.25006063
0.8939035245529441	34304199.78857553
0.8941270004340824	33986692.97022494
0.894350532184191	33669106.77516984
0.8945741198172371	34764532.31318986
0.8947977633471915	38203674.787308484
0.8950214627880284	41643677.0470455
0.8952452181537254	45084539.3073454
0.8954690294582639	48526261.783212446
0.8956928967156286	51827711.528689995
0.8959168199398075	54214082.6972915
0.8961407991447926	56601050.45868577
0.8963648343445789	58988614.96202032
0.896588925553165	61376776.356479354
0.8968130727845534	63765534.79128731
0.8970372760527496	63560697.02174465
0.8972615353717629	63031222.206912905
0.8974858507556059	62501615.02337739
0.8977102222182949	61971875.438046135
0.8979346497738496	61442003.41781825
0.8981591334362931	61235302.0361359
0.8983836732196523	61205355.846077755
0.8986082691379572	61175402.16947211
0.8988329212052417	61145441.00444732
0.8990576294355432	61115472.34913125
0.8992823938429022	60962569.531813025
0.8995072144413631	60626852.1523275
0.8997320912449734	60291050.843497224
0.8999570242677847	59955165.58433983
0.9001820135238516	59619196.353867605
0.9004070590272328	59659277.62078967
0.9006321607919896	61671194.22629078
0.9008573188321878	63683613.8109453
0.9010825331618959	65696536.50049503
0.9013078037951865	67709962.42071746
0.9015331307461353	69723891.6974189
0.9017585140288219	72067192.19210373
0.9019839536573292	74439404.74240914
0.9022094496457435	76812210.34585042
0.9024350020081551	79185609.15069525
0.9026606107586572	81559601.30524053
0.902886275911347	82435237.35748377
0.9031119974803249	82588494.27483219
0.9033377754796951	82741789.50640994
0.903563609923565	82895123.06179553
0.903789500826046	83048494.95057006
0.9040154482012526	82370245.07900845
0.904241452063303	80614482.59729633
0.9044675124263188	78858281.17496417
0.9046936293044254	77101640.70227672
0.9049198027117517	75344561.06947021
0.9051460326624297	73831288.65716939
0.9053723191705955	73357696.30346334
0.9055986622503881	72883985.55166931
0.9058250619159507	72410156.37218733
0.9060515181814298	71936208.73541017
0.9062780310609752	71462142.61172414
0.9065046005687405	73248719.38434099
0.906731226718883	75161863.99639331
0.9069579095255627	77075486.89459616
0.907184649002944	78989588.19852369
0.907411445165195	80904168.02777915
0.9076382980264862	82430371.70241566
0.907865207600993	83795466.24990267
0.9080921739028933	85160902.07102613
0.9083191969463691	86526679.25110467
0.9085462767456058	87892797.87547888
0.9087734133147922	88071441.18496415
0.9090006066681211	86878185.97655852
0.909227856819788	85684632.45435236
0.9094551637839932	84490780.54376401
0.9096825275749393	83296630.17019838
0.9099099482068329	82504518.86635554
0.9101374256938848	83142124.36746535
0.9103649600503083	83779889.26995012
0.9105925512903209	84417813.6136604
0.9108201994281437	85055897.43845727
0.9110479044780008	85694140.78420961
0.9112756664541204	88119843.15325285
0.911503485370734	90587062.9174907
0.9117313612420768	93054899.48666963
0.9119592940823873	95523353.01499009
0.912187283905908	97992423.65669341
0.9124153307268845	98185951.00435331
0.9126434345595664	97553413.49510854
0.9128715954182063	96920717.85148706
0.9130998133170609	96287864.03395435
0.9133280882703902	95654852.0029673
0.913556420292458	95123653.52213074
0.9137848093975312	94697487.26792563
0.9140132555998806	94271214.47215703
0.9142417589137806	93844835.10818946
0.9144703193535092	93418349.14938062
0.9146989369333476	93117710.7875275
