#wavelength	surface flux
0.8	34987575.37057071
0.8002000000000001	35334687.3821385
0.8004000500000003	35780790.57308743
0.8006001500125003	36228004.32166902
0.8008003000500035	36675329.87368779
0.8010005001250161	37122767.25709476
0.8012007502500472	37570316.49984695
0.8014010504376099	38111303.3195272
0.8016014007002193	38683686.64072927
0.8018018010503944	39256213.057761624
0.8020022515006572	39828882.6063985
0.8022027520635323	40401695.32242204
0.8024033027515483	40912692.46308444
0.8026039035772362	41363100.164777845
0.8028045545531306	41813620.4683967
0.8030052556917691	42264253.40209168
0.803206007005692	42714998.99401968
0.8034068085074435	43121542.91203688
0.8036076602095705	43403968.8138554
0.8038085621246229	43686465.32214915
0.8040095142651542	43969032.45457015
0.8042105166437206	44251670.22877416
0.8044115692728815	44536544.87718121
0.8046126721651998	44914663.45765866
0.8048138253332411	45292876.56778093
0.8050150287895745	45671184.23118108
0.805216282546772	46049586.47149698
0.8054175866174087	46428083.31237275
0.8056189410140631	46931489.7887394
0.8058203457493168	47470352.86023128
0.8060218008357541	48009350.647490345
0.8062233062859632	48548483.184196495
0.8064248621125346	49087750.50403645
0.806626468328063	49638377.48194005
0.8068281249451449	50198782.89729035
0.8070298319763813	50759328.41399517
0.8072315894343755	51320014.06707875
0.8074333973317341	51880839.891575806
0.8076352556810671	52431581.31575101
0.8078371644949874	52957848.08944784
0.8080391237861113	53484246.42983823
0.8082411335670578	54010776.36981339
0.8084431938504498	54537437.942274086
0.8086453046489125	55070838.6376603
0.8088474659750746	55727391.70465384
0.8090496778415686	56384108.909914985
0.809251940261029	57040990.29447698
0.8094542532460944	57698035.899385676
0.8096566168094059	58355245.76569484
0.8098590309636085	59072000.545523256
0.8100614957213493	59802833.030922145
0.8102640110952797	60533848.22444248
0.8104665770980536	61265046.17176149
0.8106691937423283	61996426.9185676
0.8108718610407639	62656239.96750297
0.8110745790060241	63261354.095348194
0.8112773476507757	63866619.501725905
0.8114801669876885	64472036.22445506
0.8116830370294355	65077604.30136454
0.8118859577886929	65660867.76142972
0.8120889292781401	66197634.92499693
0.8122919515104597	66734536.280355
0.8124950244983374	67271571.86105193
0.8126981482544621	67808741.70064396
0.8129013227915257	68367788.59608929
0.8131045481222237	69175933.21824878
0.8133078242592543	69984279.8765639
0.8135111512153191	70792828.62154338
0.813714529003123	71601579.5037092
0.8139179576353739	72410532.5735957
0.8141214371247829	73482338.69763464
0.8143249674840641	74605345.18414336
0.814528548725935	75728632.42227304
0.8147321808631167	76852200.48221378
0.8149358639083326	77976049.43416914
0.8151395978743097	78926942.11923453
0.8153433827737784	79761026.18706635
0.8155472186194719	80595318.7759148
0.8157511054241268	81429819.93791032
0.815955043200483	82264529.72519691
0.8161590319612831	83074690.45220214
0.8163630717192736	83839688.18284701
0.8165671624872033	84604877.16292371
0.8167713042778252	85370257.44024616
0.8169754971038948	86135829.06263834
0.8171797409781707	86463778.48831856
0.8173840359134155	83296608.42049648
0.8175883819223938	80128646.56016111
0.8177927790178745	76959892.70935883
0.8179972272126291	73790346.67009303
0.8182017265194322	70620008.2443206
0.8184062769510622	70008493.53561339
0.8186108785203001	69790713.01283349
0.8188155312399301	69572878.04492322
0.8190202351227402	69354988.61827071
0.819224990181521	69137044.71926168
0.8194297964290664	72234895.51567066
0.8196346538781738	77332142.9871875
0.8198395625416434	82430664.77057019
0.8200445224322789	87530461.18440089
0.820249533562887	92631532.54733352
0.8204545959462778	96279863.01447295
0.8206597095952644	97588905.80213854
0.8208648745226633	98898275.85050207
0.8210700907412941	100207973.24137747
0.8212753582639793	101517998.05659927
0.8214806771035456	102735663.94295079
0.8216860472728215	103382572.88162456
0.8218914687846397	104029643.54753304
0.822096941651836	104676875.98110831
0.822302465887249	105324270.22279161
0.8225080415037209	105971826.31303568
0.8227136685140968	106940442.80028227
0.8229193469312254	107945730.1290533
0.8231250767679583	108951268.77965686
0.8233308580371503	109957058.81492251
0.8235366907516598	110963100.29769772
0.8237425749243477	112355256.20960562
0.8239485105680789	113952274.29068112
0.824154497695721	115549691.6262759
0.824360536320145	117147508.31620486
0.8245666264542252	118745724.46030623
0.8247727681108388	119887310.95478411
0.8249789613028664	120374631.00751784
0.8251852060431922	120862072.8902652
0.825391502344703	121349636.63348301
0.8255978502202894	121837322.26763707
0.8258042496828445	122263979.21811292
0.8260107007452654	122393760.61275923
0.8262172034204517	122523574.45275408
0.8264237577213068	122653420.74620895
0.8266303636607373	122783299.50123724
0.8268370212516525	122913210.72595425
0.8270437305069654	123285913.7736479
0.8272504914395923	123677680.06220004
0.8274573040624523	124069544.2923244
0.8276641683884679	124461506.48850593
0.8278710844305652	124853566.67523699
0.8280780522016729	125297804.19482474
0.8282850717147234	125765958.13352154
0.8284921429826521	126234229.11070253
0.8286992660183978	126702617.15562819
0.8289064408349024	127171122.29756474
0.8291136674451112	127603195.46145304
0.8293209458619727	127989290.05451944
0.8295282760984382	128375481.17123361
0.829735658167463	128761768.83572741
0.8299430920820048	129148153.07213683
0.8301505778550254	129543189.05144686
0.8303581154994891	129972469.88606454
0.8305657050283641	130401858.04089132
0.8307733464546212	130831353.54275647
0.8309810397912352	131260956.41849779
0.8311887850511829	131690666.6949572
0.8313965822474458	132625291.5466913
0.8316044313930077	133583580.82466578
0.8318123325008561	134542109.67496067
0.8320202855839813	135500878.15746763
0.8322282906553774	136459886.33209532
0.8324363477280413	137367840.9023002
0.8326444568149735	138255371.93679047
0.8328526179291771	139143124.8540383
0.8330608310836596	140031099.70951682
0.8332690962914304	140919296.558708
0.8334774135655034	141480407.51953995
0.833685782918895	141676045.04329088
0.8338942043646247	141871731.4764226
0.834102677915716	142067466.83116278
0.834311203585195	142263251.11974147
0.8345197813860912	142522165.87721553
0.8347284113314379	142993483.6683368
0.8349370934342709	143464919.2889056
0.8351458277076294	143936472.76837897
0.8353546141645565	144408144.136223
0.8355634528180977	144879933.42190877
0.8357723436813022	145203043.05281645
0.8359812867672226	145524396.18988445
0.8361902820889144	145845829.6652366
0.8363993296594368	146167343.49895766
0.8366084294918518	146488937.71113726
0.8368175815992247	146960048.195773
0.8370267859946247	147482743.7078813
0.8372360426911234	148005569.89386746
0.8374453517017962	148528526.78640005
0.8376547130397217	149051614.41815573
0.8378641267179816	149559486.9996737
0.8380735927496613	150052259.5046097
0.8382831111478488	150545155.20267168
0.8384926819256358	151038174.12465793
0.8387023050961173	151531316.30137506
0.8389119806723914	151919312.9836945
0.8391217086675596	152011145.92077428
0.8393314890947265	152103001.8160883
0.8395413219670003	152194880.67537612
0.8397512072974922	152286782.50437883
0.8399611450993165	152377668.4843367
0.8401711353855914	152416989.53227603
0.8403811781694378	152456320.41047734
0.8405912734639802	152495661.1213982
0.8408014212823464	152535011.66749683
0.8410116216376671	152574372.05123198
0.8412218745430766	152669625.34194645
0.8414321800117124	152781162.26199344
0.8416425380567154	152892727.06627047
0.8418529486912297	153004319.76174864
0.8420634119284025	153115940.35540056
0.8422739277813847	154006418.45725507
0.8424844962633302	155583298.2804209
0.842695117387396	157160572.32354048
0.8429057911667428	158738240.68517092
0.8431165176145345	160316303.46389252
0.8433272967439382	160805629.0407201
0.8435381285681244	158638382.67335317
0.8437490131002665	156470594.49439484
0.8439599503535415	154302264.36839315
0.84417094034113	152133392.1598584
0.8443819830762154	150040522.0701651
0.8445930785719846	149489120.97322226
0.8448042268416277	148937582.02600545
0.8450154278983382	148385905.19405192
0.8452266817553128	147834090.44289047
0.8454379884257517	147282137.73804113
0.8456493479228583	147952268.77720514
0.845860760259839	148916893.03144744
0.846072225449904	149881758.4417533
0.8462837435062666	150846865.06841195
0.8464953144421433	151812212.9717278
0.8467069382707537	152680372.1180814
0.8469186150053215	153472804.53825083
0.847130344659073	154265435.06652558
0.8473421272452377	155058263.75243157
0.8475539627770492	155851290.64550987
0.8477658512677435	156580027.77527153
0.8479777927305605	157172015.27067935
0.8481897871787432	157764150.76296088
0.848401834625538	158356434.28911582
0.8486139350841944	158948865.8861519
0.8488260885679657	159500633.83268628
0.8490382950901076	159555058.87453002
0.8492505546638802	159609497.52263424
0.8494628673025462	159663949.78040045
0.8496752330193721	159718415.6512312
0.8498876518276269	159772895.1385296
0.8501001237405839	158056680.1075638
0.8503126487715191	155986571.57980663
0.850525226933712	153915945.52491868
0.8507378582404455	151844801.813517
0.8509505427050057	149773140.3161863
0.8511632803406821	146900220.7008266
0.8513760711607672	143478222.4457151
0.8515889151785576	140055368.6910345
0.8518018124073523	136631659.2229181
0.8520147628604541	133207093.8274367
0.8522277665511693	131450754.67713153
0.8524408234928071	132780742.562245
0.8526539336986805	134111062.9443301
0.8528670971821053	135441715.9065108
0.8530803139564007	136772701.5319305
0.8532935840348901	138052254.74389094
0.8535069074308987	138894944.6170222
0.8537202841577566	139737845.16262242
0.8539337142287962	140580956.43335915
0.8541471976573534	141424278.48191303
0.8543607344567677	142267811.36097923
0.8545743246403821	139160359.51652706
0.8547879682215422	135424635.78685582
0.8550016652135977	131687978.12625264
0.8552154156299011	127950386.3012341
0.8554292194838088	124211860.0782566
0.8556430767886797	122076521.8258167
0.855856987557877	120914630.61541492
0.8560709518047664	119752448.93221126
0.8562849695427177	118589976.70358637
0.8564990407851035	117427213.856904
0.8567131655452999	116073541.30685128
0.8569273438366862	114407194.7249179
0.8571415756726455	112740431.55633874
0.8573558610665638	111073251.69696684
0.8575702000318304	109405655.0426319
0.8577845925818384	108412881.64786913
0.857999038729984	111637658.85181049
0.8582135384896665	114863242.25005211
0.858428091874289	118089632.04414348
0.8586426988972576	121316828.4356825
0.8588573595719821	124544831.62632053
0.8590720739118751	123346412.52676876
0.8592868419303532	121625710.2605195
0.8595016636408359	119904577.81870368
0.8597165390567462	118183015.09377797
0.8599314681915105	116461021.9781706
0.8601464510585584	113824986.78832677
0.860361487671323	110703353.94277827
0.8605765780432408	107580940.6890193
0.8607917221877518	104457746.8319443
0.8610069201182988	101333772.1764059
0.8612221718483286	95921652.08916545
0.8614374773912907	87210633.58520326
0.8616528367606385	78497437.32661746
0.8618682499698288	69782062.76896149
0.8620837170323213	61064509.36766755
0.8622992379615795	53734879.36458041
0.8625148127710699	53282503.07045926
0.8627304414742627	52830013.68226455
0.8629461240846313	52377411.171722725
0.8631618606156526	51924695.51055322
0.8633776510808066	51471866.6704685
0.8635934954935769	54607171.31238276
0.8638093938674504	58037394.851403505
0.8640253462159173	61468475.94630889
0.8642413525524714	64900414.81148793
0.8644574128906095	68333211.66138254
0.8646735272438323	68899547.0991204
0.8648896956256433	68132641.05177608
0.8651059180495498	67365543.27791989
0.8653221945290621	66598253.72962096
0.8655385250776946	65830772.35893389
0.8657549097089641	66812822.18386563
0.8659713484363913	70035147.6792047
0.8661878412735006	73258278.75591911
0.866404388233819	76482215.61540227
0.8666209893308775	79706958.45909879
0.8668376445782103	82130208.51722765
0.8670543539893549	81279475.00665726
0.8672711175778525	80428528.81270862
0.8674879353572469	79577369.88221245
0.8677048073410862	78725998.16198333
0.8679217335429217	77874413.59882364
0.8681387139763074	77599410.26733206
0.8683557486548015	77352991.84776434
0.8685728375919655	77106511.82359144
0.8687899808013633	76859970.17941304
0.8690071782965637	76613366.89982326
0.869224430091138	75924720.53846918
0.8694417361986609	75056060.330002
0.8696590966327107	74187182.9564829
0.869876511406869	73318088.36362039
0.8700939805347206	72448776.49711005
0.8703115040298544	71999928.7790272
0.870529081905862	72031929.47515218
0.8707467141763385	72063938.17145118
0.8709644008548827	72095954.86992426
0.8711821419550964	72127979.57257195
0.8713999374905854	72179806.67119057
0.871617787474958	72299964.03364985
0.8718356919218269	72420151.43544985
0.8720536508448075	72540368.8841003
0.8722716642575187	72660616.38711286
0.8724897321735832	72780893.95200121
0.8727078546066265	74533992.69000834
0.8729260315702784	76312369.8115797
0.873144263078171	78091191.52742955
0.8733625491439405	79870457.94870853
0.8735808897812266	81650169.18659353
0.8737992850036719	81816282.04204978
0.874017734824923	81410768.82457891
0.8742362392586293	81005154.22880384
0.874454798318444	80599438.22937985
0.8746734120180236	80193620.80095604
0.8748920803710283	79767997.49359688
0.875110803391121	79322466.71128045
0.8753295810919689	78876824.5462682
0.875548413487242	78431070.97071469
0.8757673005906139	77985205.95676728
0.8759862424157616	78594072.69002189
0.8762052389763657	82255330.25900674
0.8764242902861098	85917503.1423813
0.8766433963586814	89580591.56897768
0.8768625572077712	93244595.76768185
0.8770817728470732	96867745.9951547
0.8773010432902849	97230507.96998674
0.8775203685511077	97593360.63531302
0.8777397486432454	97956304.01380517
0.8779591835804065	98319338.12814239
0.8781786733763015	98682463.00100769
0.8783982180446457	96206495.84676802
0.878617817599157	92885305.88365564
0.8788374720535569	89563285.62305403
0.8790571814215703	86240434.85738811
0.8792769457169257	82916753.3790307
0.879496764953355	81505675.40764135
0.8797166391445934	81814547.89356871
0.8799365683043796	82123497.59761758
0.8801565524464557	82432524.53909245
0.8803765915845676	82741628.73730299
0.8805966857324639	83063211.30739352
0.880816834903897	83416022.10815668
0.881037039112623	83768921.11162017
0.8812572983724012	84121908.33983451
0.8814776126969944	84474983.81485604
0.8816979821001687	84873916.97971751
0.8819184065956938	86350369.75140283
0.8821388861973429	87827191.63628258
0.8823594209188923	89304382.72663213
0.882580010774122	90781943.1147536
0.8828006557768155	92259872.89297292
0.8830213559407598	94542414.61379759
0.8832421112797452	97027802.11242123
0.8834629218075651	99513810.95791803
0.8836837875380171	102000441.30562696
0.8839047084849018	104487693.31092322
0.884125684662023	104513211.74849427
0.8843467160831886	102565473.20699495
0.8845678027622095	100617247.73086026
0.8847889447129001	98668535.19835618
0.8850101419490785	96719335.48771933
0.8852313944845657	97720267.72185461
0.885452702333187	105179993.82027595
0.8856740655087704	112641584.8502208
0.8858954840251476	120105041.27792111
0.8861169578961539	127570363.5697249
0.886338487135628	134200675.00741509
0.886560071757412	129695978.86285414
0.8867817117753515	125190156.54425715
0.8870034072032955	120683207.77007848
0.8872251580550963	116175132.25871155
0.8874469643446101	111665929.728464
0.8876688260856963	110456652.19570565
0.8878907432922178	109930267.42211525
0.8881127159780409	109403751.05233179
0.8883347441570356	108877103.05345523
0.8885568278430749	108350323.39257953
0.8887789670500358	106863675.35812531
0.8890011617917983	104695843.7560448
0.8892234120822464	102527470.1960628
0.8894457179352669	100358554.54269256
0.8896680793647509	98189096.66040726
0.8898904963845921	96880617.23641993
0.8901129690086883	97215615.1001378
0.8903354972509405	97550696.71332152
0.8905580811252535	97885862.09690881
0.8907807206455347	98221111.27184153
0.8910034158256963	98672389.09472747
0.8912261666796527	100159974.5439551
0.8914489732213227	101647931.88954547
0.8916718354646282	103136261.22447369
0.8918947534234944	104624962.64173418
0.8921177271118502	106114036.23434809
0.8923407565436284	107914011.26586927
0.8925638417327644	109765092.04254206
0.8927869826931977	111616635.58940962
0.8930101794388711	113468642.02216376
0.8932334319837308	115321111.45652582
0.8934567403417267	117054982.03128272
0.8936801045268123	118715303.07038808
0.8939035245529441	120376039.1897521
0.8941270004340824	122037190.4931466
0.894350532184191	123698757.08436655
0.8945741198172371	126406433.26796468
0.8947977633471915	130848945.46822643
0.8950214627880284	135292568.29653808
0.8952452181537254	139737302.03055415
0.8954690294582639	144183146.9480064
0.8956928967156286	148247530.27893758
0.8959168199398075	149830166.9091685
0.8961407991447926	151413199.19855744
0.8963648343445789	152996627.24601865
0.896588925553165	154580451.15049082
0.8968130727845534	156164671.01093933
0.8970372760527496	155805513.97885653
0.8972615353717629	155203062.0177878
0.8974858507556059	154600459.44372874
0.8977102222182949	153997706.2190263
0.8979346497738496	153394802.30601737
0.8981591334362931	153376727.57297084
0.8983836732196523	153678560.07684776
0.8986082691379572	153980468.0388505
0.8988329212052417	154282451.47784367
0.8990576294355432	154584510.4126969
0.8992823938429022	154690712.99033135
0.8995072144413631	154505616.32414383
0.8997320912449734	154320473.38378984
0.8999570242677847	154135284.1577008
0.9001820135238516	153950048.6343052
0.9004070590272328	154419839.44590035
0.9006321607919896	158323861.99104768
0.9008573188321878	162228860.54183528
0.9010825331618959	166134835.3422587
0.9013078037951865	170041786.63638285
0.9015331307461353	173949714.6683285
0.9017585140288219	177428709.53808242
0.9019839536573292	180871544.88150796
0.9022094496457435	184315240.9337669
0.9024350020081551	187759797.9100428
0.9026606107586572	191205216.02556163
0.902886275911347	193509353.76123354
0.9031119974803249	195263475.7149517
0.9033377754796951	197018036.1991583
0.903563609923565	198773035.3234852
0.903789500826046	200528473.19759434
0.9040154482012526	200481902.89119038
0.904241452063303	198100408.1820396
0.9044675124263188	195718318.09921202
0.9046936293044254	193335632.49386415
0.9049198027117517	190952351.21711373
0.9051460326624297	188839901.4661929
0.9053723191705955	187882724.3864949
0.9055986622503881	186925308.0125279
0.9058250619159507	185967652.28446734
0.9060515181814298	185009757.1424742
0.9062780310609752	184051622.5266962
0.9065046005687405	187092504.6045622
0.906731226718883	190357253.58399925
0.9069579095255627	193622818.75067693
0.907184649002944	196889200.3086465
0.907411445165195	200156398.4620089
0.9076382980264862	202542962.03058764
0.907865207600993	204564057.1126791
0.9080921739028933	206585657.46854046
0.9083191969463691	208607763.22449046
0.9085462767456058	210630374.50688046
0.9087734133147922	211447971.9041027
0.9090006066681211	210873383.6916011
0.909227856819788	210298651.8320471
0.9094551637839932	209723776.28952745
0.9096825275749393	209148757.0281223
0.9099099482068329	209317268.6613848
0.9101374256938848	212128855.02185372
0.9103649600503083	214941144.27891147
0.9105925512903209	217754136.60828292
0.9108201994281437	220567832.18573967
0.9110479044780008	223382231.18708757
0.9112756664541204	228025485.65651116
0.911503485370734	232711747.0135223
0.9117313612420768	237399179.9358727
0.9119592940823873	242087784.71645227
0.912187283905908	246777561.64822847
0.9124153307268845	248762188.94687647
0.9126434345595664	249765075.6770405
0.9128715954182063	250768213.12888607
0.9130998133170609	251771601.36509517
0.9133280882703902	252775240.44836324
0.913556420292458	253693849.34202915
0.9137848093975312	254524736.23092526
0.9140132555998806	255355830.84154347
0.9142417589137806	256187133.22581434
0.9144703193535092	257018643.43568188
