#wavelength	surface flux
0.7	5922440.776164469
0.7001166666666666	5939942.025612297
0.7002333527777778	5943845.476092716
0.700350058336574	5947749.577148212
0.7004667833462966	5951654.328887214
0.7005835278101878	5955559.731418182
0.7007002917314895	5959465.784849566
0.7008170751134447	5963372.489289855
0.7009338779592968	5967279.844847548
0.7010507002722901	5966534.798400964
0.7011675420556689	5960127.171347293
0.701284403312678	5953718.476355791
0.7014012840465635	5947308.7132484475
0.7015181842605713	5940897.881847253
0.701635103957948	5934485.981974164
0.701752043141941	5928073.0134510975
0.701869001815798	5921658.9760999335
0.7019859799827672	5909957.20860713
0.7021029776460976	5894574.272349401
0.7022199948090387	5879188.772268944
0.7023370314748403	5863800.70793848
0.7024540876467528	5848410.07893063
0.702571163328027	5833016.884817971
0.7026882585219152	5817621.125172919
0.7028053732316688	5802222.799567948
0.7029225074605406	5804484.091923752
0.7030396612117841	5813565.940546991
0.7031568344886527	5822649.30281167
0.7032740272944008	5831734.178970053
0.7033912396322832	5840820.569274467
0.7035084715055552	5849908.4739772575
0.7036257229174727	5858997.893330834
0.7037429938712924	5868088.827587645
0.7038602843702709	5885309.768622362
0.7039775944176659	5903912.231476001
0.7040949240167356	5922517.794740124
0.7042122731707383	5941126.458931446
0.7043296418829335	5959738.224566812
0.7044470301565806	5978353.092163113
0.70456443799494	5996971.062237333
0.7046818654012724	6015592.135306576
0.7047993123788394	6016479.8273932645
0.7049167789309024	6017347.314025576
0.7050342650607243	6018214.945238994
0.7051517707715678	6019082.721057614
0.7052692960666963	6019950.641505537
0.705386840949374	6020818.706606867
0.7055044054228656	6021686.916385716
0.7056219894904361	6023390.7781015355
0.7057395931553511	6030404.483331161
0.705857216420877	6037419.357511662
0.7059748592902804	6044435.400837856
0.7060925217668288	6051452.613504613
0.70621020385379	6058470.9957068125
0.7063279055544321	6065490.54763937
0.7064456268720246	6072511.2694972595
0.7065633678098366	6080139.533181459
0.7066811283711383	6089439.027040596
0.7067989085592001	6098740.070815377
0.7069167083772933	6108042.664764115
0.7070345278286895	6117346.809145182
0.707152366916661	6126652.504216983
0.7072702256444803	6135959.750237951
0.7073881040154211	6145268.547466602
0.7075060020327569	6146967.704909469
0.7076239196997625	6137582.607222554
0.7077418570197124	6128195.9453527015
0.7078598139958823	6118807.719039204
0.7079777906315483	6109417.928021311
0.7080957869299869	6100026.572038257
0.7082138028944751	6090633.650829209
0.7083318385282908	6081239.164133287
0.7084498938347124	6075654.187566144
0.708567968817018	6073299.388169996
0.7086860634784875	6070944.19630728
0.7088041778224007	6068588.611912585
0.7089223118520377	6066232.634920494
0.7090404655706796	6063876.265265572
0.709158638981608	6061519.502882371
0.709276832088105	6059162.34770544
0.7093950448934531	6065174.473077345
0.7095132774009353	6075179.188010636
0.7096315296138355	6085185.570396421
0.7097498015354378	6095193.620512599
0.7098680931690269	6105203.338637122
0.7099864045178884	6115214.72504801
0.7101047355853081	6125227.780023299
0.7102230863745722	6135242.503841077
0.7103414568889679	6118345.611481134
0.7104598471317828	6095330.570475391
0.7105782571063047	6072311.693629499
0.7106966868158224	6049288.980304131
0.710815136263625	6026262.429859882
0.7109336054530023	6003232.041657211
0.7110520943872445	5980197.815056514
0.7111706030696424	5957159.749418037
0.7112891315034873	5956347.272384709
0.7114076796920712	5956595.28998186
0.7115262476386865	5956843.348915276
0.7116448353466263	5957091.449191848
0.711763442819184	5957339.590818467
0.711882070059654	5957587.773802022
0.7120007170713306	5957835.99814941
0.7121193838575091	5959114.664683839
0.7122380704214853	5971140.361087975
0.7123567767665555	5983168.061774833
0.7124755028960166	5995197.767078478
0.7125942488131658	6007229.477332997
0.7127130145213015	6019263.192872592
0.7128318000237216	6031298.914031407
0.7129506053237256	6043336.641143764
0.7130694304246129	6049338.264100977
0.7131882753296837	6034229.526107472
0.7133071400422386	6019118.269990964
0.7134260245655789	6004004.495331781
0.7135449289030065	5988888.201710149
0.7136638530578235	5973769.388706255
0.7137827970333332	5958648.055900172
0.7139017608328388	5943524.202871959
0.7140207444596443	5931332.361141002
0.7141397479170543	5924373.401168928
0.7142587712083737	5917413.281370201
0.7143778143369084	5910452.001551503
0.7144968773059646	5903489.5615195
0.7146159601188489	5896525.961080828
0.7147350627788687	5889561.200042082
0.7148541852893318	5882595.278209832
0.7149733276535467	5879874.786180714
0.7150924898748222	5881436.007972213
0.715211671956468	5882997.489967344
0.7153308739017941	5884559.232209477
0.715450095714111	5886121.234741981
0.71556933739673	5887683.497608242
0.7156885989529628	5889246.020851646
0.7158078803861218	5890808.804515594
0.7159271816995193	5878057.886765767
0.7160465028964692	5856903.441266794
0.7161658439802853	5835745.470026905
0.7162852049542819	5814583.97245848
0.7164045858217744	5793418.94797378
0.716523986586078	5772250.395985009
0.7166434072505089	5751078.315904251
0.716762847818384	5729902.707143472
0.7168823082930204	5721212.744147394
0.7170017886777359	5716195.594969913
0.7171212889758488	5711177.609600907
0.7172408091906781	5706158.787901005
0.7173603493255433	5701139.129730817
0.7174799093837642	5696118.634950938
0.7175994893686615	5691097.303421926
0.7177190892835562	5686075.135004329
0.7178387091317702	5690049.892062967
0.7179583489166254	5694928.532825911
0.7180780086414448	5699807.986695653
0.7181976883095517	5704688.253807706
0.7183173879242699	5709569.334297611
0.718437107488924	5714451.228300934
0.7185568470068389	5719333.935953258
0.7186766064813399	5723655.681747429
0.7187963859157535	5713932.518714619
0.7189161853134061	5704207.735154637
0.719036004677625	5694481.330797395
0.7191558440117378	5684753.305372765
0.7192757033190732	5675023.658610551
0.7193955826029597	5665292.390240555
0.7195154818667269	5655559.499992489
0.7196354011137046	5644283.527015622
0.7197553403472235	5625908.514660317
0.7198752995706147	5607530.439802961
0.7199952787872098	5589149.301933117
0.720115278000341	5570765.100540294
0.7202352972133411	5552377.835113904
0.7203553364295432	5533987.505143304
0.7204753956522815	5515594.110117683
0.7205954748848902	5500037.372227472
0.7207155741307044	5490738.568770016
0.7208356933930594	5481438.215511999
0.7209558326752915	5472136.312195105
0.7210759919807375	5462832.8585609775
0.7211961713127342	5453527.854351257
0.7213163706746197	5444221.299307486
0.7214365900697322	5434913.193171219
0.7215568295014103	5429138.741764808
0.721677088972994	5427581.424355601
0.7217973684878227	5426023.847393496
0.7219176680492374	5424466.010835228
0.7220379876605789	5422907.914637535
0.722158327325189	5421349.558757141
0.7222786870464099	5419790.943150769
0.7223990668275843	5418232.067775128
0.7225194666720555	5408340.392340351
0.7226398865831676	5392541.588415996
0.7227603265642646	5376740.151357692
0.722880786618692	5360936.08072651
0.7230012667497951	5345129.376083568
0.7231217669609201	5329320.036989849
0.7232422872554135	5313508.063006296
0.7233628276366229	5297693.453693719
0.7234833881078956	5280357.876075491
0.7236039686725803	5262442.95692502
0.7237245693340255	5244525.051954719
0.7238451900955812	5226604.1606668895
0.7239658309605971	5208680.282563866
0.7240864919324239	5190753.417147802
0.7242071730144127	5172823.563920835
0.724327874209915	5154890.722385034
0.7244485955222832	5139241.209747402
0.7245693369548704	5123967.112174251
0.7246900985110294	5108690.468918193
0.7248108801941148	5093411.279554887
0.7249316820074803	5078129.54366007
0.7250525039544815	5062845.2608092455
0.7251733460384739	5047558.430577944
0.7252942082628137	5032269.939697073
0.7254150906308574	5017492.946707812
0.7255359931459625	5002713.490886386
0.7256569158114868	4987931.571822317
0.7257778586307888	4973147.189105065
0.7258988216072273	4958360.34232403
0.7260198047441617	4943571.031068549
0.7261408080449525	4928779.254927832
0.72626183151296	4913679.18140194
0.7263828751515454	4896544.161491712
0.7265039389640706	4879406.285744836
0.726625022953898	4862265.553685324
0.7267461271243904	4845121.964837129
0.7268672514789111	4827975.518724136
0.7269883960208241	4810826.214870139
0.7271095607534942	4793674.0527988225
0.7272307456802866	4775766.225700709
0.7273519508045666	4755821.902351876
0.7274731761297006	4735874.25494916
0.7275944216590555	4715923.282938546
0.7277156873959987	4695968.985765921
0.7278369733438982	4676011.362877069
0.727958279506122	4656050.41371779
0.7280796058860397	4636086.137733625
0.7282009524870207	4615441.815036213
0.7283223193124353	4593793.108364065
0.7284437063656539	4572140.793574184
0.7285651136500483	4550484.870065136
0.7286865411689898	4528825.337235547
0.7288079889258514	4507162.194483767
0.7289294569240056	4485495.441208245
0.7290509451668262	4463825.0768071525
0.7291724536576875	4445931.337350861
0.7292939823999636	4431166.948621518
0.7294155313970303	4416400.09916069
0.7295371006522632	4401630.788558289
0.7296586901690385	4386859.016404132
0.7297802999507332	4372084.782287957
0.7299019300007252	4357308.085799391
0.7300235803223919	4342528.926528117
0.7301452509191123	4328508.140213651
0.7302669417942654	4314836.195824248
0.7303886529512311	4301161.972777443
0.7305103843933897	4287485.47069346
0.7306321361241218	4273806.689192473
0.7307539081468093	4260125.627894546
0.7308757004648336	4246442.286419764
0.7309975130815778	4232756.664388054
0.7311193460004248	4219224.229696696
0.7312411992247582	4205724.73563286
0.7313630727579622	4192222.9916533493
0.7314849666034219	4178718.997383162
0.7316068807645224	4165212.752447271
0.7317288152446498	4151704.2564705512
0.7318507700471907	4138193.5090778284
0.7319727451755319	4124680.5098938784
0.732094740633061	4107381.423014564
0.7322167564231665	4089909.1034802315
0.7323387925492371	4072433.8718926427
0.7324608490146619	4054955.7277664603
0.732582925822831	4037474.670616253
0.7327050229771347	4019990.6999565405
0.7328271404809642	4002503.8153017
0.7329492783377112	3984848.4714008137
0.7330714365507675	3965562.704703395
0.7331936151235259	3946273.723711531
0.7333158140593796	3926981.527889524
0.7334380333617229	3907686.1167015173
0.7335602730339499	3888387.489611637
0.7336825330794556	3869085.646083904
0.7338048135016354	3849780.585582287
0.7339271143038857	3830670.3238966595
0.734049435489603	3812220.36764048
0.7341717770621846	3793767.3363915877
0.7342941390250283	3775311.2296374966
0.7344165213815324	3756852.0468656207
0.734538924135096	3738389.787563255
0.7346613472891185	3719924.451217697
0.734783790847	3701456.0373160746
0.7349062548121412	3680835.220746312
0.7350287391879431	3656411.948364853
0.7351512439778078	3631984.605437947
0.7352737691851374	3607553.1912872493
0.735396314813335	3583117.7052341714
0.7355188808658037	3558678.1466001254
0.7356414673459482	3534234.514706257
0.7357640742571725	3509786.8088737563
0.7358867016028818	3488034.6782560316
0.7360093493864824	3468945.069947985
0.7361320176113801	3449852.2800385803
0.736254706280982	3430756.3079975233
0.7363774153986956	3411657.153294435
0.7365001449679286	3392554.815398935
0.7366228949920899	3373449.293780437
0.7367456654745885	3354340.5879083364
0.7368684564188344	3335358.585130071
0.7369912678282374	3316446.8285761178
0.7371140997062088	3297531.920062732
0.7372369520561599	3278613.8590645753
0.7373598248815024	3259692.645056295
0.7374827181856494	3240768.2775123157
0.7376056319720137	3221840.755907077
0.7377285662440091	3202910.079714901
0.7378515210050496	3182028.8003663975
0.7379744962585505	3160558.112932551
0.738097492007927	3139083.8470508046
0.7382205082565949	3117606.0021247575
0.738343545007971	3096124.577557894
0.7384666022654723	3074639.5727535808
0.7385896800325165	3053150.987115166
0.7387127783125219	3031658.8200457846
0.7388358971089073	3015881.010429769
0.7389590364250921	3000674.0947010815
0.7390821962644963	2985464.6444864273
0.7392053766305403	2970252.6593634263
0.7393285775266454	2955038.1389095606
0.7394517989562333	2939821.0827022716
0.7395750409227259	2924601.490318972
0.7396983034295463	2909246.1991783315
0.739821586480118	2890926.057504016
0.7399448900778645	2872602.862472791
0.7400682142262109	2854276.6135756723
0.740191558928582	2835947.3103037565
0.7403149241884034	2817614.952147977
0.7404383100091014	2799279.5385991666
0.7405617163941028	2780941.0691481093
0.7406851433468352	2762044.1681576734
0.7408085908707264	2740603.4100367865
0.7409320589692048	2719159.0784562225
0.7410555476456997	2697711.172820378
0.7411790569036406	2676259.69253361
0.7413025867464579	2654804.637000121
0.7414261371775823	2633346.0056240377
0.7415497082004452	2611883.797809408
0.7416732998184786	2590593.651091587
0.741796912035115	2569676.7343885177
0.7419205448537874	2548756.3315326693
0.7420441982779297	2527832.4419430126
0.742167872310976	2506905.0650384044
0.7422915669563612	2485974.2002376467
0.7424152822175206	2465039.8469594275
0.7425390180978901	2444102.004622341
0.7426627746009065	2424410.335500836
0.7427865517300065	2406238.812942116
0.7429103494886282	2388064.2617962845
0.7430341678802096	2369886.681558609
0.7431580069081896	2351706.071724228
0.7432818665760077	2333522.431788183
0.7434057468871037	2315335.7612454966
0.7435296478449182	2297146.0595910638
0.7436535694528923	2278173.553819764
0.7437775117144678	2258664.1077699307
0.7439014746330868	2239151.4101457857
0.7440254582121922	2219635.4604053525
0.7441494624552276	2200116.2580066216
0.7442734873656368	2180593.802407495
0.7443975329468645	2161068.093065753
0.7445215992023557	2141539.1294391234
0.7446456861355559	2122389.620967814
0.7447697937499119	2103377.90110759
0.7448939220488703	2084363.0126273944
0.7450180710358784	2065344.9549991353
0.7451422407143843	2046323.7276946025
0.7452664310878367	2027299.3301855011
0.7453906421596846	2008271.7619435021
0.7455148739333779	1989241.0224401231
0.7456391264123667	1970370.7701881363
0.7457633996001021	1951523.5410698364
0.7458876935000356	1932673.1707466496
0.7460120081156189	1913819.6586951117
0.7461363434503048	1894963.0043915566
0.7462606995075466	1876103.2073122668
0.7463850762907978	1857240.2669334924
0.7465094738035127	1838377.0270982878
0.7466338920491467	1820254.7139623824
0.746758331031155	1802129.3804409362
0.7468827907529935	1784001.0260305915
0.7470072712181189	1765869.6502278445
0.7471317724299886	1747735.2525291266
0.7472562943920602	1729597.8324308055
0.7473808371077922	1711457.3894291183
0.7475054005806435	1693302.0946485219
0.7476299848140736	1675070.9158542843
0.7477545898115426	1656836.6985302435
0.7478792155765113	1638599.4421699776
0.7480038621124406	1620359.1462669994
0.7481285294227926	1602115.8103147082
0.7482532175110298	1583869.4338064059
0.7483779263806148	1565620.0162353774
0.7485026560350116	1547565.7030479312
0.7486274064776842	1530044.6554099456
0.748752177712097	1512520.6875973854
0.7488769697417158	1494993.7991234858
0.749001782570006	1477463.9895015284
0.7491266162004343	1459931.2582446393
0.7492514706364677	1442395.6048658658
0.7493763458815739	1424857.0288781784
0.7495012419392209	1407416.6820798977
0.7496261588128773	1390118.847021708
0.7497510965060128	1372818.1289909966
0.7498760550220971	1355514.5275072865
0.7500010343646007	1338208.0420899931
0.7501260345369949	1320898.672258455
0.750251055542751	1303586.4175319644
0.7503760973853414	1286271.2774296757
0.7505011600682389	1269315.7451043387
0.750626243594917	1252660.0607521988
0.7507513479688495	1236001.600452692
0.7508764731935109	1219340.3637431294
0.7510016192723765	1202676.350160778
0.7511267862089218	1186009.5592428448
0.7512519740066232	1169339.9905264196
0.7513771826689577	1152667.643548532
0.7515024121994025	1136751.8540273006
0.7516276626014359	1121187.4570744694
0.751752933878536	1105620.4660555068
0.7518782260341824	1090050.8805380359
0.7520035390718548	1074478.7000896384
0.7521288729950334	1058903.9242778406
0.7522542278071992	1043326.5526700732
0.7523796035118337	1027746.5848336971
0.7525050001124189	1012394.0410081239
0.7526304176124378	997088.9627771258
0.7527558560153731	981781.3336997755
0.752881315324709	966471.1533508975
0.7530067955439299	951158.4213052891
0.7531322966765205	935843.1371376936
0.7532578187259665	920525.3004227321
0.7533833616957542	905204.9107349854
0.75350892558937	890383.6520551167
0.7536345104103016	875583.513800055
0.7537601161620366	860780.9088552919
0.7538857428480638	845975.8368096902
0.7540113904718717	831168.2972521002
0.7541370590369503	816358.2897712537
0.7542627485467898	801545.8139558178
0.7543884590048808	786843.0210002504
0.7545141904147151	773256.1661006726
0.7546399427797842	759667.0467253001
0.7547657161035808	746075.6624966962
0.754891510389598	732482.0130373884
0.7550173256413296	718886.0979698318
0.7551431618622698	705287.916916434
0.7552690190559135	691687.46949953
0.7553948972257561	678217.1897789597
0.7555207963752938	665189.1975595253
0.755646716508023	652159.0340080617
0.755772657627441	639126.6987626684
0.7558986197370455	626092.191461399
0.756024602840335	613055.5117422492
0.7561506069408084	600016.6592431465
0.7562766320419653	586975.6336019489
0.7564026781473054	574098.4926461307
0.75652874526033	561511.4236108905
0.7566548333845401	548922.2567308046
0.7567809425234375	536330.9916562431
0.7569070726805247	523737.6280375097
0.7570332238593047	511142.1655248415
0.7571593960632813	498544.60376840923
0.7572855892959586	485944.94241835014
0.7574118035608413	474056.57563434116
0.7575380388614347	462864.16458653554
0.7576642952012449	451669.8881368844
0.7577905725837782	440473.74597450776
0.7579168710125422	429275.7377884175
0.7580431904910444	418075.86326762533
0.7581695310227928	406874.1221010938
0.7582958926112967	395670.51397768717
0.7584222752600652	385045.0608323988
0.7585486789726085	374751.0374225867
0.7586751037524372	364455.2983422023
0.7588015496030628	354157.8433052845
0.7589280165279966	343858.6720258809
0.7590545045307512	333557.78421793075
0.7591810136148396	323255.1795953461
0.7593075437837755	312950.85787197587
0.7594340950410726	303398.68867062056
0.7595606673902461	294063.65267201693
0.7596872608348112	284727.0608340709
0.7598138753782836	275388.91289749544
0.75994051102418	266049.20860292186
0.7600671677760173	256707.94769097315
0.7601938456373134	247365.12990219862
0.7603205446115863	238020.7549771312
0.7604472647023548	229517.07839543314
0.7605740059131385	221095.70465416487
0.7607007682474575	212672.92735059818
0.7608275517088319	204248.74625083292
0.7609543563007835	195823.1611208657
0.7610811820268336	187396.1717267152
0.7612080288905045	178967.77783434853
0.7613348968953197	170574.9010338969
0.7614617860448022	162938.17972925387
0.7615886963424764	155300.18563771635
0.7617156277918667	147660.91854717096
0.7618425803964988	140020.37824543752
0.7619695541598982	132378.56452032248
0.7620965490855914	124735.47715959222
0.7622235651771058	117091.11595095968
0.7623506024379685	109754.5379029931
0.7624776608717082	103771.36862735447
0.7626047404818536	97787.20215683628
0.7627318412719337	91802.03832524997
0.762858963245479	85815.87696635463
0.7629861064060198	79828.71791389892
0.7631132707570876	73840.56100159494
0.7632404563022137	67851.40606314426
0.7633676630449308	62355.84889631991
0.7634948909887717	57912.20639542787
0.7636221401372697	53467.82328745813
0.7637494104939593	49022.69944896621
0.7638767020623748	44576.834756507626
0.7640040148460518	40130.22908659522
0.7641313488485262	35682.88231573801
0.7642587040733344	31234.794320413937
0.7643860805240132	27592.66570512976
0.7645134782041005	24912.565862188632
0.7646408971171346	22232.019335939236
0.764768337266654	19551.026051936446
0.7648957986561985	16869.585935718787
0.7650232812893079	14187.69891281545
0.7651507851695227	11505.364908741602
0.7652783103003843	8822.58384900074
0.7654058566854343	7197.767204079428
0.7655334243282153	6294.014898825607
