#wavelength	surface flux
0.8	79572810.23800318
0.8002000000000001	80389302.05314939
0.8004000500000003	81425892.16163315
0.8006001500125003	82464962.56527206
0.8008003000500035	83504292.73651196
0.8010005001250161	84543882.74029517
0.8012007502500472	85583732.64157781
0.8014010504376099	86815871.01892936
0.8016014007002193	88112641.11624159
0.8018018010503944	89409735.40607813
0.8020022515006572	90707153.96948773
0.8022027520635323	92004896.88753705
0.8024033027515483	93257149.29349327
0.8026039035772362	94464817.89922725
0.8028045545531306	95672788.42211272
0.8030052556917691	96881060.93762949
0.803206007005692	98089635.52127407
0.8034068085074435	99228407.43265389
0.8036076602095705	100170949.95471913
0.8038085621246229	101113728.11241414
0.8040095142651542	102056741.96464916
0.8042105166437206	102999991.57034692
0.8044115692728815	103946852.12489818
0.8046126721651998	105039119.95997217
0.8048138253332411	106131660.86200407
0.8050150287895745	107224474.89926249
0.805216282546772	108317562.14002992
0.8054175866174087	109410922.65260696
0.8056189410140631	110771947.85359886
0.8058203457493168	112209002.40505676
0.8060218008357541	113646416.22015066
0.8062233062859632	115084189.38869907
0.8064248621125346	116522322.00053862
0.806626468328063	118054829.34373464
0.8068281249451449	119668467.4956063
0.8070298319763813	121282509.05701792
0.8072315894343755	122896954.12881869
0.8074333973317341	124511802.811888
0.8076352556810671	126171915.94656964
0.8078371644949874	127940431.4002877
0.8080391237861113	129709388.98286961
0.8082411335670578	131478788.80484608
0.8084431938504498	133248630.9767799
0.8086453046489125	135034491.52813652
0.8088474659750746	137110794.24860346
0.8090496778415686	139187616.04475325
0.809251940261029	141264957.0463506
0.8094542532460944	143342817.3832001
0.8096566168094059	145421197.18513146
0.8098590309636085	147383465.9444145
0.8100614957213493	149318926.91783288
0.8102640110952797	151254871.75649488
0.8104665770980536	153191300.5813673
0.8106691937423283	155128213.5134467
0.8108718610407639	156923732.9962281
0.8110745790060241	158611214.94551274
0.8112773476507757	160299118.76528618
0.8114801669876885	161987444.56101412
0.8116830370294355	163676192.43819
0.8118859577886929	165472186.5254605
0.8120889292781401	167490507.77846712
0.8122919515104597	169509333.61178687
0.8124950244983374	171528664.15156505
0.8126981482544621	173548499.52397788
0.8129013227915257	175595665.41030666
0.8131045481222237	177950499.7949102
0.8133078242592543	180305922.8881101
0.8135111512153191	182661934.83708268
0.813714529003123	185018535.7890428
0.8139179576353739	187375725.89124128
0.8141214371247829	189421183.33417526
0.8143249674840641	191406587.66084749
0.814528548725935	193392488.3386002
0.8147321808631167	195378885.49152502
0.8149358639083326	197365779.24373746
0.8151395978743097	198524871.9220345
0.8153433827737784	199124621.62923265
0.8155472186194719	199724521.27385738
0.8157511054241268	200324570.89339316
0.815955043200483	200924770.52533424
0.8161590319612831	199815780.71248356
0.8163630717192736	195574357.3880438
0.8165671624872033	191331873.7077776
0.8167713042778252	187088329.40658718
0.8169754971038948	182843724.21931934
0.8171797409781707	177607570.34213895
0.8173840359134155	164462738.6424345
0.8175883819223938	151314620.7348203
0.8177927790178745	138163215.79772165
0.8179972272126291	125008523.00938532
0.8182017265194322	111850541.54786515
0.8184062769510622	108482393.61149
0.8186108785203001	106620420.32549092
0.8188155312399301	104757981.54617287
0.8190202351227402	102895077.1571579
0.819224990181521	101031707.04204686
0.8194297964290664	109367427.9511091
0.8196346538781738	123852997.59976055
0.8198395625416434	138342188.64081842
0.8200445224322789	152835001.97964263
0.820249533562887	167331438.52179727
0.8204545959462778	177923576.1721599
0.8206597095952644	182228665.28699926
0.8208648745226633	186534830.67412066
0.8210700907412941	190842072.60258815
0.8212753582639793	195150391.34153336
0.8214806771035456	199208307.779445
0.8216860472728215	201717819.32248384
0.8218914687846397	204227958.24340856
0.822096941651836	206738724.69906482
0.822302465887249	209250118.84633356
0.8225080415037209	211762140.84214044
0.8227136685140968	214398570.16534075
0.8229193469312254	217049710.13588428
0.8231250767679583	219701512.89142138
0.8233308580371503	222353978.5976459
0.8235366907516598	225007107.42029893
0.8237425749243477	228346057.42184773
0.8239485105680789	232048987.89082184
0.824154497695721	235752844.0924108
0.824360536320145	239457626.2580509
0.8245666264542252	243163334.61923218
0.8247727681108388	245431207.78463098
0.8249789613028664	245639070.48107293
0.8251852060431922	245846985.14318916
0.825391502344703	246054951.78397083
0.8255978502202894	246262970.41641286
0.8258042496828445	245960270.16698736
0.8260107007452654	243176899.4615946
0.8262172034204517	240392832.91352835
0.8264237577213068	237608070.34882432
0.8266303636607373	234822611.5934779
0.8268370212516525	232036456.47344404
0.8270437305069654	231728054.2943222
0.8272504914395923	231613249.73368648
0.8274573040624523	231498416.4719106
0.8276641683884679	231383554.50181937
0.8278710844305652	231268663.81623548
0.8280780522016729	231285160.52981243
0.8282850717147234	231361731.43349603
0.8284921429826521	231438321.47990546
0.8286992660183978	231514930.67382658
0.8289064408349024	231591559.0200461
0.8291136674451112	231615081.25707042
0.8293209458619727	231571621.0759453
0.8295282760984382	231528150.02977493
0.829735658167463	231484668.11584297
0.8299430920820048	231441175.33143258
0.8301505778550254	231600486.52839908
0.8303581154994891	232569331.02962312
0.8305657050283641	233538417.7419734
0.8307733464546212	234507746.72600102
0.8309810397912352	235477318.04227623
0.8311887850511829	236447131.75137863
0.8313965822474458	238243344.43458983
0.8316044313930077	240078352.46525595
0.8318123325008561	241913819.24793142
0.8320202855839813	243749744.89730167
0.8322282906553774	245586129.52808446
0.8324363477280413	247089385.57268092
0.8326444568149735	248458716.2072293
0.8328526179291771	249828389.1744347
0.8330608310836596	251198404.55988398
0.8332690962914304	252568762.4491778
0.8334774135655034	253271246.37071517
0.833685782918895	253227486.07506484
0.8338942043646247	253183714.83934063
0.834102677915716	253139932.66080743
0.834311203585195	253096139.53672966
0.8345197813860912	253126300.3683222
0.8347284113314379	253405441.5237278
0.8349370934342709	253684652.46442214
0.8351458277076294	253963933.20785126
0.8353546141645565	254243283.77146673
0.8355634528180977	254522704.172723
0.8357723436813022	255673271.26991418
0.8359812867672226	256834881.5883505
0.8361902820889144	257996782.3093658
0.8363993296594368	259158973.50556174
0.8366084294918518	260321455.2495571
0.8368175815992247	260536666.62985477
0.8370267859946247	260425582.07751894
0.8372360426911234	260314469.75404504
0.8374453517017962	260203329.6524903
0.8376547130397217	260092161.76591018
0.8378641267179816	260848724.83694455
0.8380735927496613	262466519.30297053
0.8382831111478488	264084718.21761206
0.8384926819256358	265703321.6819814
0.8387023050961173	267322329.79721823
0.8389119806723914	268429642.82268038
0.8391217086675596	268096016.38768533
0.8393314890947265	267762306.54608178
0.8395413219670003	267428513.2770178
0.8397512072974922	267094636.55963632
0.8399611450993165	266790304.73600027
0.8401711353855914	267957230.7436382
0.8403811781694378	269124448.48277766
0.8405912734639802	270291958.0263522
0.8408014212823464	271459759.44731325
0.8410116216376671	272627852.8186294
0.8412218745430766	271369132.4609753
0.8414321800117124	269403903.3080898
0.8416425380567154	267438182.8479151
0.8418529486912297	265471970.9576249
0.8420634119284025	263505267.51436383
0.8422739277813847	263761729.31238562
0.8424844962633302	265977383.25604635
0.842695117387396	268193591.11319017
0.8429057911667428	270410353.0222984
0.8431165176145345	272627669.12188494
0.8433272967439382	271745125.9251567
0.8435381285681244	263299593.5152588
0.8437490131002665	254851949.72226027
0.8439599503535415	246402194.01831877
0.84417094034113	237950325.87544516
0.8443819830762154	229776620.74822366
0.8445930785719846	227247055.82593727
0.8448042268416277	224716858.51242167
0.8450154278983382	222186028.64957803
0.8452266817553128	219654566.07926887
0.8454379884257517	217122470.64331684
0.8456493479228583	217095701.39021602
0.845860760259839	217672390.539517
0.846072225449904	218249223.86110526
0.8462837435062666	218826201.39102405
0.8464953144421433	219403323.16532567
0.8467069382707537	220320883.53912973
0.8469186150053215	221503922.27369034
0.847130344659073	222687256.76793495
0.8473421272452377	223870887.09580195
0.8475539627770492	225054813.33125213
0.8477658512677435	226293379.78912008
0.8479777927305605	227647648.72790456
0.8481897871787432	229002256.23392338
0.848401834625538	230357202.39181948
0.8486139350841944	231712487.28625423
0.8488260885679657	232994744.34589958
0.8490382950901076	233383008.47827056
0.8492505546638802	233771369.67667484
0.8494628673025462	234159827.96537858
0.8496752330193721	234548383.3686551
0.8498876518276269	234937035.91078186
0.8501001237405839	232337616.53950873
0.8503126487715191	229141056.2849845
0.850525226933712	225943696.89039844
0.8507378582404455	222745538.15596378
0.8509505427050057	219546579.88184363
0.8511632803406821	216084399.90715712
0.8513760711607672	212441643.39806238
0.8515889151785576	208797976.1998347
0.8518018124073523	205153398.08481053
0.8520147628604541	201507908.82525975
0.8522277665511693	200453931.0733405
0.8524408234928071	204194062.57914096
0.8526539336986805	207935129.11781886
0.8528670971821053	211677130.92313167
0.8530803139564007	215420068.2288914
0.8532935840348901	219222030.5977008
0.8535069074308987	223515537.52181077
0.8537202841577566	227810117.82265538
0.8539337142287962	232105771.76857564
0.8541471976573534	236402499.62797973
0.8543607344567677	240700301.66934943
0.8545743246403821	240434158.68157697
0.8547879682215422	239442971.88912323
0.8550016652135977	238451537.29997152
0.8552154156299011	237459854.85217246
0.8554292194838088	236467924.48376074
0.8556430767886797	235551994.95129794
0.855856987557877	234682132.70521802
0.8560709518047664	233812052.99357715
0.8562849695427177	232941755.76200804
0.8564990407851035	232071240.95613077
0.8567131655452999	230784901.7862357
0.8569273438366862	228817255.52574712
0.8571415756726455	226849117.35369304
0.8573558610665638	224880487.14709526
0.8575702000318304	222911364.78294796
0.8577845925818384	221754830.27415937
0.857999038729984	225676804.70215428
0.8582135384896665	229599759.62375528
0.858428091874289	233523695.2840869
0.8586426988972576	237448611.9283326
0.8588573595719821	241374509.80174068
0.8590720739118751	240847460.59287402
0.8592868419303532	239795148.136573
0.8595016636408359	238742572.6021579
0.8597165390567462	237689733.9238595
0.8599314681915105	236636632.03589132
0.8601464510585584	233685766.3204917
0.860361487671323	229726982.8414884
0.8605765780432408	225767209.66661647
0.8607917221877518	221806446.54844758
0.8610069201182988	217844693.23950022
0.8612221718483286	209598967.32394657
0.8614374773912907	195176681.5649132
0.8616528367606385	180750790.23444402
0.8618682499698288	166321292.4311331
0.8620837170323213	151888187.25337374
0.8622992379615795	139791420.4639727
0.8625148127710699	139271129.04919946
0.8627304414742627	138750707.5615725
0.8629461240846313	138230155.96857354
0.8631618606156526	137709474.2376763
0.8633776510808066	137188662.33634645
0.8635934954935769	144049393.7283174
0.8638093938674504	151516929.43038526
0.8640253462159173	158986332.01637837
0.8642413525524714	166457601.9530178
0.8644574128906095	173930739.70713985
0.8646735272438323	176186154.13659424
0.8648896956256433	176014877.6934032
0.8651059180495498	175843558.4311014
0.8653221945290621	175672196.3389842
0.8655385250776946	175500791.4063437
0.8657549097089641	177693923.40331626
0.8659713484363913	182914785.5973969
0.8661878412735006	188136953.0070285
0.866404388233819	193360425.9585118
0.8666209893308775	198585204.77823055
0.8668376445782103	202663693.15084237
0.8670543539893549	202059276.68381453
0.8672711175778525	201454709.11266947
0.8674879353572469	200849990.3996323
0.8677048073410862	200245120.50691667
0.8679217335429217	199640099.39672747
0.8681387139763074	198192723.71832424
0.8683557486548015	196703147.68111655
0.8685728375919655	195213199.24989772
0.8687899808013633	193722878.33157432
0.8690071782965637	192232184.83301944
0.869224430091138	190389555.84018695
0.8694417361986609	188403415.72270775
0.8696590966327107	186416779.07019964
0.869876511406869	184429645.7585283
0.8700939805347206	182442015.66352996
0.8703115040298544	181153207.09915474
0.870529081905862	180663599.61273015
0.8707467141763385	180173869.72443414
0.8709644008548827	179684017.40366605
0.8711821419550964	179194042.6198181
0.8713999374905854	179077650.9786547
0.871617787474958	180251018.0520419
0.8718356919218269	181424678.46719846
0.8720536508448075	182598632.29745892
0.8722716642575187	183772879.61617622
0.8724897321735832	184947420.49672374
0.8727078546066265	188235994.12102062
0.8729260315702784	191557546.794455
0.873144263078171	194879929.8560542
0.8733625491439405	198203143.5134191
0.8735808897812266	201527187.97419962
0.8737992850036719	201918223.51854932
0.874017734824923	201270238.95990804
0.8742362392586293	200622092.40512735
0.874454798318444	199973783.813708
0.8746734120180236	199325313.1451409
0.8748920803710283	199117606.73667982
0.875110803391121	199352937.39684728
0.8753295810919689	199588326.8896799
0.875548413487242	199823775.22988576
0.8757673005906139	200059282.43217665
0.8759862424157616	202181186.63795617
0.8762052389763657	209761829.71077493
0.8764242902861098	217344367.94435662
0.8766433963586814	224928801.81249872
0.8768625572077712	232515131.7891102
0.8770817728470732	240041222.35241875
0.8773010432902849	242717772.6703275
0.8775203685511077	245394992.12581962
0.8777397486432454	248072880.88617226
0.8779591835804065	250751439.11871824
0.8781786733763015	253430666.9908188
0.8783982180446457	249538709.1328028
0.878617817599157	243690774.1004299
0.8788374720535569	237841377.08430162
0.8790571814215703	231990517.71892077
0.8792769457169257	226138195.63869846
0.879496764953355	223389885.41107625
0.8797166391445934	223432914.04203367
0.8799365683043796	223475953.43014884
0.8801565524464557	223519003.57811105
0.8803765915845676	223562064.48861027
0.8805966857324639	224284919.25909197
0.880816834903897	226715366.0866649
0.881037039112623	229146420.52594566
0.8812572983724012	231578082.72883603
0.8814776126969944	234010352.84727818
0.8816979821001687	236423290.23231357
0.8819184065956938	238367421.04126665
0.8821388861973429	240312037.882924
0.8823594209188923	242257140.87878984
0.882580010774122	244202730.1504038
0.8828006557768155	246148805.8193367
0.8830213559407598	253010630.72040236
0.8832421112797452	261110409.5435088
0.8834629218075651	269212213.31131613
0.8836837875380171	277316042.53006786
0.8839047084849018	285421897.70612556
0.884125684662023	284264983.96203995
0.8843467160831886	275683230.7398314
0.8845678027622095	267099332.07931727
0.8847889447129001	258513287.4441364
0.8850101419490785	249925096.29779834
0.8852313944845657	244672609.5933509
0.885452702333187	246724957.28840277
0.8856740655087704	248777818.0703781
0.8858954840251476	250831192.0675484
0.8861169578961539	252885079.408217
0.886338487135628	254303585.21083122
0.886560071757412	247260332.0446422
0.8867817117753515	240215318.0651618
0.8870034072032955	233168542.83218333
0.8872251580550963	226120005.9054049
0.8874469643446101	219069706.84439042
0.8876688260856963	218356600.1335715
0.8878907432922178	218955243.10624596
0.8881127159780409	219554035.73966318
0.8883347441570356	220152978.07123947
0.8885568278430749	220752070.13839805
0.8887789670500358	220025175.4038543
0.8890011617917983	218357372.6103551
0.8892234120822464	216689152.86615676
0.8894457179352669	215020516.06702375
0.8896680793647509	213351462.1086896
0.8898904963845921	212953945.8806942
0.8901129690086883	214983253.88340214
0.8903354972509405	217013069.21311027
0.8905580811252535	219043391.99665236
0.8907807206455347	221074222.36088762
0.8910034158256963	223215664.93406153
0.8912261666796527	226341642.818024
0.8914489732213227	229468402.19645834
0.8916718354646282	232595943.26474038
0.8918947534234944	235724266.21828645
0.8921177271118502	238853371.25256896
0.8923407565436284	239911559.02145714
0.8925638417327644	240632060.80987892
0.8927869826931977	241352742.72374806
0.8930101794388711	242073604.8080956
0.8932334319837308	242794647.10796413
0.8934567403417267	243450428.47687072
0.8936801045268123	244065709.79399273
0.8939035245529441	244681144.9314436
0.8941270004340824	245296733.92767906
0.894350532184191	245912476.82116345
0.8945741198172371	248767729.33677146
0.8947977633471915	255337399.9527264
0.8950214627880284	261908712.98633507
0.8952452181537254	268481668.84819824
0.8954690294582639	275056267.94903076
0.8956928967156286	281354930.46065426
0.8959168199398075	285853770.7688474
0.8961407991447926	290353735.7871187
0.8963648343445789	294854825.7966444
0.896588925553165	299357041.07866997
0.8968130727845534	303860381.9145166
0.8970372760527496	305837391.77002513
0.8972615353717629	307498660.1320609
0.8974858507556059	309160343.81118727
0.8977102222182949	310822442.91123307
0.8979346497738496	312484957.53605473
0.8981591334362931	314161019.9681964
0.8983836732196523	315844683.0956755
0.8986082691379572	317528767.1389354
0.8988329212052417	319213272.20320606
0.8990576294355432	320898198.3937443
0.8992823938429022	322226394.0120234
0.8995072144413631	323023882.3339896
0.8997320912449734	323821570.028036
0.8999570242677847	324619457.1440058
0.9001820135238516	325417543.73175454
0.9004070590272328	327091063.728265
0.9006321607919896	333353276.73861027
0.9008573188321878	339617055.3022145
0.9010825331618959	345882399.81045663
0.9013078037951865	352149310.6548268
0.9015331307461353	358417788.2269048
0.9017585140288219	362004538.19245356
0.9019839536573292	365361065.71565795
0.9022094496457435	368718432.3707407
0.9024350020081551	372076638.367491
0.9026606107586572	375435683.9157394
0.902886275911347	378624700.5830101
0.9031119974803249	381732143.9252706
0.9033377754796951	384840364.1283667
0.903563609923565	387949361.3865122
0.903789500826046	391059135.8939743
0.9040154482012526	392555294.9920972
0.904241452063303	391960523.1492092
0.9044675124263188	391365602.61336064
0.9046936293044254	390770533.34737825
0.9049198027117517	390175315.31407905
0.9051460326624297	388784966.40178704
0.9053723191705955	384009051.28768766
0.9055986622503881	379231942.1948143
0.9058250619159507	374453638.8246675
0.9060515181814298	369674140.87867516
0.9062780310609752	364893448.0581997
0.9065046005687405	370464315.96729153
0.906731226718883	376614126.2370749
0.9069579095255627	382765473.9594177
0.907184649002944	388918359.5186916
0.907411445165195	395072783.2993615
0.9076382980264862	399822560.28359425
0.907865207600993	403989538.5188507
0.9080921739028933	408157558.4986647
0.9083191969463691	412326620.48347294
0.9085462767456058	416496724.7337795
0.9087734133147922	420422262.5387842
0.9090006066681211	424065100.3219405
0.909227856819788	427708848.8145377
0.9094551637839932	431353508.2442631
0.9096825275749393	434999078.8388448
0.9099099482068329	438708479.77624595
0.9101374256938848	442642423.10379726
0.9103649600503083	446577349.91717863
0.9105925512903209	450513260.4622626
0.9108201994281437	454450154.9849869
0.9110479044780008	458388033.7313374
0.9112756664541204	466697848.2329309
0.911503485370734	475109790.4924957
0.9117313612420768	483523835.73762554
0.9119592940823873	491939984.494064
0.912187283905908	500358237.2876942
0.9124153307268845	503321861.5978329
0.9126434345595664	504305751.672712
0.9128715954182063	505289887.720109
0.9130998133170609	506274269.8015182
0.9133280882703902	507258897.97844774
0.913556420292458	509507370.1192743
0.9137848093975312	513059571.4538656
