#wavelength	surface flux
0.8	13992534.839860238
0.8002000000000001	14201805.135311132
0.8004000500000003	14423769.56914992
0.8006001500125003	14645917.188934425
0.8008003000500035	14868120.345623894
0.8010005001250161	15090379.053102637
0.8012007502500472	15312693.325257927
0.8014010504376099	15534054.385910438
0.8016014007002193	15755132.872973815
0.8018018010503944	15976266.629658954
0.8020022515006572	16197455.669783365
0.8022027520635323	16418700.007167615
0.8024033027515483	16639742.823934346
0.8026039035772362	16860589.21634683
0.8028045545531306	17081490.82035743
0.8030052556917691	17302447.64976914
0.803206007005692	17523459.718388006
0.8034068085074435	17746360.779664654
0.8036076602095705	17974457.80740044
0.8038085621246229	18202611.85939298
0.8040095142651542	18430822.94989866
0.8042105166437206	18659091.093176886
0.8044115692728815	18887215.642028235
0.8046126721651998	19106766.418969102
0.8048138253332411	19326372.083604034
0.8050150287895745	19546032.649655323
0.805216282546772	19765748.130848072
0.8054175866174087	19985518.540911
0.8056189410140631	20219908.91212439
0.8058203457493168	20458480.725845035
0.8060218008357541	20697112.1825188
0.8062233062859632	20935803.297056854
0.8064248621125346	21174554.084373377
0.806626468328063	21421136.21416691
0.8068281249451449	21674454.900778756
0.8070298319763813	21927836.917062566
0.8072315894343755	22181282.278850257
0.8074333973317341	22434791.001978487
0.8076352556810671	22683407.405165277
0.8078371644949874	22920156.771970086
0.8080391237861113	23156965.32611665
0.8082411335670578	23393833.082401603
0.8084431938504498	23630760.05562588
0.8086453046489125	23867802.63950651
0.8088474659750746	24105954.158390015
0.8090496778415686	24344165.215153553
0.809251940261029	24582435.82468111
0.8094542532460944	24820766.001861252
0.8096566168094059	25059155.761585418
0.8098590309636085	25310266.9742059
0.8100614957213493	25564404.57528644
0.8102640110952797	25818605.710767284
0.8104665770980536	26072870.396532096
0.8106691937423283	26327198.648468446
0.8108718610407639	26581810.203035202
0.8110745790060241	26836653.419276144
0.8112773476507757	27091560.34632137
0.8114801669876885	27346531.000098288
0.8116830370294355	27601565.396538503
0.8118859577886929	27854769.022769384
0.8120889292781401	28104100.930727795
0.8122919515104597	28353495.171663184
0.8124950244983374	28602951.761158817
0.8126981482544621	28852470.714801785
0.8129013227915257	29105277.06798783
0.8131045481222237	29395073.592582002
0.8133078242592543	29684942.56630735
0.8135111512153191	29974884.00727606
0.813714529003123	30264897.933605038
0.8139179576353739	30554984.36341565
0.8141214371247829	30891918.43888615
0.8143249674840641	31238007.231178198
0.814528548725935	31584182.545668107
0.8147321808631167	31930444.40398711
0.8149358639083326	32276792.827770583
0.8151395978743097	32568448.297036596
0.8153433827737784	32823165.323498197
0.8155472186194719	33077946.02921632
0.8157511054241268	33332790.430110823
0.815955043200483	33587698.54210573
0.8161590319612831	33699964.43266932
0.8163630717192736	33550767.13429265
0.8165671624872033	33401532.536591552
0.8167713042778252	33252260.63024088
0.8169754971038948	33102951.405913547
0.8171797409781707	32824560.251795985
0.8173840359134155	31515896.471940026
0.8175883819223938	30206905.526140608
0.8177927790178745	28897587.33260399
0.8179972272126291	27587941.80951865
0.8182017265194322	26277968.87505386
0.8184062769510622	25883158.626296606
0.8186108785203001	25629130.063581366
0.8188155312399301	25375037.993725788
0.8190202351227402	25120882.40085246
0.819224990181521	24866663.26908108
0.8194297964290664	26129005.05366737
0.8196346538781738	28305805.1334811
0.8198395625416434	30483149.413313925
0.8200445224322789	32661038.02921762
0.820249533562887	34839471.11727465
0.8204545959462778	36564621.83694072
0.8206597095952644	37559781.577065684
0.8208648745226633	38555190.107126445
0.8210700907412941	39550847.48931956
0.8212753582639793	40546753.785857216
0.8214806771035456	41466027.9475758
0.8216860472728215	41911850.61390417
0.8218914687846397	42357784.73589915
0.822096941651836	42803830.34142486
0.822302465887249	43249987.458351694
0.8225080415037209	43696256.114558
0.8227136685140968	44069893.40445425
0.8229193469312254	44435366.2604041
0.8231250767679583	44800930.48456806
0.8233308580371503	45166586.09978786
0.8235366907516598	45532333.12891173
0.8237425749243477	46010398.61180892
0.8239485105680789	46548065.90298118
0.824154497695721	47085867.61097589
0.824360536320145	47623803.7693977
0.8245666264542252	48161874.411859095
0.8247727681108388	48626466.6216064
0.8249789613028664	48985747.37957308
0.8251852060431922	49345117.957729556
0.825391502344703	49704578.37853041
0.8255978502202894	50064128.664436795
0.8258042496828445	50418468.897676334
0.8260107007452654	50747158.18296619
0.8262172034204517	51075929.640577026
0.8264237577213068	51404783.29105236
0.8266303636607373	51733719.15494045
0.8268370212516525	52062737.25279435
0.8270437305069654	52351048.68201148
0.8272504914395923	52636244.79983412
0.8274573040624523	52921512.21668628
0.8276641683884679	53206850.9503924
0.8278710844305652	53492261.018782295
0.8280780522016729	53809517.504439875
0.8282850717147234	54141377.62747455
0.8284921429826521	54473320.715539634
0.8286992660183978	54805346.789377
0.8289064408349024	55137455.86973259
0.8291136674451112	55477511.42487824
0.8293209458619727	55827567.40720324
0.8295282760984382	56177710.90352336
0.829735658167463	56527941.93571797
0.8299430920820048	56878260.52567018
0.8301505778550254	57234798.90467431
0.8303581154994891	57615901.86174724
0.8305657050283641	57997100.094559826
0.8307733464546212	58378393.62693032
0.8309810397912352	58759782.482684515
0.8311887850511829	59141266.685651906
0.8313965822474458	59604175.00526186
0.8316044313930077	60070973.949242845
0.8318123325008561	60537889.59296026
0.8320202855839813	61004921.96558838
0.8322282906553774	61472071.0963097
0.8324363477280413	61881055.179801166
0.8326444568149735	62266677.44834927
0.8328526179291771	62652396.12246406
0.8330608310836596	63038211.22624796
0.8332690962914304	63424122.78380729
0.8334774135655034	63756978.95716422
0.833685782918895	64030545.9691393
0.8338942043646247	64304181.37286721
0.834102677915716	64577885.185446255
0.834311203585195	64851657.42397822
0.8345197813860912	65147901.59812632
0.8347284113314379	65519632.08434988
0.8349370934342709	65891455.50319479
0.8351458277076294	66263371.877893955
0.8353546141645565	66635381.23168741
0.8355634528180977	67007483.58781917
0.8357723436813022	67316121.73942874
0.8359812867672226	67624052.28072932
0.8361902820889144	67932059.80466509
0.8363993296594368	68240144.33048193
0.8366084294918518	68548305.87743032
0.8368175815992247	68925378.74619146
0.8370267859946247	69326253.11670072
0.8372360426911234	69727227.70580249
0.8374453517017962	70128302.53855148
0.8376547130397217	70529477.64000863
0.8378641267179816	70927578.0630775
0.8380735927496613	71322627.6135297
0.8382831111478488	71717775.92636928
0.8384926819256358	72113023.02628686
0.8387023050961173	72508368.93797977
0.8389119806723914	72882571.80742902
0.8391217086675596	73197086.6398721
0.8393314890947265	73511680.10102306
0.8395413219670003	73826352.21053934
0.8397512072974922	74141102.98808321
0.8399611450993165	74455425.39726499
0.8401711353855914	74744646.16451392
0.8403811781694378	75033939.23695457
0.8405912734639802	75323304.6326634
0.8408014212823464	75612742.3697213
0.8410116216376671	75902252.46621342
0.8412218745430766	76130655.13473088
0.8414321800117124	76341313.9413624
0.8416425380567154	76552025.41269569
0.8418529486912297	76762789.56189686
0.8420634119284025	76973606.40213515
0.8422739277813847	77437769.08662668
0.8424844962633302	78125208.89688653
0.842695117387396	78812820.56709807
0.8429057911667428	79500604.14022718
0.8431165176145345	80188559.65924992
0.8433272967439382	80561770.14537713
0.8435381285681244	80166903.99147832
0.8437490131002665	79771939.12104112
0.8439599503535415	79376875.50938654
0.84417094034113	78981713.13182877
0.8443819830762154	78607759.42114733
0.8445930785719846	78662952.77429971
0.8448042268416277	78718159.92579035
0.8450154278983382	78773380.87906885
0.8452266817553128	78828615.63758568
0.8454379884257517	78883864.20479214
0.8456493479228583	79288170.56335114
0.845860760259839	79776631.98366018
0.846072225449904	80265215.51932429
0.8462837435062666	80753921.20087242
0.8464953144421433	81242749.05884121
0.8467069382707537	81681771.97406888
0.8469186150053215	82081987.96518265
0.847130344659073	82482304.0102943
0.8473421272452377	82882720.13441685
0.8475539627770492	83283236.36257084
0.8477658512677435	83635819.427884
0.8479777927305605	83886498.26874326
0.8481897871787432	84137239.77931269
0.848401834625538	84388043.9752599
0.8486139350841944	84638910.87225594
0.8488260885679657	84839349.6389438
0.8490382950901076	84424373.01432796
0.8492505546638802	84009292.64555573
0.8494628673025462	83594108.50669149
0.8496752330193721	83178820.57179189
0.8498876518276269	82763428.81490915
0.8501001237405839	79288388.68714596
0.8503126487715191	75201740.97828415
0.850525226933712	71114071.6074974
0.8507378582404455	67025380.319367975
0.8509505427050057	62935666.85841414
0.8511632803406821	59446552.07127692
0.8513760711607672	56368565.293523885
0.8515889151785576	53289809.01907164
0.8518018124073523	50210283.05555335
0.8520147628604541	47129987.210546
0.8522277665511693	46140491.166545555
0.8524408234928071	49018853.4095938
0.8526539336986805	51897935.24320357
0.8528670971821053	54777736.847271934
0.8530803139564007	57658258.40173792
0.8532935840348901	60794802.36116815
0.8535069074308987	66088288.62503507
0.8537202841577566	71383098.2604724
0.8539337142287962	76679231.59831919
0.8541471976573534	81976688.96949713
0.8543607344567677	87275470.70501882
0.8545743246403821	88749736.17667021
0.8547879682215422	89616782.94317415
0.8550016652135977	90484046.47136961
0.8552154156299011	91351526.81544715
0.8554292194838088	92219224.02961135
0.8556430767886797	92684413.03998989
0.855856987557877	92905194.28644642
0.8560709518047664	93126030.72821443
0.8562849695427177	93346922.37909296
0.8564990407851035	93567869.25288427
0.8567131655452999	93638149.29488575
0.8569273438366862	93461483.76762083
0.8571415756726455	93284774.07397406
0.8573558610665638	93108020.2029038
0.8575702000318304	92931222.143366
0.8577845925818384	92904997.95632479
0.857999038729984	93819583.1791896
0.8582135384896665	94734397.0483599
0.858428091874289	95649439.62099756
0.8586426988972576	96564710.95427814
0.8588573595719821	97480211.10539234
0.8590720739118751	97143936.79154055
0.8592868419303532	96659963.47435087
0.8595016636408359	96175869.16383189
0.8597165390567462	95691653.82973544
0.8599314681915105	95207317.44180533
0.8601464510585584	93238160.81852376
0.860361487671323	90480443.96077976
0.8605765780432408	87722037.67382212
0.8607917221877518	84962941.78529046
0.8610069201182988	82203156.12278743
0.8612221718483286	77378892.1263759
0.8614374773912907	69578191.81069653
0.8616528367606385	61775541.31994034
0.8618682499698288	53970940.166556545
0.8620837170323213	46164387.862885684
0.8622992379615795	39641113.47997199
0.8625148127710699	39476316.969805166
0.8627304414742627	39311479.26051078
0.8629461240846313	39146600.34178905
0.8631618606156526	38981680.203337625
0.8633776510808066	38816718.834851615
0.8635934954935769	41057655.395233214
0.8638093938674504	43496371.37492279
0.8640253462159173	45935697.033607215
0.8642413525524714	48375632.52370625
0.8644574128906095	50816177.9976773
0.8646735272438323	52512950.91892907
0.8648896956256433	53863989.457119584
0.8651059180495498	55215365.75494472
0.8653221945290621	56567079.896843016
0.8655385250776946	57919131.96727868
0.8657549097089641	59452513.885965005
0.8659713484363913	61217988.48582722
0.8661878412735006	62983904.45434023
0.866404388233819	64750261.90184512
0.8666209893308775	66517060.93871107
0.8668376445782103	67926757.35463575
0.8670543539893549	67877486.31791832
0.8672711175778525	67828202.96344167
0.8674879353572469	67778907.28812647
0.8677048073410862	67729599.28889242
0.8679217335429217	67680278.96265852
0.8681387139763074	68070598.44334657
0.8683557486548015	68482856.30195858
0.8685728375919655	68895217.22503574
0.8687899808013633	69307681.23834278
0.8690071782965637	69720248.36765368
0.869224430091138	69182290.61288081
0.8694417361986609	68257389.02667542
0.8696590966327107	67332256.21507369
0.869876511406869	66406892.12026901
0.8700939805347206	65481296.68444107
0.8703115040298544	64853874.45978057
0.870529081905862	64567458.17406279
0.8707467141763385	64280970.28427368
0.8709644008548827	63994410.77251214
0.8711821419550964	63707779.620872825
0.8713999374905854	63508163.52114221
0.871617787474958	63609063.968249775
0.8718356919218269	63709989.640469216
0.8720536508448075	63810940.54410672
0.8722716642575187	63911916.685470074
0.8724897321735832	64012918.07086881
0.8727078546066265	65022498.77501253
0.8729260315702784	66046153.9621246
0.873144263078171	67070065.06303236
0.8733625491439405	68094232.14171544
0.8735808897812266	69118655.26216859
0.8737992850036719	69184667.43716443
0.874017734824923	68911152.00879897
0.8742362392586293	68637568.20157655
0.874454798318444	68363915.99840233
0.8746734120180236	68090195.38217734
0.8748920803710283	67974650.52085014
0.875110803391121	68018097.1007143
0.8753295810919689	68061554.54222344
0.875548413487242	68105022.84809297
0.8757673005906139	68148502.02103896
0.8759862424157616	68916861.59744097
0.8762052389763657	71782857.46795096
0.8764242902861098	74649569.83742657
0.8766433963586814	77516998.88499534
0.8768625572077712	80385144.78982687
0.8770817728470732	83223677.50290772
0.8773010432902849	83694812.15953945
0.8775203685511077	84166064.59983599
0.8777397486432454	84637434.85324204
0.8779591835804065	85108922.949212
0.8781786733763015	85580528.91720533
0.8783982180446457	83931386.5145739
0.878617817599157	81650913.75241452
0.8788374720535569	79369870.8720657
0.8790571814215703	77088257.73099732
0.8792769457169257	74806074.18664366
0.879496764953355	73986281.35357662
0.8797166391445934	74481581.83152257
0.8799365683043796	74977006.13458806
0.8801565524464557	75472554.2937293
0.8803765915845676	75968226.33991079
0.8805966857324639	76506532.45472267
0.880816834903897	77151745.90039699
0.881037039112623	77797120.64943299
0.8812572983724012	78442656.74215618
0.8814776126969944	79088354.21890283
0.8816979821001687	79715878.65497415
0.8819184065956938	79911963.5789742
0.8821388861973429	80108097.52420545
0.8823594209188923	80304280.50292282
0.882580010774122	80500512.52738479
0.8828006557768155	80696793.60985297
0.8830213559407598	82586477.12442726
0.8832421112797452	84902528.61913273
0.8834629218075651	87219159.12671046
0.8836837875380171	89536368.79191579
0.8839047084849018	91854157.7595378
0.884125684662023	91632491.65523276
0.8843467160831886	89375256.86702779
0.8845678027622095	87117457.77012576
0.8847889447129001	84859094.22344908
0.8850101419490785	82600166.08588615
0.8852313944845657	82773438.97275466
0.885452702333187	88271781.03840283
0.8856740655087704	93771497.68956661
0.8858954840251476	99272589.26989171
0.8861169578961539	104775056.12310934
0.886338487135628	109630320.60614145
0.886560071757412	105855907.77517764
0.8867817117753515	102080551.34100619
0.8870034072032955	98304251.06772448
0.8872251580550963	94527006.71937889
0.8874469643446101	90748818.05994388
0.8876688260856963	90501026.92539051
0.8878907432922178	90984030.34165454
0.8881127159780409	91467154.5087723
0.8883347441570356	91950399.45693244
0.8885568278430749	92433765.21632911
0.8887789670500358	91715925.91185808
0.8890011617917983	90145718.21173702
0.8892234120822464	88575117.95969023
0.8894457179352669	87004125.0575817
0.8896680793647509	85432739.4072464
0.8898904963845921	84390986.38397993
0.8901129690086883	84360275.47766255
0.8903354972509405	84329556.8936186
0.8905580811252535	84298830.62992862
0.8907807206455347	84268096.68467276
0.8910034158256963	84301601.41026673
0.8912261666796527	84909281.85935111
0.8914489732213227	85517114.22854795
0.8916718354646282	86125098.55583768
0.8918947534234944	86733234.87920864
0.8921177271118502	87341523.23666006
0.8923407565436284	86113270.51092657
0.8925638417327644	84585096.12634878
0.8927869826931977	83056539.69817433
0.8930101794388711	81527601.13089293
0.8932334319837308	79998280.32896997
0.8934567403417267	79027228.9750111
0.8936801045268123	78403071.17662492
0.8939035245529441	77778757.33878958
0.8941270004340824	77154287.42249455
0.894350532184191	76529661.38872059
0.8945741198172371	78323753.38389038
0.8947977633471915	84129708.20631954
0.8950214627880284	89937114.51745406
0.8952452181537254	95745972.68016292
0.8954690294582639	101556283.05741595
0.8956928967156286	107113825.11305673
0.8959168199398075	111022953.47905159
0.8961407991447926	114933059.12713896
0.8963648343445789	118844142.30163823
0.896588925553165	122756203.24692893
0.8968130727845534	126669242.20745644
0.8970372760527496	126758828.19956368
0.8972615353717629	126369923.22454634
0.8974858507556059	125980921.0232852
0.8977102222182949	125591821.57147384
0.8979346497738496	125202624.84479931
0.8981591334362931	125026810.85310797
0.8983836732196523	124967700.11893053
0.8986082691379572	124908574.6070696
0.8988329212052417	124849434.31383069
0.8990576294355432	124790279.23551841
0.8992823938429022	124566038.81193967
0.8995072144413631	124096303.38799828
0.8997320912449734	123626450.53020108
0.8999570242677847	123156480.20918953
0.9001820135238516	122686392.3955977
0.9004070590272328	122803206.17042191
0.9006321607919896	125997403.59456249
0.9008573188321878	129192399.56806234
0.9010825331618959	132388194.29055405
0.9013078037951865	135584787.96172687
0.9015331307461353	138782180.7813158
0.9017585140288219	141603482.72658572
0.9019839536573292	144393027.46557754
0.9022094496457435	147183269.59075212
0.9024350020081551	149974209.27646112
0.9026606107586572	152765846.6970907
0.902886275911347	153961657.8616731
0.9031119974803249	154388132.20296112
0.9033377754796951	154814713.16283447
0.903563609923565	155241400.76794758
0.903789500826046	155668195.04496226
0.9040154482012526	155042496.69032827
0.904241452063303	153053091.38620448
0.9044675124263188	151063188.7307551
0.9046936293044254	149072788.59964216
0.9049198027117517	147081890.86849543
0.9051460326624297	145204593.3206587
0.9053723191705955	143812681.88287765
0.9055986622503881	142420422.46723843
0.9058250619159507	141027814.98674524
0.9060515181814298	139634859.35438108
0.9062780310609752	138241555.48310977
0.9065046005687405	141067761.32018858
0.906731226718883	144130087.11237863
0.9069579095255627	147193178.48601273
0.907184649002944	150257035.63249046
0.907411445165195	153321658.7432579
0.9076382980264862	155520289.07763988
0.907865207600993	157359505.69039547
0.9080921739028933	159199182.10730374
0.9083191969463691	161039318.44331595
0.9085462767456058	162879914.81341302
0.9087734133147922	163673263.11057627
0.9090006066681211	163256693.761785
0.909227856819788	162840020.27065712
0.9094551637839932	162423242.61115584
0.9096825275749393	162006360.75723985
0.9099099482068329	161917237.43615127
0.9101374256938848	162993321.74444303
0.9103649600503083	164069675.07381138
0.9105925512903209	165146297.49151188
0.9108201994281437	166223189.0648179
0.9110479044780008	167300349.86101604
0.9112756664541204	170789527.0410832
0.911503485370734	174334780.98123872
0.9117313612420768	177880921.2348793
0.9119592940823873	181427948.02358225
0.912187283905908	184975861.56898347
0.9124153307268845	185388588.58033454
0.9126434345595664	184663207.39684245
0.9128715954182063	183937644.86805516
0.9130998133170609	183211900.94863534
0.9133280882703902	182485975.59323567
0.913556420292458	182088079.09829363
0.9137848093975312	182028571.30087894
0.9140132555998806	181969048.6265149
0.9142417589137806	181909511.07148227
0.9144703193535092	181849958.63206083
0.9146989369333476	182027729.86279634
0.9149276116675811	182921366.02988264
