#wavelength	surface flux
0.6450077295303345	3532.2281758454023
0.6472567915916443	3936.609829628995
0.6494921445846558	4445.415806469279
0.6517150402069092	4973.072047717381
0.6539263725280762	5543.050570682418
0.6561272740364075	6132.968752444145
0.6583186388015747	6751.087868327923
0.6605015397071838	7458.761190201844
0.6626768708229065	8201.383729446241
0.6648455858230591	8999.108692675982
0.6670085787773132	9795.503999479104
0.6691668033599854	9952.424826414335
0.6713210344314575	9804.059946178459
0.6734722256660461	12419.171869365266
0.6756211519241333	13585.363957171205
0.6777685880661011	14644.544699031096
0.6799154281616211	15727.372446223311
0.6820623278617859	16835.32886512923
0.6842101216316223	17965.226129589482
0.6863595843315125	19097.495191680377
0.688511312007904	20216.48499334576
0.6906660795211792	21096.274299425244
0.6928245425224304	21310.00486908665
0.6949873566627502	22776.813793465826
0.6971551775932312	24393.577657366306
0.6993286609649658	25353.635391105843
0.7015084028244019	25856.18223809406
0.7036949396133423	26916.369828896022
0.7058889269828796	27744.44411570398
0.7080909013748169	28425.913987262127
0.710301399230957	28906.603428200957
0.712520956993103	29255.43521114357
0.7147500514984131	29096.234834881936
0.7169892191886902	27281.69640622647
0.7192389369010925	26727.034504926112
0.7214996814727783	27283.41029485137
0.723771870136261	26327.384545582696
0.7260559797286987	24890.703674908764
0.7283523678779602	24080.443574587975
0.7306615710258484	22491.337477198747
0.7329838871955872	21793.9545100899
0.7353196740150452	20547.128812653937
0.7376693487167358	18661.42105366072
0.7400332689285278	17187.82003149681
0.7424117922782898	15291.995667688077
0.7448052167892456	13521.71895174189
0.7472138404846191	11686.172544419613
0.7496379613876343	9847.0917459322
0.7520779371261597	8047.460927222426
0.7545340061187744	6359.124378496991
0.7570064663887024	4795.568824447691
0.7594954967498779	3378.5844318716954
0.7620013952255249	2081.0832122619563
0.7645244002342224	865.5944599683115
0.7670646905899048	253.28459178821203
0.7696225643157959	288.178014949042
0.7721980810165405	1510.7940079848413
0.7747915983200073	3450.9369881289003
0.7774031162261963	5667.053647239831
0.7800329327583313	7129.914255756783
0.7826811671257019	11678.38220885874
0.7853479981422424	16141.236287762116
0.7880334854125977	21153.951517229874
0.7907378077507019	26616.25667617575
0.7934610247612	19999.913051205207
0.7962033748626709	30277.43411232079
0.7989648580551147	49387.27507024481
0.801745593547821	60192.612977881705
0.8045456409454346	71575.28286254508
0.8073651194572449	83573.83811700079
0.8102040886878967	91882.45182262946
0.8130625486373901	99588.79013738455
0.8159406185150146	120309.17597960569
0.8188382983207703	138691.4671802559
0.8217556476593018	162330.1007573001
0.8246926665306091	183103.4662657043
0.8276493549346924	210501.19029146398
0.8306257724761963	232832.32177711756
0.8336219191551208	262454.6316232614
0.8366377949714661	285836.75905965315
0.8396733403205872	323157.67803158413
0.8427285552024841	365184.22101585614
0.8458034992218018	414086.4942195934
0.8488980531692505	463613.881961135
0.8520121574401855	372559.73657652986
0.8551458716392517	561739.368690144
0.8582990765571594	653100.3719486737
0.8614717125892639	717189.1567887715
0.8646637797355652	789540.0861687104
0.8678751587867737	869590.9040521728
0.8711057901382446	965133.6711499245
0.8743556141853333	1054068.1514337438
0.87762451171875	1147371.3599567967
0.8809124231338501	1205516.7766505436
0.8842192888259888	1245076.5634022069
0.8875449895858765	1280024.187900664
0.8908893465995789	1269207.4610927016
0.894252359867096	834126.4988899915
0.8976338505744934	1338360.6091943188
0.9010337591171265	1735155.7080235644
0.9044519662857056	2110312.48188046
0.9078882932662964	2125443.9083638354
0.9113426208496094	2253414.558879916
0.914814829826355	2394852.588251123
0.9183048605918884	2140826.154239333
0.9218124747276306	2698114.2391630695
0.925337553024292	2151526.886578312
0.9288799166679382	462036.0202892788
0.9324395060539246	731451.6041826783
0.9360161423683167	942603.0940438388
0.9396095871925354	1727154.9827232838
0.943219780921936	872322.2598216494
0.9468464851379395	637950.1889867747
0.9504896402359009	810223.0930646565
0.9541489481925964	1288530.86165338
0.9578243494033813	1622326.7349255083
0.9615156054496765	889347.7244024851
0.9652225375175476	1044389.1757898467
0.9689450263977051	1383926.8461061628
0.9726828336715698	3281674.7681092904
0.9764357805252075	3097003.5274864975
0.9802037477493286	3066405.7174711674
0.983986496925354	3807610.356653551
0.9877838492393494	4490100.68838431
0.9915955662727356	5455497.927555795
0.9954215884208679	6158249.311892201
0.9992615580558777	6711938.038955372
1.0031154155731201	7171764.405324338
1.0069829225540161	8156441.2635129895
1.0108637809753418	8967911.049037257
1.0147579908370972	10073725.411824213
1.018665075302124	10626616.61123559
1.022585153579712	10955830.325769393
1.0265177488327026	11157072.917613097
1.0304628610610962	11730313.204067495
1.0344202518463135	12718597.204514485
1.0383895635604858	13340419.928436093
1.0423706769943237	13671142.474323068
1.0463634729385376	13949598.687229034
1.0503677129745483	14082495.23262158
1.0543830394744873	14571098.955591464
1.058409333229065	14943973.37885255
1.0624464750289917	15384424.342629418
1.0664942264556885	15268918.440618282
1.0705522298812866	14715851.615947813
1.0746204853057861	15352548.738147993
1.0786986351013184	15293963.986280754
1.0827864408493042	15415719.219415588
1.086883783340454	14431103.815363768
1.0909905433654785	11207226.257230707
1.0951062440872192	7525834.579188395
1.0992310047149658	5608620.614086205
1.10336434841156	1883451.496142595
1.1075061559677124	2166757.4307987425
1.1116561889648438	904654.8626559556
1.115814208984375	804814.9863731805
1.1199802160263062	619293.2547976013
1.124153733253479	166594.2275531381
1.1283347606658936	877247.3712193079
1.1325229406356812	365699.0917093767
1.1367181539535522	1498706.5638981918
1.1409201622009277	1622514.326660087
1.145128846168518	967500.4026917545
1.1493438482284546	1363406.7733523953
1.1535650491714478	255855.0949245898
1.1577922105789185	504704.4050730555
1.1620250940322876	575616.801766714
1.1662636995315552	1014927.3257388516
1.170507550239563	1051250.6577520957
1.174756646156311	2191084.0653582164
1.1790107488632202	3632445.588386587
1.1832695007324219	5940721.800046109
1.1875330209732056	6992916.715771808
1.191800832748413	8563504.032593956
1.1960728168487549	11880088.976204418
1.2003488540649414	12470773.037042588
1.2046287059783936	15057320.560082398
1.2089121341705322	15180577.42325488
1.2131990194320679	15723968.482175207
1.2174891233444214	18115112.97726298
1.2217823266983032	19828612.525638342
1.2260783910751343	21534170.376284245
1.230377197265625	22156775.15797446
1.2346785068511963	23395660.17437653
1.238982081413269	25037714.969027463
1.2432878017425537	25209999.40928113
1.2475954294204712	26842447.83699764
1.2519049644470215	26210489.472515088
1.256216049194336	28951493.128825065
1.2605286836624146	29386917.98645901
1.2648425102233887	28703455.362634987
1.2691574096679688	29315207.40649804
1.2734732627868652	28654481.929268118
1.2777899503707886	28638130.55140162
1.2821072340011597	24537536.842495203
1.2864248752593994	23687757.5282448
1.2907428741455078	18670097.11054925
1.2950609922409058	17895716.506292973
1.2993791103363037	17229964.646759253
1.303696870803833	17867947.196267307
1.3080145120620728	17336946.8675851
1.3123314380645752	14657013.323334454
1.3166478872299194	16247363.118124707
1.3209635019302368	15042958.198966032
1.3252781629562378	8588141.091985144
1.3295916318893433	4961805.606332919
1.3339040279388428	1007547.3327740801
1.3382149934768677	176330.67055932907
1.3425244092941284	44770.79590110932
1.3468321561813354	82549.07300889298
1.3511382341384888	7446.243213428232
1.3554422855377197	15607.616456397707
1.3597444295883179	13385.702620495535
1.3640443086624146	9849.82012938346
1.3683418035507202	6551.859607202252
1.3726370334625244	23706.19282495301
1.3769296407699585	19256.813477232514
1.381219506263733	2226.916593704066
1.3855066299438477	1692.691007834224
1.3897908926010132	7093.010907951914
1.3940720558166504	21221.482505667067
1.3983501195907593	24208.234749169478
1.4026249647140503	73978.86686483661
1.4068963527679443	108227.44429919409
1.4111642837524414	20314.352422360244
1.4154287576675415	14490.612067954438
1.419689416885376	20829.3633921499
1.4239463806152344	20997.155389738473
1.4281994104385376	73051.31737253982
1.4324485063552856	50039.26364041788
1.436693549156189	65923.62886311726
1.440934419631958	135656.60192205137
1.4451709985733032	185947.47261592533
1.449403166770935	321490.8325717851
1.453631043434143	369587.47461153276
1.4578542709350586	588783.455911776
1.4620729684829712	648501.1468804362
1.4662868976593018	553689.1844972556
1.4704961776733398	550107.0857664162
1.4747005701065063	591342.5282466225
1.4788999557495117	469251.9903242847
1.4830944538116455	536884.2256508524
1.4872838258743286	429796.8359128508
1.491468071937561	341158.78827872145
1.4956470727920532	440935.5858074395
1.4998208284378052	725638.0780993744
1.5039892196655273	1451914.635976254
1.5081522464752197	1264764.5226726152
1.5123097896575928	1413132.709928935
1.5164618492126465	2294218.6913770754
1.5206083059310913	2680572.0438582255
1.5247491598129272	3183414.126164356
1.5288842916488647	4379237.485884558
1.5330137014389038	4759927.270886872
1.5371372699737549	5264367.146728646
1.541254997253418	7049979.620204011
1.545366883277893	7399355.023082286
1.5494728088378906	8390189.61840165
1.5535727739334106	9726565.881696256
1.5576666593551636	10790721.936685221
1.561754584312439	12960417.317328334
1.5658363103866577	14801338.373239934
1.5699119567871094	15266571.253567327
1.5739814043045044	14480069.538383711
1.5780447721481323	14592266.432523996
1.582101821899414	15336277.311756646
1.5861525535583496	16343870.943165584
1.5901970863342285	15453121.66062938
1.5942351818084717	14369143.727816274
1.5982669591903687	14300610.315261895
1.6022924184799194	13029125.79601126
1.606311559677124	11557797.244544547
1.6103241443634033	10942264.669223897
1.6143304109573364	9867453.80997541
1.6183301210403442	8138249.856569688
1.6223233938217163	6371090.023636004
1.6263102293014526	5142927.823923422
1.6302905082702637	4225527.456316291
1.634264349937439	5250781.509769258
1.638231635093689	9042573.31346438
1.6421923637390137	8262716.476833383
1.646146535873413	3537405.3222641638
1.6500942707061768	3593622.4421237377
1.6540353298187256	6855875.29104628
1.6579699516296387	6412513.191771927
1.661897897720337	6122277.47032361
1.6658192873001099	3059506.113955822
1.6697341203689575	1508115.6467767837
1.6736423969268799	3540291.1934967875
1.677544116973877	2787385.539828385
1.6814392805099487	2767095.636482367
1.6853278875350952	2627052.529895936
1.6892099380493164	1991554.8135952256
1.6930854320526123	1468807.3200838608
1.696954369544983	837862.5830673517
1.7008168697357178	1085150.9709180337
1.7046726942062378	1055863.5836430325
1.708522081375122	1693019.0701046067
1.712364912033081	2304156.86053277
1.7162011861801147	2969171.171896723
1.7200311422348022	3495300.9253835925
1.723854422569275	2953589.1496830187
1.7276713848114014	2563029.2814702103
1.731481909751892	2320575.084198227
1.7352858781814575	2241965.649941217
1.7390835285186768	2239600.1416107714
1.7428747415542603	2149962.4388041147
1.7466596364974976	1972975.9847018474
1.7504380941390991	1896171.2315641853
1.7542102336883545	1243190.1387875164
1.7579760551452637	1141947.2551421248
1.7617355585098267	1146444.321754356
1.7654887437820435	902936.6487730937
1.7692357301712036	652297.2309740477
1.7729763984680176	571311.2903728635
1.776710867881775	340116.82300452184
1.7804391384124756	305429.6050597007
1.7841613292694092	330721.835865758
1.7878772020339966	189971.95482008203
1.7915871143341064	125597.75338683765
1.7952908277511597	143890.77245741733
1.7989884614944458	202912.73115896175
1.8026801347732544	67275.74056482481
1.806365728378296	29211.621040090755
1.8100452423095703	21760.645444782276
1.8137187957763672	13592.545282637175
1.817386507987976	12583.190927931022
1.8210482597351074	12125.793346129265
1.8247040510177612	11153.090352037161
1.828354001045227	6695.829163504707
1.8319982290267944	7535.086552370644
1.8356364965438843	6885.8954283668845
1.8392690420150757	13292.43278175978
1.8428958654403687	69964.87946855486
1.8465168476104736	124911.9778029802
1.8501322269439697	61344.56063881491
1.8537418842315674	27747.424379738637
1.8573459386825562	68479.88900933236
1.860944390296936	61765.32551998268
1.864537239074707	26735.989119032525
1.8681244850158691	30335.895835311872
1.871706247329712	15240.061276261324
1.8752825260162354	39827.84560906124
1.8788533210754395	197593.23497263127
1.8824186325073242	220436.65055199
1.8859784603118896	101841.95873331174
1.8895330429077148	89252.75668397556
1.8930821418762207	291104.29149116133
1.8966259956359863	373165.7085508404
1.9001644849777222	67338.31793046798
1.9036977291107178	23882.305616599857
1.9072256088256836	76360.05875233051
1.9107483625411987	53744.68689889574
1.9142658710479736	14992.969880890692
1.9177782535552979	11023.44946133793
1.9212853908538818	7030.469080090456
1.9247875213623047	9863.716164672322
1.9282845258712769	13474.295462085454
1.9317764043807983	17101.22234745904
1.9352631568908691	25134.691558571903
1.9387450218200684	35257.215974266874
1.942221760749817	39317.34410462141
1.9456936120986938	41073.238477474646
1.9491604566574097	81922.96053886309
1.952622413635254	80677.24274334664
1.956079363822937	36418.77446230185
1.959531545639038	48620.90692652666
1.962978720664978	106949.4110391434
1.966421127319336	181686.54641267424
1.9698586463928223	258337.8139052654
1.9732913970947266	253147.0383984954
1.9767193794250488	176347.9979683376
1.9801424741744995	186690.90489800734
1.9835609197616577	411338.7226503085
1.9869745969772339	494466.8746518184
1.990383505821228	372034.0988900941
1.9937876462936401	270464.25440102705
1.9971871376037598	469465.0499597094
2.000581979751587	736002.1452963313
2.003972291946411	547947.5470110686
2.007357597351074	583060.6501927866
2.0107386112213135	1125129.1269590158
2.0141148567199707	1076257.987564073
2.017486572265625	888050.1657940139
2.0208535194396973	945206.1556648081
2.0242159366607666	832169.6565755447
2.027573823928833	1039672.4078602648
2.0309269428253174	1246357.5438556175
2.034275770187378	1208908.9458940274
2.0376198291778564	1405841.378765194
2.040959596633911	1707210.213925586
2.044294595718384	2034931.8856568006
2.0476250648498535	2517516.979647522
2.0509510040283203	2487224.2208046527
2.054272413253784	2280705.515319241
2.057589530944824	2494008.6766091767
2.0609018802642822	2819144.1078093476
2.0642096996307373	2871161.7720039827
2.0675129890441895	2904510.0878394707
2.0708119869232178	2908319.4053558563
2.074106216430664	2874920.4699156503
2.0773961544036865	2854644.2137920633
2.080681324005127	2843539.60850595
2.0839622020721436	2852657.7661709483
2.087238311767578	2896603.7052679416
2.090510129928589	2906882.106002383
2.0937774181365967	2867046.036008613
2.0970399379730225	2838324.923853832
2.1002981662750244	2774976.4853685116
2.1035518646240234	2697088.8919247533
2.1068007946014404	2615698.678745688
2.1100454330444336	2573541.206413481
2.1132853031158447	2563181.334994615
2.116520881652832	2520343.474387675
2.1197516918182373	2463165.3691183147
2.1229779720306396	2424596.8493475546
2.12619948387146	2387687.3026532233
2.1294167041778564	2341087.6760682967
2.132629156112671	2309611.2491403185
2.1358368396759033	2220449.5073398286
2.139039993286133	2132640.5425188076
2.1422386169433594	2013363.4612139359
2.145432472229004	1910127.20038236
2.1486217975616455	1851580.4689969588
2.151806354522705	1695573.572872881
2.1549863815307617	1669362.5288319706
2.1581614017486572	1684835.9035350243
2.16133189201355	1592160.838484563
2.1644976139068604	1532064.1891937328
2.167658567428589	1466303.454480276
2.1708147525787354	1451253.5460985578
2.173966407775879	1438618.2019392701
2.1771130561828613	1350299.3937877398
2.1802549362182617	1210045.8034779774
2.183391809463501	1127270.6964902673
2.1865241527557373	1040895.957457699
2.1896514892578125	834491.2725587696
2.1927738189697266	545892.5373905394
2.1958916187286377	354722.8914824566
2.1990041732788086	259025.6383259257
2.2021119594573975	191853.82441362482
2.2052149772644043	181478.54420961437
2.208312749862671	225963.52332266406
2.2114057540893555	297075.8165643212
2.214493751525879	347111.8923306299
2.217576742172241	336211.2307690521
2.2206547260284424	277903.985330473
2.2237277030944824	225173.22786351127
2.2267956733703613	200888.4419577188
2.2298583984375	195596.81639993214
2.2329163551330566	188192.0338318433
2.235969066619873	173776.51259945106
2.2390167713165283	154952.02415136312
2.2420592308044434	117045.7854969521
2.2450966835021973	67884.44028214681
2.248128890991211	61801.7227716209
2.2511560916900635	90091.09519923794
2.254178285598755	95386.46767774926
2.257194995880127	89023.05545814031
2.260206699371338	90772.30741439167
2.2632133960723877	89738.0242214233
2.266214609146118	94312.05866461761
2.2692108154296875	113405.121280132
2.2722020149230957	138631.18213222397
2.2751877307891846	148948.20552346276
2.278168201446533	135519.6248496796
2.2811436653137207	113277.90103832654
2.284113883972168	96936.6468932926
2.287078857421875	87305.12726401979
2.290038824081421	80820.3258212322
2.2929933071136475	80607.26139991588
2.295942783355713	80754.35839630454
2.298887014389038	72355.5936124714
2.301826238632202	71914.02660843408
2.304760217666626	113285.52096329318
2.3076889514923096	200893.99091928892
2.310612440109253	287404.53662016976
2.3135311603546143	285000.52424363117
2.3164443969726562	158188.70166339606
2.319352865219116	67540.38062661048
2.322256088256836	73305.47349025366
2.3251543045043945	83289.97784966008
2.328047275543213	71917.00638164129
2.330935478210449	72436.80401889721
2.3338186740875244	74310.6907314461
2.3366971015930176	67641.67722294199
2.3395702838897705	57598.93557384263
2.3424389362335205	48019.02510736498
2.3453025817871094	42974.612209266284
2.348161458969116	47190.01267134844
2.351015567779541	62341.10680554714
2.353865146636963	85785.98043577309
2.3567099571228027	116098.45077803938
2.3595502376556396	155250.66629953933
2.3623859882354736	187829.06592764938
2.3652172088623047	166785.14245718796
2.368043899536133	94681.06539879933
2.370866537094116	46331.64732598173
2.3736846446990967	41860.61154481922
2.3764986991882324	62632.901417185465
2.3793084621429443	85035.80950967362
2.3821144104003906	96588.03370198171
2.384916305541992	102308.75467593042
2.387714147567749	113149.80444001501
2.3905084133148193	125872.71018295329
2.393299102783203	130000.62659605064
2.3960859775543213	129578.27884600233
2.398869514465332	139468.663700173
2.4016497135162354	144308.32959387472
2.4044265747070312	146476.22174121314
2.407200336456299	166851.76935398145
2.409970998764038	211632.84900678814
2.4127390384674072	254936.75825189333
2.415503978729248	258510.03656387946
2.418266534805298	244884.88544552683
2.4210267066955566	252283.92286268805
2.4237842559814453	264739.03555925156
2.426539897918701	302803.10271368193
2.429293394088745	371297.24983524426
2.4320452213287354	430737.91988916777
2.4347951412200928	428615.910087869
2.4375438690185547	429201.51407295227
2.440291166305542	514785.9848460765
2.443037271499634	508942.1500282506
2.445782423019409	423973.785649271
2.4485268592834473	355699.18135920103
2.451270818710327	367258.3470445334
2.454014539718628	439907.1762646801
2.4567582607269287	503665.41763618146
2.4595019817352295	517494.2401279477
2.4622461795806885	513227.41417733615
2.4649908542633057	476672.31939679984
2.4677364826202393	415407.10438701045
2.4704833030700684	349720.72625873453
2.473231554031372	300055.99156244536
2.4759814739227295	270474.83077921765
2.4787333011627197	269464.67967306246
