#wavelength	surface flux
0.8	1511265.9794072455
0.8002000000000001	1531862.9424448384
0.8004000500000003	1553128.560491474
0.8006001500125003	1574406.1970041597
0.8008003000500035	1595689.152925975
0.8010005001250161	1616977.4295867807
0.8012007502500472	1638271.0283167206
0.8014010504376099	1658781.4560380368
0.8016014007002193	1679032.8898288656
0.8018018010503944	1699289.386478142
0.8020022515006572	1719550.9472515902
0.8022027520635323	1739817.573415214
0.8024033027515483	1761131.2425179677
0.8026039035772362	1783471.3361860516
0.8028045545531306	1805817.0148775538
0.8030052556917691	1828168.2799887396
0.803206007005692	1850525.1329161834
0.8034068085074435	1872849.93351832
0.8036076602095705	1895074.800566635
0.8038085621246229	1917305.2238316943
0.8040095142651542	1939541.2047025838
0.8042105166437206	1961782.7445686834
0.8044115692728815	1984029.4357652855
0.8046126721651998	2006264.0944818107
0.8048138253332411	2028504.311862997
0.8050150287895745	2050750.0892985496
0.805216282546772	2073001.4281784547
0.8054175866174087	2095258.3298930684
0.8056189410140631	2117400.5655920943
0.8058203457493168	2139514.3038939107
0.8060218008357541	2161633.5706302742
0.8062233062859632	2183758.367183333
0.8064248621125346	2205888.6949355146
0.806626468328063	2229120.001705089
0.8068281249451449	2253297.9722686014
0.8070298319763813	2277481.9873247845
0.8072315894343755	2301672.048384713
0.8074333973317341	2325868.1569599155
0.8076352556810671	2348778.6164979967
0.8078371644949874	2368585.4707205826
0.8080391237861113	2388397.2766567287
0.8082411335670578	2408214.035544347
0.8084431938504498	2428035.748621708
0.8086453046489125	2447731.055504853
0.8088474659750746	2464985.568149961
0.8090496778415686	2482244.394423253
0.809251940261029	2499507.5354031012
0.8094542532460944	2516774.992168209
0.8096566168094059	2534046.7657974884
0.8098590309636085	2554479.847352553
0.8100614957213493	2575656.9564610743
0.8102640110952797	2596839.3598468755
0.8104665770980536	2618027.058833531
0.8106691937423283	2639220.054744942
0.8108718610407639	2660858.363429604
0.8110745790060241	2682838.537703392
0.8112773476507757	2704824.2070207684
0.8114801669876885	2726815.372755468
0.8116830370294355	2748812.0362815885
0.8118859577886929	2769579.0953948502
0.8120889292781401	2787785.982131409
0.8122919515104597	2805997.4205896505
0.8124950244983374	2824213.411907508
0.8126981482544621	2842433.957223192
0.8129013227915257	2861314.5054579135
0.8131045481222237	2887704.75114965
0.8133078242592543	2914101.5944028124
0.8135111512153191	2940505.036866781
0.813714529003123	2966915.0801913682
0.8139179576353739	2993331.7260267916
0.8141214371247829	3030469.525240882
0.8143249674840641	3069694.340214756
0.814528548725935	3108928.9613923496
0.8147321808631167	3148173.3912252905
0.8149358639083326	3187427.632165678
0.8151395978743097	3221530.0030347113
0.8153433827737784	3252153.449469438
0.8155472186194719	3282784.5517657623
0.8157511054241268	3313423.3118376546
0.815955043200483	3344069.731599586
0.8161590319612831	3377458.336796883
0.8163630717192736	3415865.9707400426
0.8165671624872033	3454283.2065916453
0.8167713042778252	3492710.046752249
0.8169754971038948	3531146.493622911
0.8171797409781707	3563603.4292230047
0.8173840359134155	3548255.4761592764
0.8175883819223938	3532903.6861073
0.8177927790178745	3517548.0581078017
0.8179972272126291	3502188.5912012993
0.8182017265194322	3486825.284428086
0.8184062769510622	3505330.799238116
0.8186108785203001	3529053.441831185
0.8188155312399301	3552782.01508487
0.8190202351227402	3576516.5204818957
0.819224990181521	3600256.959505255
0.8194297964290664	3659315.140368778
0.8196346538781738	3739672.21464794
0.8198395625416434	3820049.3781956397
0.8200445224322789	3900446.63603426
0.820249533562887	3980863.9931873167
0.8204545959462778	4047276.2314896933
0.8206597095952644	4091131.8547586426
0.8208648745226633	4134998.4419334433
0.8210700907412941	4178875.9957550303
0.8212753582639793	4222764.518965028
0.8214806771035456	4263376.981672905
0.8216860472728215	4283747.471736545
0.8218914687846397	4304123.054422701
0.822096941651836	4324503.731004539
0.822302465887249	4344889.502755511
0.8225080415037209	4365280.370949431
0.8227136685140968	4385844.728239084
0.8229193469312254	4406433.3425589185
0.8231250767679583	4427027.10403234
0.8233308580371503	4447626.01394612
0.8235366907516598	4468230.073587392
0.8237425749243477	4515983.1809424525
0.8239485105680789	4578134.968998587
0.824154497695721	4640302.295001696
0.824360536320145	4702485.162836318
0.8245666264542252	4764683.576387895
0.8247727681108388	4817868.505432463
0.8249789613028664	4858135.45448378
0.8251852060431922	4898412.470272395
0.825391502344703	4938699.555314939
0.8255978502202894	4978996.712128779
0.8258042496828445	5019466.0029957285
0.8260107007452654	5060732.465841907
0.8262172034204517	5102009.245303757
0.8264237577213068	5143296.343960481
0.8266303636607373	5184593.764391889
0.8268370212516525	5225901.509178383
0.8270437305069654	5253622.9980791425
0.8272504914395923	5280288.932770787
0.8274573040624523	5306961.533946109
0.8276641683884679	5333640.8032717025
0.8278710844305652	5360326.742414659
0.8280780522016729	5397330.798020105
0.8282850717147234	5439057.4470436955
0.8284921429826521	5480794.527729498
0.8286992660183978	5522542.042685506
0.8289064408349024	5564299.994520223
0.8291136674451112	5603213.737773882
0.8293209458619727	5638537.6412929
0.8295282760984382	5673870.37578775
0.829735658167463	5709211.943466265
0.8299430920820048	5744562.346536654
0.8301505778550254	5780511.91523629
0.8303581154994891	5818826.643359945
0.8305657050283641	5857150.95016567
0.8307733464546212	5895484.838048068
0.8309810397912352	5933828.3094024975
0.8311887850511829	5972181.366624691
0.8313965822474458	6031746.545205193
0.8316044313930077	6092310.736797261
0.8318123325008561	6152890.069437285
0.8320202855839813	6213484.546910439
0.8322282906553774	6274094.173002966
0.8324363477280413	6319277.451573007
0.8326444568149735	6358255.332566797
0.8328526179291771	6397242.95803079
0.8330608310836596	6436240.330401208
0.8332690962914304	6475247.452114668
0.8334774135655034	6505904.985482726
0.833685782918895	6527232.525798929
0.8338942043646247	6548565.398000198
0.834102677915716	6569903.603419533
0.834311203585195	6591247.143390205
0.8345197813860912	6618383.31562003
0.8347284113314379	6665006.852693451
0.8349370934342709	6711642.045651114
0.8351458277076294	6758288.897406958
0.8353546141645565	6804947.410875821
0.8355634528180977	6851617.5889730295
0.8357723436813022	6882086.501334725
0.8359812867672226	6912362.842509298
0.8361902820889144	6942646.752769148
0.8363993296594368	6972938.2340065725
0.8366084294918518	7003237.288114317
0.8368175815992247	7059627.503594032
0.8370267859946247	7125015.27176412
0.8372360426911234	7190419.386876231
0.8374453517017962	7255839.853017113
0.8376547130397217	7321276.674274523
0.8378641267179816	7376943.552181897
0.8380735927496613	7422913.790716167
0.8382831111478488	7468895.521810044
0.8384926819256358	7514888.748336668
0.8387023050961173	7560893.473169965
0.8389119806723914	7605458.733313153
0.8391217086675596	7645951.642691609
0.8393314890947265	7686454.6752973795
0.8395413219670003	7726967.833661305
0.8397512072974922	7767491.12031485
0.8399611450993165	7807943.722195315
0.8401711353855914	7844393.1636754945
0.8403811781694378	7880851.717516034
0.8405912734639802	7917319.3859950425
0.8408014212823464	7953796.171391189
0.8410116216376671	7990282.075983679
0.8412218745430766	8029082.361119499
0.8414321800117124	8068563.08775825
0.8416425380567154	8108053.684578679
0.8418529486912297	8147554.154048322
0.8420634119284025	8187064.498635299
0.8422739277813847	8264039.559061368
0.8424844962633302	8374033.029140903
0.842695117387396	8484053.997587819
0.8429057911667428	8594102.47127685
0.8431165176145345	8704178.457084356
0.8433272967439382	8782676.077986427
0.8435381285681244	8784097.808140652
0.8437490131002665	8785519.893727414
0.8439599503535415	8786942.334835574
0.84417094034113	8788365.131554011
0.8443819830762154	8792530.792891016
0.8445930785719846	8851945.572274223
0.8448042268416277	8911375.205352243
0.8450154278983382	8970819.695838526
0.8452266817553128	9030279.047447424
0.8454379884257517	9089753.263894232
0.8456493479228583	9173888.417890532
0.845860760259839	9263979.675296843
0.846072225449904	9354093.455517504
0.8462837435062666	9444229.764183242
0.8464953144421433	9534388.606926195
0.8467069382707537	9606003.166473478
0.8469186150053215	9663163.361425556
0.847130344659073	9720337.846426388
0.8473421272452377	9777526.625048414
0.8475539627770492	9834729.700865153
0.8477658512677435	9887124.59376169
0.8479777927305605	9929292.676302342
0.8481897871787432	9971471.300863618
0.848401834625538	10013660.47008106
0.8486139350841944	10055860.186590778
0.8488260885679657	10091948.047860136
0.8490382950901076	10053414.98554195
0.8492505546638802	10014872.289958166
0.8494628673025462	9976319.958700499
0.8496752330193721	9937757.98935996
0.8498876518276269	9899186.379527139
0.8501001237405839	9529611.709371079
0.8503126487715191	9093872.546246223
0.850525226933712	8658024.448330827
0.8507378582404455	8222067.3883909555
0.8509505427050057	7786001.339185847
0.8511632803406821	7438260.89477548
0.8513760711607672	7150995.036986817
0.8515889151785576	6863657.36273326
0.8518018124073523	6576247.854061381
0.8520147628604541	6288766.493012503
0.8522277665511693	6207197.472246719
0.8524408234928071	6506550.958019982
0.8526539336986805	6805979.282164769
0.8528670971821053	7105482.463390611
0.8530803139564007	7405060.520411406
0.8532935840348901	7742276.403733561
0.8535069074308987	8396814.744657258
0.8537202841577566	9051516.720166733
0.8539337142287962	9706382.371170163
0.8541471976573534	10361411.738585932
0.8543607344567677	11016604.863343675
0.8545743246403821	11256045.542663563
0.8547879682215422	11429493.828965459
0.8550016652135977	11602985.477338908
0.8552154156299011	11776520.49862446
0.8554292194838088	11950098.90366546
0.8556430767886797	12076221.993451986
0.855856987557877	12173536.651901966
0.8560709518047664	12270875.639016496
0.8562849695427177	12368238.960877843
0.8564990407851035	12465626.623569682
0.8567131655452999	12554817.925460307
0.8569273438366862	12630561.621233825
0.8571415756726455	12706324.2529313
0.8573558610665638	12782105.82528673
0.8575702000318304	12857906.343035163
0.8577845925818384	12934596.03439615
0.857999038729984	13016740.634648364
0.8582135384896665	13098905.771050623
0.858428091874289	13181091.448736986
0.8586426988972576	13263297.672842748
0.8588573595719821	13345524.448504567
0.8590720739118751	13408223.303051261
0.8592868419303532	13468633.008367274
0.8595016636408359	13529057.816109616
0.8597165390567462	13589497.730053874
0.8599314681915105	13649952.753976634
0.8601464510585584	13655907.547058525
0.860361487671323	13632927.464479752
0.8605765780432408	13609941.636880342
0.8607917221877518	13586950.06282401
0.8610069201182988	13563952.740874175
0.8612221718483286	13465373.951250643
0.8614374773912907	13257817.891267996
0.8616528367606385	13050209.942270411
0.8618682499698288	12842550.091285445
0.8620837170323213	12634838.325337766
0.8622992379615795	12471300.005258832
0.8625148127710699	12526575.23202436
0.8627304414742627	12581864.277596584
0.8629461240846313	12637167.145430207
0.8631618606156526	12692483.838980796
0.8633776510808066	12747814.361704761
0.8635934954935769	12892664.375459855
0.8638093938674504	13044887.542420598
0.8640253462159173	13197148.765173076
0.8642413525524714	13349448.053231237
0.8644574128906095	13501785.416111382
0.8646735272438323	13632066.228585767
0.8648896956256433	13752104.993892845
0.8651059180495498	13872173.768891256
0.8653221945290621	13992272.561083302
0.8655385250776946	14112401.377973564
0.8657549097089641	14233922.218331987
0.8659713484363913	14357217.08711864
0.8661878412735006	14480542.779622547
0.866404388233819	14603899.303549564
0.8666209893308775	14727286.666607505
0.8668376445782103	14836957.389589766
0.8670543539893549	14890545.057365902
0.8672711175778525	14944146.12205902
0.8674879353572469	14997760.58701825
0.8677048073410862	15051388.45559374
0.8679217335429217	15105029.731136408
0.8681387139763074	15200028.89891752
0.8683557486548015	15297105.705018012
0.8685728375919655	15394206.780320145
0.8687899808013633	15491332.130890895
0.8690071782965637	15588481.762799412
0.869224430091138	15646232.536074838
0.8694417361986609	15687956.518755984
0.8696590966327107	15729690.932432793
0.869876511406869	15771435.779713022
0.8700939805347206	15813191.063205052
0.8703115040298544	15865628.692261469
0.870529081905862	15930280.507400654
0.8707467141763385	15994948.485493604
0.8709644008548827	16059632.630581073
0.8711821419550964	16124332.946704775
0.8713999374905854	16188612.126515327
0.871617787474958	16251398.062775927
0.8718356919218269	16314199.69552065
0.8720536508448075	16377017.028673565
0.8722716642575187	16439850.066159729
0.8724897321735832	16502698.811905293
0.8727078546066265	16593501.429655844
0.8729260315702784	16684751.77911983
0.873144263078171	16776024.941171085
0.8733625491439405	16867320.921512865
0.8735808897812266	16958639.725849763
0.8737992850036719	17010737.016236067
0.874017734824923	17048947.62970938
0.8742362392586293	17087167.795836046
0.874454798318444	17125397.51700424
0.8746734120180236	17163636.795602724
0.8748920803710283	17212929.049851976
0.875110803391121	17273331.20778404
0.8753295810919689	17333748.46625562
0.875548413487242	17394180.82904182
0.8757673005906139	17454628.29991872
0.8759862424157616	17544878.07859176
0.8762052389763657	17721341.07686707
0.8764242902861098	17897848.19089183
0.8766433963586814	18074399.431695137
0.8768625572077712	18250994.810308702
0.8770817728470732	18426185.38102674
0.8773010432902849	18488288.863174558
0.8775203685511077	18550407.871192995
0.8777397486432454	18612542.408963364
0.8779591835804065	18674692.48036825
0.8781786733763015	18736858.089290906
0.8783982180446457	18735706.30627198
0.878617817599157	18715713.871420734
0.8788374720535569	18695716.438460782
0.8790571814215703	18675714.006142594
0.8792769457169257	18655706.573216327
0.879496764953355	18688523.35750973
0.8797166391445934	18768845.283835694
0.8799365683043796	18849187.290643245
0.8801565524464557	18929549.382952496
0.8803765915845676	19009931.5657849
0.8805966857324639	19091291.451497015
0.880816834903897	19175076.899724703
0.881037039112623	19258883.294314485
0.8812572983724012	19342710.640502904
0.8814776126969944	19426558.943527907
0.8816979821001687	19508680.308742784
0.8819184065956938	19549676.346781395
0.8821388861973429	19590682.633829556
0.8823594209188923	19631699.172449443
0.882580010774122	19672725.965203963
0.8828006557768155	19713763.014656696
0.8830213559407598	19829975.761362534
0.8832421112797452	19965122.431892827
0.8834629218075651	20100302.889090676
0.8836837875380171	20235517.14140286
0.8839047084849018	20370765.197278146
0.884125684662023	20431770.370349236
0.8843467160831886	20433267.51004248
0.8845678027622095	20434765.024020653
0.8847889447129001	20436262.912377317
0.8850101419490785	20437761.17520607
0.8852313944845657	20527370.544808466
0.885452702333187	20809865.902716435
0.8856740655087704	21092431.884463843
0.8858954840251476	21375068.507706612
0.8861169578961539	21657775.79010506
0.886338487135628	21910363.529600367
0.886560071757412	21761260.87999709
0.8867817117753515	21612120.95473142
0.8870034072032955	21462943.74448436
0.8872251580550963	21313729.239934918
0.8874469643446101	21164477.431759242
0.8876688260856963	21185979.945288077
0.8878907432922178	21242835.352060076
0.8881127159780409	21299704.972683728
0.8883347441570356	21356588.810712606
0.8885568278430749	21413486.869700935
0.8887789670500358	21408480.13782767
0.8890011617917983	21359548.43666264
0.8892234120822464	21310604.502572298
0.8894457179352669	21261648.332498476
0.8896680793647509	21212679.923382092
0.8898904963845921	21157017.792145547
0.8901129690086883	21088593.305626065
0.8903354972509405	21020151.71298497
0.8905580811252535	20951693.009945665
0.8907807206455347	20883217.19223069
0.8910034158256963	20799041.970846772
0.8912261666796527	20574693.69380791
0.8914489732213227	20350289.329699725
0.8916718354646282	20125828.86450029
0.8918947534234944	19901312.284184776
0.8921177271118502	19676739.57472432
0.8923407565436284	18842853.03048196
0.8925638417327644	17909371.51860695
0.8927869826931977	16975656.63635366
0.8930101794388711	16041708.325379865
0.8932334319837308	15107526.527328476
0.8934567403417267	14500575.286070414
0.8936801045268123	14096952.699095048
0.8939035245529441	13693229.206473209
0.8941270004340824	13289404.782978058
0.894350532184191	12885479.403377136
0.8945741198172371	13010513.95663259
0.8947977633471915	14012964.186374918
0.8950214627880284	15015665.02867464
0.8952452181537254	16018616.54618434
0.8954690294582639	17021818.80157402
0.8956928967156286	18010774.84411671
0.8959168199398075	18905897.67288035
0.8961407991447926	19801244.282351416
0.8963648343445789	20696814.728474822
0.896588925553165	21592609.067209255
0.8968130727845534	22488627.354528487
0.8970372760527496	22702478.100101154
0.8972615353717629	22831001.383810613
0.8974858507556059	22959556.798341017
0.8977102222182949	23088144.35172502
0.8979346497738496	23216764.051997438
0.8981591334362931	23531235.88911264
0.8983836732196523	23947406.923011564
0.8986082691379572	24363681.99966869
0.8988329212052417	24780061.145094983
0.8990576294355432	25196544.38530799
0.8992823938429022	25474139.660590913
0.8995072144413631	25545140.766385756
0.8997320912449734	25616159.62245702
0.8999570242677847	25687196.23324229
0.9001820135238516	25758250.603180256
0.9004070590272328	25840214.8334146
0.9006321607919896	25979299.641610295
0.9008573188321878	26118419.221008178
0.9010825331618959	26257573.580300845
0.9013078037951865	26396762.72818336
0.9015331307461353	26535986.67335277
0.9017585140288219	26946532.16667088
0.9019839536573292	27380546.9266392
0.9022094496457435	27814670.1902972
0.9024350020081551	28248901.984771606
0.9026606107586572	28683242.33719449
0.902886275911347	28913044.129657842
0.9031119974803249	29044249.203897376
0.9033377754796951	29175487.079405475
0.903563609923565	29306757.764382392
0.903789500826046	29438061.26703064
0.9040154482012526	29494669.251359634
0.904241452063303	29454487.342663348
0.9044675124263188	29414295.3884899
0.9046936293044254	29374093.386327915
0.9049198027117517	29333881.333665367
0.9051460326624297	29323831.332778446
0.9053723191705955	29442258.660698693
0.9055986622503881	29560715.595450807
0.9058250619159507	29679202.144436613
0.9060515181814298	29797718.31505974
0.9062780310609752	29916264.11472544
0.9065046005687405	29879576.823847156
0.906731226718883	29834218.712644126
0.9069579095255627	29788849.261913355
0.907184649002944	29743468.468819898
0.907411445165195	29698076.33052812
0.9076382980264862	29981730.31175526
0.907865207600993	30402112.163309768
0.9080921739028933	30822599.110327043
0.9083191969463691	31243191.179081
0.9085462767456058	31663888.395852357
0.9087734133147922	31840792.799366258
0.9090006066681211	31736036.230174754
0.909227856819788	31631253.47184109
0.9094551637839932	31526444.517817695
0.9096825275749393	31421609.36155583
0.9099099482068329	31316237.35252511
0.9101374256938848	31209024.16293309
0.9103649600503083	31101784.170043718
0.9105925512903209	30994517.367156144
0.9108201994281437	30887223.74756774
0.9110479044780008	30779903.304574557
0.9112756664541204	31206910.37158744
0.911503485370734	31646255.46700803
0.9117313612420768	32085710.398702472
0.9119592940823873	32525275.19412971
0.912187283905908	32964949.88075594
0.9124153307268845	32977281.97971284
0.9126434345595664	32834476.887162507
0.9128715954182063	32691636.09333917
0.9130998133170609	32548759.589317307
0.9133280882703902	32405847.366169445
0.913556420292458	32398898.662568744
0.9137848093975312	32532206.253928006
0.9140132555998806	32665547.172185093
0.9142417589137806	32798921.42567175
