#wavelength	surface flux
0.8	3606724.9494362306
0.8002000000000001	3659050.4962985143
0.8004000500000003	3714419.6349603403
0.8006001500125003	3769833.2270458164
0.8008003000500035	3825260.672529318
0.8010005001250161	3880701.974874216
0.8012007502500472	3936157.137544621
0.8014010504376099	3989054.82593614
0.8016014007002193	4041104.4190536574
0.8018018010503944	4093167.0245694546
0.8020022515006572	4145242.6457366534
0.8022027520635323	4197331.2858091
0.8024033027515483	4251273.790243089
0.8026039035772362	4307033.733917636
0.8028045545531306	4362807.617578104
0.8030052556917691	4418595.444709514
0.803206007005692	4474397.218797658
0.8034068085074435	4530233.619838488
0.8036076602095705	4586141.939267655
0.8038085621246229	4642064.235776635
0.8040095142651542	4698000.512859776
0.8042105166437206	4753950.774012169
0.8044115692728815	4809873.764108964
0.8046126721651998	4864036.128977283
0.8048138253332411	4918212.034436775
0.8050150287895745	4972401.483872683
0.805216282546772	5026604.480670935
0.8054175866174087	5080821.028218358
0.8056189410140631	5135768.345416624
0.8058203457493168	5190932.417952217
0.8060218008357541	5246110.281505873
0.8062233062859632	5301301.939525445
0.8064248621125346	5356507.395459484
0.806626468328063	5414120.4837676715
0.8068281249451449	5473803.986593737
0.8070298319763813	5533502.410295582
0.8072315894343755	5593215.758603309
0.8074333973317341	5652944.035248135
0.8076352556810671	5708370.911211274
0.8078371644949874	5753421.5102143325
0.8080391237861113	5798483.371867153
0.8082411335670578	5843556.498985358
0.8084431938504498	5888640.89438539
0.8086453046489125	5933374.405981112
0.8088474659750746	5971376.425490148
0.8090496778415686	6009387.945504113
0.809251940261029	6047408.968398054
0.8094542532460944	6085439.496547751
0.8096566168094059	6123479.532329442
0.8098590309636085	6170701.893036132
0.8100614957213493	6220083.031562675
0.8102640110952797	6269476.515373856
0.8104665770980536	6318882.347556009
0.8106691937423283	6368300.531196226
0.8108718610407639	6418234.2365831975
0.8110745790060241	6468565.170945587
0.8112773476507757	6518908.68804161
0.8114801669876885	6569264.791016894
0.8116830370294355	6619633.4830178935
0.8118859577886929	6665968.418562421
0.8120889292781401	6703910.494799267
0.8122919515104597	6741862.056555169
0.8124950244983374	6779823.106201513
0.8126981482544621	6817793.646110262
0.8129013227915257	6857607.984567339
0.8131045481222237	6918435.359754186
0.8133078242592543	6979277.941784837
0.8135111512153191	7040135.73446098
0.813714529003123	7101008.741585298
0.8139179576353739	7161896.966961408
0.8141214371247829	7253439.591217013
0.8143249674840641	7350946.552860068
0.814528548725935	7448477.891243474
0.8147321808631167	7546033.612461608
0.8149358639083326	7643613.722610017
0.8151395978743097	7724510.097952024
0.8153433827737784	7794137.983859496
0.8155472186194719	7863783.27673842
0.8157511054241268	7933445.9809405515
0.815955043200483	8003126.10081878
0.8161590319612831	8073953.193280977
0.8163630717192736	8146867.759884779
0.8165671624872033	8219800.555130152
0.8167713042778252	8292751.583574408
0.8169754971038948	8365720.849775811
0.8171797409781707	8416011.92483315
0.8173840359134155	8285122.915047035
0.8175883819223938	8154201.183008622
0.8177927790178745	8023246.720537125
0.8179972272126291	7892259.519449977
0.8182017265194322	7761239.571562688
0.8184062769510622	7759713.154610064
0.8186108785203001	7778118.534371302
0.8188155312399301	7796528.515477457
0.8190202351227402	7814943.099078909
0.819224990181521	7833362.286326249
0.8194297964290664	8030618.563942021
0.8196346538781738	8335715.119091207
0.8198395625416434	8640887.94837906
0.8200445224322789	8946137.070874363
0.820249533562887	9251462.5056502
0.8204545959462778	9482182.039502148
0.8206597095952644	9592760.216534046
0.8208648745226633	9703366.038110288
0.8210700907412941	9813999.511141906
0.8212753582639793	9924660.64254167
0.8214806771035456	10024780.535638805
0.8216860472728215	10059808.136047859
0.8218914687846397	10094844.493357018
0.822096941651836	10129889.609755522
0.822302465887249	10164943.487433104
0.8225080415037209	10200006.128580125
0.8227136685140968	10234307.53677356
0.8229193469312254	10268530.109383507
0.8231250767679583	10302761.237636616
0.8233308580371503	10337000.923671769
0.8235366907516598	10371249.169628458
0.8237425749243477	10475780.249766542
0.8239485105680789	10617584.062278785
0.824154497695721	10759423.325744066
0.824360536320145	10901298.049025243
0.8245666264542252	11043208.24098723
0.8247727681108388	11161145.157344945
0.8249789613028664	11244726.504664032
0.8251852060431922	11328328.74732002
0.825391502344703	11411951.890536636
0.8255978502202894	11495595.93953913
0.8258042496828445	11578907.341646701
0.8260107007452654	11660522.492730122
0.8262172034204517	11742158.04760123
0.8264237577213068	11823814.011361077
0.8266303636607373	11905490.389111903
0.8268370212516525	11987187.185957123
0.8270437305069654	12030876.088599924
0.8272504914395923	12071604.247536931
0.8274573040624523	12112342.588513682
0.8276641683884679	12153091.11407564
0.8278710844305652	12193849.826769039
0.8280780522016729	12260646.185797427
0.8282850717147234	12339356.346154882
0.8284921429826521	12418086.184052346
0.8286992660183978	12496835.704409346
0.8289064408349024	12575604.91214638
0.8291136674451112	12647297.613394406
0.8293209458619727	12710060.286728302
0.8295282760984382	12772838.650730446
0.829735658167463	12835632.709323665
0.8299430920820048	12898442.46643145
0.8301505778550254	12962388.703360315
0.8303581154994891	13030824.277584849
0.8305657050283641	13099276.960703008
0.8307733464546212	13167746.756991893
0.8309810397912352	13236233.670729961
0.8311887850511829	13304737.70619633
0.8313965822474458	13421985.162618067
0.8316044313930077	13541523.576002153
0.8318123325008561	13661091.873989698
0.8320202855839813	13780690.06405168
0.8322282906553774	13900318.15366119
0.8324363477280413	13980905.690253908
0.8326444568149735	14045783.74435429
0.8328526179291771	14110678.017968122
0.8330608310836596	14175588.515150456
0.8332690962914304	14240515.239957001
0.8334774135655034	14284494.858392676
0.833685782918895	14305068.734708067
0.8338942043646247	14325647.754492525
0.834102677915716	14346231.919031944
0.834311203585195	14366821.229612483
0.8345197813860912	14400105.633413333
0.8347284113314379	14476113.90290344
0.8349370934342709	14552141.174460875
0.8351458277076294	14628187.452836107
0.8353546141645565	14704252.74278106
0.8355634528180977	14780337.049048467
0.8357723436813022	14816827.124834163
0.8359812867672226	14852837.200417168
0.8361902820889144	14888856.278519053
0.8363993296594368	14924884.361390471
0.8366084294918518	14960921.451282622
0.8368175815992247	15061242.283452407
0.8370267859946247	15183725.074052898
0.8372360426911234	15306238.485351002
0.8374453517017962	15428782.525001919
0.8376547130397217	15551357.200662732
0.8378641267179816	15647669.092774129
0.8380735927496613	15717915.148059107
0.8382831111478488	15788178.764857864
0.8384926819256358	15858459.947560783
0.8387023050961173	15928758.70055944
0.8389119806723914	15994964.184465462
0.8391217086675596	16049616.962082818
0.8393314890947265	16104283.402894534
0.8395413219670003	16158963.510316461
0.8397512072974922	16213657.28776528
0.8399611450993165	16268069.484828833
0.8401711353855914	16307833.08528327
0.8403811781694378	16347606.62663781
0.8405912734639802	16387390.1113777
0.8408014212823464	16427183.541988792
0.8410116216376671	16466986.920957532
0.8412218745430766	16516354.818884814
0.8414321800117124	16568515.0694096
0.8416425380567154	16620688.35999704
0.8418529486912297	16672874.693907138
0.8420634119284025	16725074.07440067
0.8422739277813847	16860915.617723178
0.8424844962633302	17070471.61509198
0.842695117387396	17280080.00145986
0.8429057911667428	17489740.78992434
0.8431165176145345	17699453.993586034
0.8433272967439382	17835098.437938962
0.8435381285681244	17789974.663006466
0.8437490131002665	17744839.607130248
0.8439599503535415	17699693.26749009
0.84417094034113	17654535.641264983
0.8443819830762154	17615877.22716062
0.8445930785719846	17708363.758285098
0.8448042268416277	17800873.411042303
0.8450154278983382	17893406.191212688
0.8452266817553128	17985962.104578104
0.8454379884257517	18078541.156921875
0.8456493479228583	18226456.191970002
0.845860760259839	18387728.201927472
0.846072225449904	18549040.529887434
0.8462837435062666	18710393.185929418
0.8464953144421433	18871786.180135507
0.8467069382707537	18989991.628695082
0.8469186150053215	19074531.812931582
0.847130344659073	19159093.132214166
0.8473421272452377	19243675.591826487
0.8475539627770492	19328279.1970538
0.8477658512677435	19405443.911503132
0.8479777927305605	19466787.500979118
0.8481897871787432	19528146.426352456
0.848401834625538	19589520.691457175
0.8486139350841944	19650910.300128132
0.8488260885679657	19701964.078646995
0.8490382950901076	19626853.440908123
0.8492505546638802	19551724.02550978
0.8494628673025462	19476575.82775761
0.8496752330193721	19401408.84295589
0.8498876518276269	19326223.066408075
0.8501001237405839	18683011.638790276
0.8503126487715191	17926255.264319357
0.850525226933712	17169309.700755246
0.8507378582404455	16412174.900800247
0.8509505427050057	15654850.81714482
0.8511632803406821	14988747.619527828
0.8513760711607672	14385077.156053491
0.8515889151785576	13781255.774962347
0.8518018124073523	13177283.438526437
0.8520147628604541	12573160.109006772
0.8522277665511693	12395671.562254086
0.8524408234928071	13007427.417027468
0.8526539336986805	13619336.210764706
0.8528670971821053	14231397.981700419
0.8530803139564007	14843612.768078145
0.8532935840348901	15503204.699750207
0.8535069074308987	16561793.1144934
0.8537202841577566	17620646.17634117
0.8539337142287962	18679763.951454517
0.8541471976573534	19739146.506010983
0.8543607344567677	20798793.90620628
0.8545743246403821	21147853.770948414
0.8547879682215422	21384109.407387327
0.8550016652135977	21620424.107735325
0.8552154156299011	21856797.88675842
0.8554292194838088	22093230.75922644
0.8556430767886797	22255776.827459045
0.855856987557877	22373465.527194362
0.8560709518047664	22491183.649104543
0.8562849695427177	22608931.200545244
0.8564990407851035	22726708.18887384
0.8567131655452999	22831067.87664613
0.8569273438366862	22913420.714223783
0.8571415756726455	22995794.14001085
0.8573558610665638	23078188.159154385
0.8575702000318304	23160602.77680262
0.8577845925818384	23245729.02325577
0.857999038729984	23347685.68574239
0.8582135384896665	23449667.837394606
0.858428091874289	23551675.484584745
0.8586426988972576	23653708.633686654
0.8588573595719821	23755767.29107587
0.8590720739118751	23818390.679648317
0.8592868419303532	23876377.179787092
0.8595016636408359	23934378.1765509
0.8597165390567462	23992393.67356388
0.8599314681915105	24050423.674451124
0.8601464510585584	23908624.668192305
0.860361487671323	23660714.669647224
0.8605765780432408	23412742.69360258
0.8607917221877518	23164708.724563725
0.8610069201182988	22916612.747032672
0.8612221718483286	22144012.113468267
0.8614374773912907	20615163.30278445
0.8616528367606385	19085932.27989838
0.8618682499698288	17556318.949255615
0.8620837170323213	16026323.215280447
0.8622992379615795	14753577.255396865
0.8625148127710699	14755436.524514083
0.8627304414742627	14757296.25844858
0.8629461240846313	14759156.45731656
0.8631618606156526	14761017.121234259
0.8633776510808066	14762878.250317935
0.8635934954935769	15366393.170868289
0.8638093938674504	16019377.58146786
0.8640253462159173	16672525.238170058
0.8642413525524714	17325836.181786418
0.8644574128906095	17979310.45313855
0.8646735272438323	18316869.473538753
0.8648896956256433	18507527.56749447
0.8651059180495498	18698233.32597369
0.8653221945290621	18888986.760892347
0.8655385250776946	19079787.884170003
0.8657549097089641	19403996.724835448
0.8659713484363913	19899016.75552323
0.8661878412735006	20394160.541218914
0.866404388233819	20889428.11286095
0.8666209893308775	21384819.501395673
0.8668376445782103	21767090.140905395
0.8670543539893549	21687247.660699476
0.8672711175778525	21607385.21987345
0.8674879353572469	21527502.81343731
0.8677048073410862	21447600.43639953
0.8679217335429217	21367678.08376744
0.8681387139763074	21563710.234845042
0.8683557486548015	21773501.10323335
0.8685728375919655	21983344.41933901
0.8687899808013633	22193240.19627324
0.8690071782965637	22403188.447151978
0.869224430091138	22373095.446739983
0.8694417361986609	22245301.084454972
0.8696590966327107	22117474.773579422
0.869876511406869	21989616.506126143
0.8700939805347206	21861726.274106063
0.8703115040298544	21794550.209887043
0.870529081905862	21796807.76328633
0.8707467141763385	21799065.88107397
0.8709644008548827	21801324.563391056
0.8711821419550964	21803583.81037872
0.8713999374905854	21803147.252654858
0.871617787474958	21793404.479031492
0.8718356919218269	21783659.26971471
0.8720536508448075	21773911.624095596
0.8722716642575187	21764161.541565083
0.8724897321735832	21754409.021513935
0.8727078546066265	22002084.2949088
0.8729260315702784	22253737.845415864
0.873144263078171	22505454.309310287
0.8733625491439405	22757233.702320706
0.8735808897812266	23009076.040179476
0.8737992850036719	23012103.04839061
0.874017734824923	22926982.21520242
0.8742362392586293	22841840.10180597
0.874454798318444	22756676.702881176
0.8746734120180236	22671492.01310666
0.8748920803710283	22619641.196101505
0.875110803391121	22601296.182873778
0.8753295810919689	22582946.583392736
0.875548413487242	22564592.396511823
0.8757673005906139	22546233.621084187
0.8759862424157616	22704392.723619293
0.8762052389763657	23373367.456668686
0.8764242902861098	24042509.433400877
0.8766433963586814	24711818.695627432
0.8768625572077712	25381295.28516975
0.8770817728470732	26042360.22509472
0.8773010432902849	26033762.292993777
0.8775203685511077	26025162.211409796
0.8777397486432454	26016559.97980543
0.8779591835804065	26007955.59764315
0.8781786733763015	25999349.064385343
0.8783982180446457	25584436.649321366
0.878617817599157	25048552.740825683
0.8788374720535569	24512534.861353125
0.8790571814215703	23976382.977410834
0.8792769457169257	23440097.055497546
0.879496764953355	23233889.733903803
0.8797166391445934	23324513.741186127
0.8799365683043796	23415160.40447028
0.8801565524464557	23505829.729420252
0.8803765915845676	23596521.721701544
0.8805966857324639	23698140.70166704
0.880816834903897	23827173.455889504
0.881037039112623	23956238.468300577
0.8812572983724012	24085335.746964738
0.8814776126969944	24214465.29994862
0.8816979821001687	24344040.480572063
0.8819184065956938	24483378.271781996
0.8821388861973429	24622750.897439875
0.8823594209188923	24762158.366254035
0.882580010774122	24901600.686935335
0.8828006557768155	25041077.868196882
0.8830213559407598	25300417.015821844
0.8832421112797452	25589958.729477365
0.8834629218075651	25879572.82856112
0.8836837875380171	26169259.331169736
0.8839047084849018	26459018.255404048
0.884125684662023	26441062.163679082
0.8843467160831886	26176449.246177156
0.8845678027622095	25911770.17544586
0.8847889447129001	25647024.934946824
0.8850101419490785	25382213.508137718
0.8852313944845657	25539782.5818264
0.885452702333187	26622075.06805631
0.8856740655087704	27704638.12740762
0.8858954840251476	28787471.827523477
0.8861169578961539	29870576.23606386
0.886338487135628	30832457.267573044
0.886560071757412	30177806.646601558
0.8867817117753515	29522992.36297484
0.8870034072032955	28868014.375776924
0.8872251580550963	28212872.644082975
0.8874469643446101	27557567.1269557
0.8876688260856963	27416874.36545262
0.8878907432922178	27382686.041651826
0.8881127159780409	27348489.1707701
0.8883347441570356	27314283.75067062
0.8885568278430749	27280069.779216144
0.8887789670500358	27019729.31221018
0.8890011617917983	26598921.65141557
0.8892234120822464	26178008.788705572
0.8894457179352669	25756990.697780237
0.8896680793647509	25335867.352331836
0.8898904963845921	25023892.347154245
0.8901129690086883	24920298.133168716
0.8903354972509405	24816678.02062972
0.8905580811252535	24713032.003062505
0.8907807206455347	24609360.07399104
0.8910034158256963	24510078.87428822
0.8912261666796527	24450244.272076607
0.8914489732213227	24390394.711214423
0.8916718354646282	24330530.187961962
0.8918947534234944	24270650.69857875
0.8921177271118502	24210756.239323225
0.8923407565436284	23744607.336170465
0.8925638417327644	23212073.19201796
0.8927869826931977	22679405.91432924
0.8930101794388711	22146605.46982113
0.8932334319837308	21613671.825201977
0.8934567403417267	21289650.240530323
0.8936801045268123	21095444.692509267
0.8939035245529441	20901190.593101334
0.8941270004340824	20706887.930168476
0.894350532184191	20512536.69156993
0.8945741198172371	20902790.79883707
0.8947977633471915	22262721.278935224
0.8950214627880284	23622991.74165334
0.8952452181537254	24983602.271986336
0.8954690294582639	26344552.954952724
0.8956928967156286	27608734.620992117
0.8959168199398075	28243027.86317848
0.8961407991447926	28877479.678675547
0.8963648343445789	29512090.107126478
0.896588925553165	30146859.18818416
0.8968130727845534	30781786.961512186
0.8970372760527496	30748436.15853063
0.8972615353717629	30631442.049493376
0.8974858507556059	30514418.691928852
0.8977102222182949	30397366.078524966
0.8979346497738496	30280284.201967664
0.8981591334362931	30408547.837181676
0.8983836732196523	30671033.23708063
0.8986082691379572	30933584.258329384
0.8988329212052417	31196200.91733345
0.8990576294355432	31458883.230502494
0.8992823938429022	31602257.24709922
0.8995072144413631	31568173.18815471
0.8997320912449734	31534080.608195476
0.8999570242677847	31499979.505091257
0.9001820135238516	31465869.876711264
0.9004070590272328	31495291.070501603
0.9006321607919896	31857814.567362744
0.9008573188321878	32220428.695098475
0.9010825331618959	32583133.47636596
0.9013078037951865	32945928.933828823
0.9015331307461353	33308815.090155862
0.9017585140288219	33933050.41975328
0.9019839536573292	34579944.67581185
0.9022094496457435	35227000.65543396
0.9024350020081551	35874218.39905171
0.9026606107586572	36521597.947105154
0.902886275911347	36808907.199740134
0.9031119974803249	36922631.313584596
0.9033377754796951	37036383.85845752
0.903563609923565	37150164.84146661
0.903789500826046	37263974.26972153
0.9040154482012526	37186619.03046433
0.904241452063303	36861570.45957697
0.9044675124263188	36536440.62654697
0.9046936293044254	36211229.51105876
0.9049198027117517	35885937.09279152
0.9051460326624297	35634882.63383948
0.9053723191705955	35700234.20515366
0.9055986622503881	35765602.114360616
0.9058250619159507	35830986.36554487
0.9060515181814298	35896386.96279196
0.9062780310609752	35961803.91018832
0.9065046005687405	36109338.64031574
0.906731226718883	36261490.450087175
0.9069579095255627	36413680.29781085
0.907184649002944	36565908.19299648
0.907411445165195	36718174.14515605
0.9076382980264862	37095680.38524477
0.907865207600993	37566807.06736432
0.9080921739028933	38038051.53115426
0.9083191969463691	38509413.80606007
0.9085462767456058	38980893.92153484
0.9087734133147922	39064645.841759294
0.9090006066681211	38700451.68712334
0.909227856819788	38336166.48394921
0.9094551637839932	37971790.20947378
0.9096825275749393	37607322.84092984
0.9099099482068329	37318122.22948981
0.9101374256938848	37296672.50857656
0.9103649600503083	37275217.42523309
0.9105925512903209	37253756.97811878
0.9108201994281437	37232291.165892676
0.9110479044780008	37210819.98721354
0.9112756664541204	37710336.37694898
0.911503485370734	38221903.082242906
0.9117313612420768	38733597.67921315
0.9119592940823873	39245420.19983249
0.912187283905908	39757370.67608214
0.9124153307268845	39787445.909730285
0.9126434345595664	39642589.663462006
0.9128715954182063	39497697.20313229
0.9130998133170609	39352768.519687414
0.9133280882703902	39207803.60407169
0.913556420292458	39124840.721981525
0.9137848093975312	39105838.08794494
0.9140132555998806	39086830.70324984
