#wavelength	surface flux
0.7	7955899.376850618
0.7001166666666666	7971071.238874478
0.7002333527777778	7977129.816587577
0.700350058336574	7983189.404063623
0.7004667833462966	7989250.0014709085
0.7005835278101878	7995311.608977779
0.7007002917314895	8001374.226752556
0.7008170751134447	8007437.854963629
0.7009338779592968	8013502.4937794
0.7010507002722901	8016144.701825649
0.7011675420556689	8014621.2494828105
0.701284403312678	8013097.543231251
0.7014012840465635	8011573.583028646
0.7015181842605713	8010049.368832676
0.701635103957948	8008524.900601007
0.701752043141941	8007000.178291299
0.701869001815798	8005475.2018612055
0.7019859799827672	8000888.815810893
0.7021029776460976	7994171.273531228
0.7022199948090387	7987452.611661176
0.7023370314748403	7980732.830014148
0.7024540876467528	7974011.928403513
0.702571163328027	7967289.90664262
0.7026882585219152	7960566.764544751
0.7028053732316688	7953842.501923207
0.7029225074605406	7958178.342439241
0.7030396612117841	7966786.151403768
0.7031568344886527	7975395.395003124
0.7032740272944008	7984006.073476409
0.7033912396322832	7992618.187062776
0.7035084715055552	8001231.736001399
0.7036257229174727	8009846.720531516
0.7037429938712924	8018463.140892395
0.7038602843702709	8033092.026614784
0.7039775944176659	8048742.865040341
0.7040949240167356	8064396.311938976
0.7042122731707383	8080052.367745419
0.7043296418829335	8095711.032894504
0.7044470301565806	8111372.307821113
0.70456443799494	8127036.192960197
0.7046818654012724	8142702.688746813
0.7047993123788394	8144950.777014695
0.7049167789309024	8147183.838749517
0.7050342650607243	8149417.272661298
0.7051517707715678	8151651.078812062
0.7052692960666963	8153885.257263851
0.705386840949374	8156119.808078715
0.7055044054228656	8158354.731318717
0.7056219894904361	8161125.50295532
0.7057395931553511	8167299.628787431
0.705857216420877	8173474.783640519
0.7059748592902804	8179650.9676860785
0.7060925217668288	8185828.181095652
0.70621020385379	8192006.4240407925
0.7063279055544321	8198185.696693083
0.7064456268720246	8204365.999224158
0.7065633678098366	8211148.422613206
0.7066811283711383	8219587.391512645
0.7067989085592001	8228027.766906901
0.7069167083772933	8236469.549030384
0.7070345278286895	8244912.73811756
0.707152366916661	8253357.334402918
0.7072702256444803	8261803.338120981
0.7073881040154211	8270250.749506342
0.7075060020327569	8273469.209884402
0.7076239196997625	8269070.987258254
0.7077418570197124	8264672.031595005
0.7078598139958823	8260272.342772479
0.7079777906315483	8255871.920668478
0.7080957869299869	8251470.765160797
0.7082138028944751	8247068.8761272
0.7083318385282908	8242666.253445428
0.7084498938347124	8239742.358365411
0.708567968817018	8238072.293550953
0.7086860634784875	8236401.950392358
0.7088041778224007	8234731.328843235
0.7089223118520377	8233060.42885719
0.7090404655706796	8231389.250387814
0.709158638981608	8229717.793388692
0.709276832088105	8228046.057813402
0.7093950448934531	8232304.703889351
0.7095132774009353	8239392.455604317
0.7096315296138355	8246481.3886112375
0.7097498015354378	8253571.50310699
0.7098680931690269	8260662.799288486
0.7099864045178884	8267755.277352688
0.7101047355853081	8274848.937496565
0.7102230863745722	8281943.779917128
0.7103414568889679	8268860.3366785925
0.7104598471317828	8251189.462277921
0.7105782571063047	8233515.642731528
0.7106966868158224	8215838.877548546
0.710815136263625	8198159.166238036
0.7109336054530023	8180476.508308964
0.7110520943872445	8162790.903270243
0.7111706030696424	8145102.350630671
0.7112891315034873	8143936.6682254635
0.7114076796920712	8143559.285925967
0.7115262476386865	8143181.840729421
0.7116448353466263	8142804.3326253425
0.711763442819184	8142426.761603246
0.711882070059654	8142049.127652646
0.7120007170713306	8141671.430763055
0.7121193838575091	8141982.862493848
0.7122380704214853	8149482.437788663
0.7123567767665555	8156983.263012687
0.7124755028960166	8164485.3383742515
0.7125942488131658	8171988.664081704
0.7127130145213015	8179493.240343461
0.7128318000237216	8186999.067367906
0.7129506053237256	8194506.145363531
0.7130694304246129	8197468.962813671
0.7131882753296837	8184539.5637774905
0.7133071400422386	8171608.009841466
0.7134260245655789	8158674.3006464625
0.7135449289030065	8145738.435833256
0.7136638530578235	8132800.415042587
0.7137827970333332	8119860.2379151005
0.7139017608328388	8106917.904091429
0.7140207444596443	8096011.909948727
0.7141397479170543	8088740.57400101
0.7142587712083737	8081468.026163977
0.7143778143369084	8074194.266235631
0.7144968773059646	8066919.294013963
0.7146159601188489	8059643.109296928
0.7147350627788687	8052365.7118824385
0.7148541852893318	8045087.101568383
0.7149733276535467	8040194.7158525055
0.7150924898748222	8037708.953553277
0.715211671956468	8035222.776960331
0.7153308739017941	8032736.186004618
0.715450095714111	8030249.18061708
0.71556933739673	8027761.760728644
0.7156885989529628	8025273.926270227
0.7158078803861218	8022785.67717273
0.7159271816995193	8008441.8261964
0.7160465028964692	7987137.329335927
0.7161658439802853	7965829.2817259785
0.7162852049542819	7944517.682774765
0.7164045858217744	7923202.53189038
0.716523986586078	7901883.8284808565
0.7166434072505089	7880561.57195411
0.716762847818384	7859235.761717933
0.7168823082930204	7847718.870859265
0.7170017886777359	7839086.848517279
0.7171212889758488	7830453.387504908
0.7172408091906781	7821818.487582366
0.7173603493255433	7813182.148509834
0.7174799093837642	7804544.370047461
0.7175994893686615	7795905.151955341
0.7177190892835562	7787264.493993543
0.7178387091317702	7787563.801505722
0.7179583489166254	7788760.722877713
0.7180780086414448	7789957.843736601
0.7181976883095517	7791155.164115631
0.7183173879242699	7792352.684048058
0.718437107488924	7793550.403567142
0.7185568470068389	7794748.322706145
0.7186766064813399	7795426.684806466
0.7187963859157535	7783110.097223254
0.7189161853134061	7770791.456875445
0.719036004677625	7758470.763420911
0.7191558440117378	7746148.016517474
0.7192757033190732	7733823.215822871
0.7193955826029597	7721496.360994833
0.7195154818667269	7709167.451690979
0.7196354011137046	7695365.272968244
0.7197553403472235	7674787.058880111
0.7198752995706147	7654205.41508964
0.7199952787872098	7633620.3410251895
0.720115278000341	7613031.836115062
0.7202352972133411	7592439.8997874465
0.7203553364295432	7571844.531470476
0.7204753956522815	7551245.730592088
0.7205954748848902	7533376.5016930215
0.7207155741307044	7521529.549414238
0.7208356933930594	7509680.622643429
0.7209558326752915	7497829.721051488
0.7210759919807375	7485976.844309266
0.7211961713127342	7474121.992087603
0.7213163706746197	7462265.164057217
0.7214365900697322	7450406.359888838
0.7215568295014103	7440876.5942918025
0.721677088972994	7434126.534031353
0.7217973684878227	7427375.348760871
0.7219176680492374	7420623.038292836
0.7220379876605789	7413869.602439728
0.722158327325189	7407115.041013974
0.7222786870464099	7400359.353827986
0.7223990668275843	7393602.5406941315
0.7225194666720555	7378339.086770165
0.7226398865831676	7357045.01776684
0.7227603265642646	7335747.399752066
0.722880786618692	7314446.2321342435
0.7230012667497951	7293141.514321833
0.7231217669609201	7271833.245723117
0.7232422872554135	7250521.425746321
0.7233628276366229	7229206.053799491
0.7234833881078956	7207525.553525228
0.7236039686725803	7185704.16346995
0.7237245693340255	7163879.136516364
0.7238451900955812	7142050.472058246
0.7239658309605971	7120218.16948941
0.7240864919324239	7098382.22820345
0.7242071730144127	7076542.647593942
0.724327874209915	7054699.427054376
0.7244485955222832	7033305.334113587
0.7245693369548704	7011982.536876628
0.7246900985110294	6990656.1858401615
0.7248108801941148	6969326.2804117985
0.7249316820074803	6947992.819999269
0.7250525039544815	6926655.804009969
0.7251733460384739	6905315.231851335
0.7252942082628137	6883972.450895382
0.7254150906308574	6863407.166249928
0.7255359931459625	6842838.454057031
0.7256569158114868	6822266.313745429
0.7257778586307888	6801690.744743764
0.7258988216072273	6781111.746480606
0.7260198047441617	6760529.318384426
0.7261408080449525	6739943.459883528
0.72626183151296	6718816.12178791
0.7263828751515454	6694109.620692068
0.7265039389640706	6669399.001846047
0.726625022953898	6644684.264563536
0.7267461271243904	6619965.408158134
0.7268672514789111	6595242.431943346
0.7269883960208241	6570515.335232545
0.7271095607534942	6545784.117338941
0.7272307456802866	6520306.583463594
0.7273519508045666	6492819.9578902535
0.7274731761297006	6465328.751212664
0.7275944216590555	6437832.962667295
0.7277156873959987	6410332.591490492
0.7278369733438982	6382827.636918449
0.727958279506122	6355318.098187383
0.7280796058860397	6327803.974533163
0.7282009524870207	6299826.890382489
0.7283223193124353	6271167.155997065
0.7284437063656539	6242502.644989301
0.7285651136500483	6213833.356562991
0.7286865411689898	6185159.289922001
0.7288079889258514	6156480.444269834
0.7289294569240056	6127796.818810126
0.7290509451668262	6099108.41274614
0.7291724536576875	6073570.721467821
0.7292939823999636	6050643.442180352
0.7294155313970303	6027712.341679622
0.7295371006522632	6004777.419328815
0.7296586901690385	5981838.674490968
0.7297802999507332	5958896.106528991
0.7299019300007252	5935949.714805628
0.7300235803223919	5912999.498683706
0.7301452509191123	5890832.561227574
0.7302669417942654	5869025.23230407
0.7303886529512311	5847214.268825741
0.7305103843933897	5825399.670186824
0.7306321361241218	5803581.435781486
0.7307539081468093	5781759.565003708
0.7308757004648336	5759934.057247513
0.7309975130815778	5738104.911906666
0.7311193460004248	5716154.2755749915
0.7312411992247582	5694173.300434572
0.7313630727579622	5672188.6617983
0.7314849666034219	5650200.359055567
0.7316068807645224	5628208.391595723
0.7317288152446498	5606212.75880796
0.7318507700471907	5584213.460081386
0.7319727451755319	5562210.494805034
0.732094740633061	5535931.659279533
0.7322167564231665	5509456.1080120355
0.7323387925492371	5482976.144152658
0.7324608490146619	5456491.766965979
0.732582925822831	5430002.975716429
0.7327050229771347	5403509.769668368
0.7328271404809642	5377012.148085938
0.7329492783377112	5350275.154443994
0.7330714365507675	5321223.840573597
0.7331936151235259	5292167.684817562
0.7333158140593796	5263106.686368934
0.7334380333617229	5234040.84442052
0.7335602730339499	5204970.158165102
0.7336825330794556	5175894.626795301
0.7338048135016354	5146814.249503662
0.7339271143038857	5117652.407660872
0.734049435489603	5088228.983271706
0.7341717770621846	5058800.65497847
0.7342941390250283	5029367.421963867
0.7344165213815324	4999929.283410439
0.734538924135096	4970486.238500543
0.7346613472891185	4941038.286416534
0.734783790847	4911585.426340501
0.7349062548121412	4880067.294790699
0.7350287391879431	4844902.135064173
0.7351512439778078	4809731.1144776195
0.7352737691851374	4774554.232054344
0.735396314813335	4739371.486817301
0.7355188808658037	4704182.877789443
0.7356414673459482	4668988.403993343
0.7357640742571725	4633788.064451633
0.7358867016028818	4601653.80273368
0.7360093493864824	4572548.007574512
0.7361320176113801	4543437.361449524
0.736254706280982	4514321.863550181
0.7363774153986956	4485201.513067817
0.7365001449679286	4456076.309193766
0.7366228949920899	4426946.251119045
0.7367456654745885	4397811.338034646
0.7368684564188344	4368913.471216734
0.7369912678282374	4340147.506048409
0.7371140997062088	4311376.746552545
0.7372369520561599	4282601.1919300705
0.7373598248815024	4253820.841381891
0.7374827181856494	4225035.694108571
0.7376056319720137	4196245.749310704
0.7377285662440091	4167451.0061886986
0.7378515210050496	4136938.212544463
0.7379744962585505	4105904.868208427
0.738097492007927	4074866.351648343
0.7382205082565949	4043822.6620021844
0.738343545007971	4012773.7984077577
0.7384666022654723	3981719.760002701
0.7385896800325165	3950660.5459246235
0.7387127783125219	3919596.155310827
0.7388358971089073	3893483.0321022207
0.7389590364250921	3867862.7004224337
0.7390821962644963	3842238.098687347
0.7392053766305403	3816609.226185342
0.7393285775266454	3790976.082204568
0.7394517989562333	3765338.666033106
0.7395750409227259	3739696.97695899
0.7396983034295463	3713985.9982992397
0.739821586480118	3686824.4058212815
0.7399448900778645	3659658.286411298
0.7400682142262109	3632487.6393146636
0.740191558928582	3605312.4637768753
0.7403149241884034	3578132.7590431855
0.7404383100091014	3550948.5243586996
0.7405617163941028	3523759.7589684506
0.7406851433468352	3495856.5826399596
0.7408085908707264	3464701.2278929143
0.7409320589692048	3433540.6805867595
0.7410555476456997	3402374.9398560286
0.7411790569036406	3371204.0048351986
0.7413025867464579	3340027.874658523
0.7414261371775823	3308846.5484601427
0.7415497082004452	3277660.0253740866
0.7416732998184786	3246795.3614862175
0.741796912035115	3216627.1550425454
0.7419205448537874	3186453.920564473
0.7420441982779297	3156275.6572139887
0.742167872310976	3126092.364152918
0.7422915669563612	3095904.0405430053
0.7424152822175206	3065710.6855458315
0.7425390180978901	3035512.298322844
0.7426627746009065	3006816.3278141064
0.7427865517300065	2979953.263869859
0.7429103494886282	2953085.722748259
0.7430341678802096	2926213.7037031604
0.7431580069081896	2899337.205988222
0.7432818665760077	2872456.2288569594
0.7434057468871037	2845570.7715628645
0.7435296478449182	2818680.833359236
0.7436535694528923	2791187.491114053
0.7437775117144678	2763279.5859016934
0.7439014746330868	2735367.0293718404
0.7440254582121922	2707449.8207492083
0.7441494624552276	2679527.959258462
0.7442734873656368	2651601.444124139
0.7443975329468645	2623670.274570605
0.7445215992023557	2595734.4498221483
0.7446456861355559	2568740.3617005423
0.7447697937499119	2542090.4004685623
0.7448939220488703	2515435.9975763834
0.7450180710358784	2488777.1522837454
0.7451422407143843	2462113.8638502224
0.7452664310878367	2435446.1315352693
0.7453906421596846	2408773.954598292
0.7455148739333779	2382097.332298483
0.7456391264123667	2355780.3680223906
0.7457633996001021	2329517.235822196
0.7458876935000356	2303249.726433254
0.7460120081156189	2276977.839126131
0.7461363434503048	2250701.573171111
0.7462606995075466	2224420.927838408
0.7463850762907978	2198135.9023981886
0.7465094738035127	2171852.0839367877
0.7466338920491467	2147025.626518152
0.746758331031155	2122195.031356589
0.7468827907529935	2097360.2977625285
0.7470072712181189	2072521.4250462016
0.7471317724299886	2047678.4125177506
0.7472562943920602	2022831.259487229
0.7473808371077922	1997979.9652645134
0.7475054005806435	1973183.1759135993
0.7476299848140736	1948743.49477031
0.7477545898115426	1924299.7403468245
0.7478792155765113	1899851.9119642626
0.7480038621124406	1875400.0089436565
0.7481285294227926	1850944.0306058857
0.7482532175110298	1826483.9762716994
0.7483779263806148	1802019.845261825
0.7485026560350116	1777927.8911915803
0.7486274064776842	1754850.239953677
0.748752177712097	1731768.742440609
0.7488769697417158	1708683.39801124
0.749001782570006	1685594.2060244938
0.7491266162004343	1662501.16583909
0.7492514706364677	1639404.2768136447
0.7493763458815739	1616303.5383066721
0.7495012419392209	1593529.6178745118
0.7496261588128773	1571227.2767290375
0.7497510965060128	1548921.2185266903
0.7498760550220971	1526611.4426479843
0.7500010343646007	1504297.948473295
0.7501260345369949	1481980.7353828987
0.750251055542751	1459659.8027570127
0.7503760973853414	1437335.1499756754
0.7505011600682389	1415695.5262542297
0.750626243594917	1394627.386292316
0.7507513479688495	1373555.7349737738
0.7508764731935109	1352480.5717133381
0.7510016192723765	1331401.895925687
0.7511267862089218	1310319.7070254243
0.7512519740066232	1289234.004427004
0.7513771826689577	1268144.787544805
0.7515024121994025	1248235.3286117772
0.7516276626014359	1228874.259719911
0.751752933878536	1209509.9639832634
0.7518782260341824	1190142.4408639867
0.7520035390718548	1170771.6898241814
0.7521288729950334	1151397.7103258795
0.7522542278071992	1132020.501830993
0.7523796035118337	1112640.063801348
0.7525050001124189	1093845.4779329833
0.7526304176124378	1075175.8718450868
0.7527558560153731	1056503.1541561994
0.752881315324709	1037827.3243476794
0.7530067955439299	1019148.3819008511
0.7531322966765205	1000466.3262969733
0.7532578187259665	981781.1570171558
0.7533833616957542	963092.8735424589
0.75350892558937	945341.8084762173
0.7536345104103016	927632.0020500222
0.7537601161620366	909919.2439894318
0.7538857428480638	892203.5338024808
0.7540113904718717	874484.8709971881
0.7541370590369503	856763.2550814319
0.7542627485467898	839038.6855630119
0.7543884590048808	821474.3888128155
0.7545141904147151	805534.8814546034
0.7546399427797842	789592.7175118573
0.7547657161035808	773647.8965417849
0.754891510389598	757700.4181015516
0.7550173256413296	741750.2817482386
0.7551431618622698	725797.4870388705
0.7552690190559135	709842.0335303877
0.7553948972257561	694112.7923143818
0.7555207963752938	679149.1651342607
0.755646716508023	664183.0440162848
0.755772657627441	649214.4285447841
0.7558986197370455	634243.3183040358
0.756024602840335	619269.7128782513
0.7561506069408084	604293.6118515626
0.7562766320419653	589315.0148080228
0.7564026781473054	574642.955045811
0.75652874526033	560512.2668294588
0.7566548333845401	546379.2234983966
0.7567809425234375	532243.8246601175
0.7569070726805247	518106.0699220402
0.7570332238593047	503965.9588915084
0.7571593960632813	489823.4911757913
0.7572855892959586	475678.66638212086
0.7574118035608413	462489.00874630123
0.7575380388614347	450233.930427618
0.7576642952012449	437976.809595877
0.7577905725837782	425717.6459106818
0.7579168710125422	413456.4390315172
0.7580431904910444	401193.1886178681
0.7581695310227928	388927.8943291656
0.7582958926112967	376660.5558247329
0.7584222752600652	365228.6972049383
0.7585486789726085	354276.05910332693
0.7586751037524372	343321.5955620278
0.7588015496030628	332365.30627678375
0.7589280165279966	321407.1909433472
0.7590545045307512	310447.249257355
0.7591810136148396	299485.48091441544
0.7593075437837755	288521.88561006926
0.7594340950410726	278620.15071292437
0.7595606673902461	269025.3802215442
0.7596872608348112	259429.01060173908
0.7598138753782836	249831.04158700796
0.75994051102418	240231.47291076538
0.7600671677760173	230630.30430641765
0.7601938456373134	221027.5355072951
0.7603205446115863	211423.1662467115
0.7604472647023548	203021.0125133236
0.7605740059131385	194737.11761296197
0.7607007682474575	186451.84206344222
0.7608275517088319	178165.1856346826
0.7609543563007835	169877.1480964998
0.7610811820268336	161587.72921873227
0.7612080288905045	153296.92877116773
0.7613348968953197	145060.40440193992
0.7614617860448022	137964.48404898163
0.7615886963424764	130867.38104262154
0.7617156277918667	123769.09518576723
0.7618425803964988	116669.62628126428
0.7619695541598982	109568.97413194581
0.7620965490855914	102467.13854060769
0.7622235651771058	95364.11930999612
0.7623506024379685	88624.51061935976
0.7624776608717082	83481.83561151972
0.7626047404818536	78338.30349117814
0.7627318412719337	73193.91411549199
0.762858963245479	68048.66734157335
0.7629861064060198	62902.56302652525
0.7631132707570876	57755.601027419296
0.7632404563022137	52607.78120131811
0.7633676630449308	47999.157766954224
0.7634948909887717	44539.36265621305
0.7636221401372697	41078.99091295792
0.7637494104939593	37618.04244107565
0.7638767020623748	34156.51714445307
0.7640040148460518	30694.414926943773
0.7641313488485262	27231.73569239835
0.7642587040733344	23768.47934464324
0.7643860805240132	21004.065109179995
0.7645134782041005	19073.807054187357
0.7646408971171346	17143.227289518083
0.764768337266654	15212.325761555405
0.7648957986561985	13281.102416670776
0.7650232812893079	11349.557201228921
0.7651507851695227	9417.690061584475
0.7652783103003843	7485.500944083658
0.7654058566854343	6245.8306606673505
0.7655334243282153	5478.142931313291
0.7656610132322699	4710.32725400534
