#wavelength	surface flux
0.676892	88008.67161149235
0.678297	93414.91724808805
0.679702	98761.66422252823
0.681109	104092.05056549261
0.682517	109456.45184427229
0.683926	114817.74967605888
0.685337	120125.09202981989
0.686749	125413.3526397459
0.688164	130665.92169797218
0.689581	135742.03517375098
0.691	140236.19679716398
0.692422	144072.0528175112
0.693847	148977.20257896322
0.695274	154084.61341363803
0.696705	158977.0840566774
0.698139	163227.20041663534
0.699576	166834.1275395261
0.701017	169804.01366888903
0.702461	172500.73954212962
0.70391	175378.5275730699
0.705362	177466.60631900767
0.706819	178900.37912805914
0.70828	179967.50326022127
0.709745	180227.521414016
0.711216	180172.22438161503
0.71269	179034.525917181
0.71417	177144.11206989165
0.715655	173786.0082629789
0.717145	168875.40996256133
0.71864	165019.31062295125
0.72014	161268.93444024932
0.721647	157248.81785696425
0.723158	151380.05242579046
0.724676	144465.54938830054
0.726199	137402.5549237208
0.727728	130569.74786006343
0.729264	122296.44324096062
0.730805	114249.34158303641
0.732353	106557.45361742943
0.733907	98171.1740352031
0.735468	89607.22487527052
0.737035	80829.13008741701
0.738609	72181.74220087525
0.74019	64180.696068036756
0.741777	56110.7152183735
0.743372	48429.18343708414
0.744973	41359.58265567249
0.746582	34775.85164078774
0.748197	28849.797820033556
0.74982	23533.929764542143
0.751451	18862.975408528837
0.753088	14939.203206850927
0.754734	11596.521839110697
0.756386	8816.498713183451
0.758047	6557.1119370386405
0.759715	4733.603689251741
0.76139	3216.997056764697
0.763074	1950.1183392989142
0.764765	909.4902610702765
0.766464	281.8271464782732
0.768172	392.81066132826254
0.769887	382.9247581055899
0.77161	1328.7824219783558
0.773341	3013.3277900332646
0.775081	5104.149962132589
0.776829	7694.222246701517
0.778585	9921.935141093556
0.780349	11975.321517493723
0.782121	19729.46586161791
0.783902	28219.69784011532
0.785691	37394.980063277784
0.787489	48464.51509591271
0.789295	61424.541387058074
0.79111	74347.18978088448
0.792933	66474.80455940063
0.794764	40520.14139878307
0.796604	108793.02653104243
0.798453	163318.47834284254
0.80031	200161.29945821106
0.802176	237406.0944858344
0.804051	278462.08482705156
0.805934	322727.2823390034
0.807826	369939.33640702243
0.809727	418181.49689939094
0.811636	469880.07728261506
0.813554	527413.9781841445
0.81548	598911.4695067571
0.817416	673724.9318340635
0.81936	751524.971126033
0.821313	842081.3510363647
0.823274	923908.8736737019
0.825244	1030288.8452191453
0.827223	1136353.182550737
0.829211	1242102.8071034597
0.831208	1360484.974005473
0.833213	1489131.8158478541
0.835227	1611509.5512119802
0.837249	1753255.2636997483
0.83928	1905165.6427393623
0.841321	2058418.9855282493
0.843369	2238682.2862470867
0.845427	2412350.081896202
0.847493	2594593.265676785
0.849567	2537639.503469674
0.851651	1979705.5771123045
0.853742	2517241.7104623946
0.855843	3401604.5512634628
0.857952	3756802.4816245115
0.86007	4015809.518936031
0.862196	4176819.1575435214
0.864331	4448131.42389757
0.866474	4797099.090399104
0.868626	5131850.107444052
0.870786	5462899.2097368855
0.872955	5810620.317931447
0.875132	6176030.218136115
0.877317	6568990.312307082
0.879511	6943182.23475778
0.881713	7297016.055865204
0.883923	7672954.026313004
0.886142	8090540.356546419
0.888369	8383434.093291599
0.890604	8429927.143990904
0.892847	6771444.823074527
0.895099	6359095.447380448
0.897358	9133047.55294247
0.899626	10710730.035436459
0.901901	11634118.622382497
0.904185	12554986.998481462
0.906476	13094756.623187212
0.908776	13723471.616874643
0.911083	14290385.644493753
0.913398	14935731.133915348
0.915721	15446639.992174236
0.918051	15648152.258917715
0.92039	16708011.96243903
0.922736	17552315.57332016
0.925089	16722034.136093754
0.927451	12319593.06249112
0.929819	9799539.08843881
0.932195	11985802.8549981
0.934579	12953353.926262988
0.93697	15422207.59700884
0.939369	17836498.14109928
0.941774	17740260.383975472
0.944187	13916691.185682923
0.946607	14781591.458648065
0.949035	14934394.639294097
0.951469	16948986.00687065
0.953911	18406973.71223694
0.956359	20129363.69177884
0.958814	18887316.876653448
0.961277	17646600.288176794
0.963746	17818149.27770314
0.966222	18913844.92768294
0.968705	20154387.571353957
0.971194	24130852.792425767
0.97369	26438780.453762267
0.976193	26439380.686061006
0.978702	27138078.93293582
0.981217	26818693.00112185
0.983739	28621475.611123625
0.986268	30146425.56386258
0.988802	30922222.78679887
0.991343	31739485.46289308
0.99389	32031851.587893892
0.996444	31861152.226205748
0.999003	30693541.234216087
1.00157	30531079.14512163
1.00414	31100607.550139874
1.00672	32345385.623422418
1.0093	33494445.241848864
1.01189	34548968.141155474
1.01448	35356166.986966856
1.01708	35691689.839656755
1.01969	35729497.77363477
1.0223	35557493.10124018
1.02492	35301823.43986968
1.02754	35038142.94197838
1.03017	35378738.43024672
1.0328	36138111.5020148
1.03544	36615241.91220218
1.03808	36696267.40995263
1.04073	36524604.51702864
1.04339	36342625.0119257
1.04604	36178776.59397507
1.04871	35923836.90883379
1.05138	35737515.8193748
1.05405	35664150.59051481
1.05673	35852041.990898214
1.05941	36060738.73823116
1.0621	36205445.65560683
1.06479	35775987.104789466
1.06749	35255205.42809476
1.07019	34630342.07962068
1.07289	34337072.78410115
1.0756	34073359.527553484
1.07832	33739957.86993617
1.08104	33537915.480586912
1.08376	33402427.399690263
1.08649	33068189.257944353
1.08922	32090695.755127255
1.09195	30204500.34262238
1.09469	27942610.52221553
1.09743	26950890.731415577
1.10018	22897196.34252409
1.10293	18652793.165149115
1.10568	15495508.263771212
1.10844	17815539.873898808
1.1112	13353569.824669091
1.11396	11526045.797491891
1.11673	11628860.225145563
1.1195	12297727.077124096
1.12228	9281140.354411956
1.12505	9444477.374325173
1.12783	15075950.895578032
1.13062	14078319.77849231
1.13341	7638623.502076421
1.1362	11692908.776027527
1.13899	19420401.812552277
1.14178	17842307.760246977
1.14458	15134293.444546781
1.14738	18168030.316584107
1.15019	17555626.389779665
1.153	11249948.963210639
1.1558	12269351.412785139
1.15862	13469338.621402882
1.16143	13117139.209827062
1.16425	15541181.061126
1.16707	16273388.844915982
1.16989	16108946.618320536
1.17271	17660507.33634771
1.17554	20388508.10361268
1.17837	22357183.055193976
1.1812	25752005.56180165
1.18403	30177951.74399471
1.18686	31270065.64240432
1.1897	30648815.065290254
1.19253	33806778.75918703
1.19537	36092602.26159096
1.19822	35726541.82802875
1.20106	36718505.074041285
1.2039	37741160.777787134
1.20675	38430958.83496065
1.2096	38217241.01564662
1.21245	38444270.971157685
1.2153	39731547.42742139
1.21815	40581958.63976112
1.221	41366768.03894263
1.22385	42113819.91145963
1.22671	42933061.99651227
1.22957	43520810.55259694
1.23242	44247215.92704983
1.23528	45170309.88418902
1.23814	46211683.721773446
1.241	46794116.66023628
1.24387	47448777.43059282
1.24673	48473963.416534126
1.24959	48632741.6633043
1.25245	48661435.48265979
1.25532	50589233.12909363
1.25818	52602340.01753354
1.26105	53712216.63126142
1.26392	54678020.30176142
1.26678	55947500.08738608
1.26965	57215465.69400501
1.27252	58025496.62090757
1.27538	59307209.9334226
1.27825	59725078.80107067
1.28112	59296613.52477287
1.28399	59196620.51569521
1.28686	59159343.337226905
1.28973	57389228.18147804
1.2926	56657909.59503336
1.29546	57475778.46582462
1.29833	58069222.70280263
1.3012	56249977.076665536
1.30407	58573708.36957662
1.30694	58081134.61453319
1.30981	59660102.21763666
1.31267	57346770.12771673
1.31554	57973544.57883699
1.31841	59135599.55275774
1.32128	57046770.76190336
1.32414	50046185.062309176
1.32701	44585476.01103964
1.32987	32833332.244473778
1.33274	15611679.730898986
1.3356	8514526.509604456
1.33847	2752572.0245016664
1.34133	1049005.183844853
1.34419	1501265.1493129232
1.34705	1481994.0816788443
1.34991	514060.7885434081
1.35277	173643.03146859707
1.35563	528169.2662430918
1.35849	801323.1989148868
1.36135	536975.2521963448
1.3642	866967.8835730244
1.36706	892025.2126745484
1.36991	940870.4727589978
1.37277	1681890.4881561515
1.37562	1974677.8458550028
1.37847	1340902.200722838
1.38132	353196.3711740229
1.38417	103234.07723378779
1.38701	325048.1008085601
1.38986	488423.206953219
1.39271	693344.5495855095
1.39555	960684.2852644474
1.39839	807026.9763238763
1.40123	1565636.8353219067
1.40407	2296122.726411909
1.40691	2634003.0562770083
1.40974	1413631.4053397803
1.41258	504123.3122766408
1.41541	735831.0754219043
1.41824	879783.8691057978
1.42107	992670.3535330133
1.4239	848510.4323360337
1.42673	1472428.1149139078
1.42955	2051446.2218750026
1.43237	1366766.9967345803
1.43519	1854466.6483924617
1.43801	1727501.5510827135
1.44083	2503686.1390026147
1.44365	4018418.2596616414
1.44646	3473914.918971683
1.44927	5191335.870883929
1.45208	5999298.830206359
1.45489	6189147.88935161
1.45769	7536861.670188976
1.4605	9590921.95575894
1.4633	8463802.62711031
1.4661	9307773.499278383
1.4689	8379439.9108231235
1.47169	8906817.862936571
1.47449	9124964.830252612
1.47728	9435604.523183621
1.48007	8293772.243210024
1.48286	9028814.59481922
1.48564	9762605.35720212
1.48842	8198173.0229832865
1.4912	7939065.844626073
1.49398	8960634.761781076
1.49676	9485839.557285
1.49953	12575245.864711875
1.5023	15209392.92445439
1.50507	15878458.259367226
1.50784	14529383.421292158
1.51061	13650464.980921967
1.51337	15214421.700164847
1.51613	17492651.19788337
1.51888	18524923.4709875
1.52164	20827179.885765027
1.52439	21893402.80669944
1.52714	22367527.226895127
1.52989	23626932.892720558
1.53263	24236557.510512054
1.53538	25027362.13401586
1.53812	25908428.66619974
1.54086	26907211.457463503
1.54359	26964529.277538978
1.54632	27953356.475230303
1.54905	28636810.670056134
1.55178	29078226.42631464
1.5545	29869350.393251836
1.55723	30163238.666893072
1.55995	30908218.643956356
1.56266	31677265.24912585
1.56538	31852380.73449908
1.56809	31781493.87995287
1.5708	31414321.23912757
1.57351	30856318.944789935
1.57621	30769137.686039302
1.57891	30638054.660893723
1.58161	30689631.352257114
1.5843	30796767.934564967
1.587	30671185.095403075
1.58969	30104610.96550984
1.59238	29284185.873707335
1.59506	28723001.2699597
1.59774	28277091.46790609
1.60042	27654124.18189799
1.6031	26634218.736170404
1.60577	25724251.13472008
1.60844	25086573.84181545
1.61111	24535433.502095938
1.61378	23787223.353672206
1.61644	22779992.52235962
1.6191	21728895.94115914
1.62176	20627503.784601647
1.62441	19524271.970508344
1.62707	18774905.4202087
1.62971	17878919.415188257
1.63236	17561922.88536703
1.635	18520495.098189685
1.63764	19903065.209399134
1.64028	20252286.3593347
1.64292	18921178.82343423
1.64555	16147547.023582576
1.64818	14929513.21865466
1.65081	16167073.369910913
1.65343	17649296.478772916
1.65605	17586335.93496767
1.65867	17215088.802873254
1.66128	16733664.381230341
1.6639	14303709.740310604
1.66651	9783515.460580759
1.66911	9081797.614299167
1.67172	12147482.852944441
1.67432	13665811.621547474
1.67692	13158877.240759589
1.67951	12430319.01433683
1.68211	12573627.168019641
1.6847	12151817.842994168
1.68728	11167865.919628104
1.68987	10864100.303546792
1.69245	9969092.916639777
1.69503	8380398.612709885
1.6976	8105540.796211383
1.70018	8686558.840375185
1.70275	8410539.983687423
1.70531	8594673.749137416
1.70788	9322115.76006572
1.71044	9489792.795472126
1.713	10030766.323162362
1.71556	10443292.16525478
1.71811	10489435.170839932
1.72066	10545669.94552009
1.72321	10108619.906591538
1.72575	9607516.43585237
1.7283	9353769.142327206
1.73084	9032929.593580276
1.73337	8740627.206805136
1.73591	8598352.820276095
1.73844	8405756.543016706
1.74097	8196027.015580308
1.74349	7937662.175247401
1.74602	7666717.300416294
1.74854	7479637.6368422
1.75105	7048268.46494738
1.75357	6156024.238012743
1.75608	5617730.348948108
1.75859	5677008.079434073
1.7611	5698914.845594375
1.7636	5498683.709450983
1.7661	4863988.695586915
1.7686	4235106.622273319
1.7711	4054125.8052147394
1.77359	3658280.326507007
1.77608	2973214.393912293
1.77857	2601675.69518847
1.78105	2614405.4747682093
1.78354	2554207.897492697
1.78602	2134425.2376268404
1.78849	1780470.5138269574
1.79097	1609589.6134902474
1.79344	1471193.5241776588
1.79591	1543874.0864387478
1.79837	1704489.883970825
1.80084	1186676.8683128662
1.8033	746055.1618879866
1.80576	611595.347904241
1.80821	570619.8197690055
1.81067	488117.1695357268
1.81312	411755.38455475855
1.81557	393363.41604676115
1.81801	403756.2943508963
1.82046	390939.0959513834
1.8229	404738.74066206807
1.82533	372193.6662746027
1.82777	326793.81455003197
1.8302	345680.9426642943
1.83263	388955.4543102265
1.83506	371727.2642249326
1.83749	358428.1976141115
1.83991	596687.2317073733
1.84233	1032847.1825340298
1.84475	1366685.9098910715
1.84716	1294056.1232901057
1.84957	973074.8227803877
1.85198	745034.873111457
1.85439	571142.7485918652
1.8568	683333.9842243604
1.8592	832770.6403297825
1.8616	656318.5962267837
1.864	521991.5682798969
1.86639	628463.8379038499
1.86878	653758.1361985405
1.87118	505913.0250599551
1.87356	564871.1585727854
1.87595	951840.1636588564
1.87833	1543687.7575775648
1.88071	2005752.1059444568
1.88309	1794621.7022792897
1.88547	1470905.6593987322
1.88784	1444312.7949020604
1.89021	1368447.897889024
1.89258	1778252.9166879887
1.89494	2332095.828528709
1.89731	1904251.4896882155
1.89967	1033798.1302899264
1.90203	560704.1677337072
1.90439	631576.3529041497
1.90674	994536.3624600864
1.90909	1102685.820195175
1.91144	813262.0559865332
1.91379	514174.5784037292
1.91613	431590.52926090953
1.91848	389894.7315164844
1.92082	293889.09662380803
1.92315	274932.7522640374
1.92549	358585.9191680238
1.92782	406298.30363616603
1.93015	427212.63030753116
1.93248	483600.8925184004
1.93481	553665.0208238683
1.93713	617596.493909026
1.93945	670179.7777557141
1.94177	742946.5696969766
1.94409	764487.7624714887
1.94641	731951.9795157372
1.94872	833330.0594829331
1.95103	965708.3544003525
1.95334	774971.2447398265
1.95564	582524.8732252477
1.95795	590673.02408771
1.96025	750990.602180467
1.96255	1000698.8044600246
1.96484	1264548.8055344257
1.96714	1495216.8550281795
1.96943	1649081.432915595
1.97172	1678435.8318779215
1.97401	1602082.7035106125
1.97629	1521275.6037234967
1.97858	1431630.412337677
1.98086	1535352.3511766628
1.98314	1903261.3837092496
1.98541	2240924.2504866626
1.98769	2311423.1365800044
1.98996	2176227.462786592
1.99223	2055557.1440433287
1.9945	2083987.4301950696
1.99677	2249347.28455833
1.99903	2493564.24887009
2.00129	2568727.986416179
2.00355	2386781.4605162544
2.00581	2192015.2639786913
2.00806	2445269.629959971
2.01031	2903374.030521145
2.01256	2970349.4426509137
2.01481	2820759.30012181
2.01706	2741582.491794707
2.0193	2794090.280203145
2.02154	2859233.6552469237
2.02378	2783844.8578428635
2.02602	2807371.0357689257
2.02825	2951680.223247531
2.03049	3022552.5694819726
2.03272	3045192.6593924332
2.03494	3091306.290736535
2.03717	3197302.1904537296
2.03939	3295156.3452744475
2.04162	3339691.12785991
2.04384	3449780.665352683
2.04605	3598602.4370876784
2.04827	3714038.203737276
2.05048	3713875.953534241
2.05269	3648266.2145830547
2.0549	3633280.703678327
2.05711	3680852.5179294664
2.05931	3749589.5028320835
2.06151	3790114.333830152
2.06371	3782942.9852584647
2.06591	3776558.9613584816
2.06811	3771241.004365327
2.0703	3760896.7921606796
2.07249	3743784.5136089614
2.07468	3725436.861731678
2.07686	3713286.0757450946
2.07905	3700634.5390929948
2.08123	3689021.363429332
2.08341	3681603.8331857645
2.08559	3683667.920999393
2.08776	3683397.478386703
2.08994	3675601.7285765023
2.09211	3661531.196084511
2.09428	3644324.523555435
2.09645	3630496.4649260417
2.09861	3613040.336585799
2.10077	3592997.6332357475
2.10293	3571981.0153059782
2.10509	3551166.05896027
2.10725	3529476.694146791
2.1094	3515795.0355248773
2.11155	3505548.9833135037
2.1137	3495487.87654877
2.11585	3481521.7909649326
2.11799	3464733.8516509347
2.12013	3449305.837347051
2.12227	3436286.949636689
2.12441	3425821.3912877548
2.12655	3412171.982890019
2.12868	3398312.6667377404
2.13081	3385572.7861593007
2.13294	3372283.8627303494
2.13507	3348468.9087518896
2.13719	3324441.676396744
2.13931	3299936.773144375
2.14143	3271668.404160186
2.14355	3229727.435333806
2.14567	3216743.7333668545
2.14778	3201294.4222238865
2.14989	3174349.939562567
2.152	3125735.13388156
2.1541	3114538.831621222
2.15621	3110920.7987464597
2.15831	3103279.8712783055
2.16041	3069841.776300583
2.16251	3045282.3793778284
2.1646	3015921.3136010687
2.1667	2982391.046153776
2.16879	2966170.494524156
2.17087	2955689.009231802
2.17296	2941157.558918674
2.17504	2916873.658821594
2.17713	2856068.3144321935
2.1792	2791647.503659277
2.18128	2732764.0937603684
2.18336	2691987.366567074
2.18543	2635832.117787225
2.1875	2537489.1615638356
2.18957	2392305.9378166595
2.19163	2184394.595739779
2.1937	2007654.9491178389
2.19576	1864744.7876135167
2.19782	1760882.4098693253
2.19987	1635279.0503329914
2.20193	1523432.5026757936
2.20398	1436412.4996094631
2.20603	1413529.2938345305
2.20808	1480282.4616304429
2.21012	1584372.0559196204
2.21217	1707524.4897013276
2.21421	1774367.6098402378
2.21625	1794442.2707659777
2.21828	1770678.9317688742
2.22032	1722022.630263448
2.22235	1680289.5765265883
2.22438	1637600.1030661368
2.22641	1578461.3652536331
2.22843	1531005.0163382653
2.23046	1497323.1865655726
2.23248	1485001.2537795957
2.2345	1467664.2905803302
2.23651	1439990.4369318301
2.23853	1399515.6817816372
2.24054	1315845.0106321597
2.24255	1195624.9007135183
2.24456	1047506.3871146417
2.24657	976831.6532299436
2.24857	1007250.981588138
2.25057	1099064.5343136282
2.25257	1138236.7409906692
2.25457	1134683.6373098283
2.25656	1113854.8102597876
2.25856	1123782.6778211193
2.26055	1121770.2285443125
2.26254	1113810.2488644638
2.26453	1104047.8121018647
2.26651	1129245.3399164074
2.2685	1174714.984967254
2.27048	1240092.7686458565
2.27246	1286156.7767711747
2.27443	1310984.1340449213
2.27641	1283624.5686783502
2.27838	1235456.6129299535
2.28036	1179541.8350874418
2.28233	1133947.8427046463
2.28429	1102105.3019702162
2.28626	1076815.985797818
2.28823	1049372.3234569936
2.29019	1033004.853603032
2.29215	1025208.8395127648
2.29411	1035916.4003011668
2.29607	1039939.5519460407
2.29802	1038467.2445902114
2.29998	1048029.829276483
2.30193	1092727.1135194937
2.30388	1177634.098624334
2.30583	1323099.9520769727
2.30778	1461705.9032832957
2.30972	1578742.224339328
2.31167	1568155.707118547
2.31361	1472043.4540566802
2.31555	1211085.7959625341
2.31749	995982.86674473
2.31943	830282.6596986578
2.32137	869083.6269478973
2.32331	902122.3946669825
2.32524	930426.092955206
2.32718	889983.2219534793
2.32911	869215.1021274313
2.33104	878091.019116462
2.33297	886506.346519126
2.3349	887090.5443493802
2.33683	863654.2048871194
2.33876	839795.768174116
2.34068	815685.1231111786
2.34261	789072.4967727204
2.34453	774206.2712478106
2.34646	772487.4530279753
2.34838	819965.6361979743
2.3503	885741.5053333865
2.35223	982362.503773786
2.35415	1075486.5252724332
2.35607	1166867.1874231207
2.35799	1254047.4652186998
2.35991	1332977.5242223612
2.36183	1401950.4226150776
2.36375	1358005.4859107106
2.36566	1257453.4561896638
2.36758	1031701.0384194263
2.3695	834525.5872824985
2.37142	655668.7045002887
2.37334	692855.7762440919
2.37526	760973.250106235
2.37718	878756.1938643345
2.3791	956942.970910681
2.38101	1017108.2063964513
2.38293	1044661.7718461074
2.38485	1085613.0747954266
2.38677	1140244.1728759697
2.3887	1190474.3477801562
2.39062	1230440.4521184245
2.39254	1241683.654087099
2.39446	1247763.3378819972
2.39639	1250547.4998392237
2.39831	1284186.1185975715
2.40024	1308438.1096990514
2.40216	1313440.5194216333
2.40409	1310921.9448199777
2.40602	1311462.9997929018
2.40795	1384919.3866335545
2.40989	1469078.3229886948
2.41182	1565432.8209725502
2.41376	1591264.9246828032
2.4157	1594543.1956360682
2.41764	1569856.8409775025
2.41958	1570390.4309566119
2.42152	1591429.9572299107
2.42347	1623353.8224902079
2.42542	1667261.307712147
