#wavelength	surface flux
0.6450077295303345	36132.043243721426
0.6472567915916443	41787.74625823322
0.6494921445846558	48257.36897418041
0.6517150402069092	55279.69974196962
0.6539263725280762	62891.16951528745
0.6561272740364075	71138.32521891675
0.6583186388015747	79914.52522541731
0.6605015397071838	89423.82910056386
0.6626768708229065	99418.22212785743
0.6648455858230591	109812.75223253954
0.6670085787773132	119091.31901642248
0.6691668033599854	107598.30374935093
0.6713210344314575	87111.94932251419
0.6734722256660461	148450.20988042507
0.6756211519241333	170526.24750667877
0.6777685880661011	186050.6366289695
0.6799154281616211	200976.3019138542
0.6820623278617859	215829.07130302588
0.6842101216316223	230652.88700851117
0.6863595843315125	245229.96610748273
0.688511312007904	259512.60089744467
0.6906660795211792	272070.22284820816
0.6928245425224304	281277.55053869396
0.6949873566627502	296579.43410218856
0.6971551775932312	310927.5283827947
0.6993286609649658	321735.29088039824
0.7015084028244019	329571.5282644086
0.7036949396133423	338232.3591742333
0.7058889269828796	344695.50978709885
0.7080909013748169	349048.8053369313
0.710301399230957	351028.46973925777
0.712520956993103	350525.5088945711
0.7147500514984131	345976.1144215679
0.7169892191886902	332598.76883580064
0.7192389369010925	323827.211635586
0.7214996814727783	316301.05822344625
0.723771870136261	301552.62421683
0.7260559797286987	283097.91759577417
0.7283523678779602	265383.8109785182
0.7306615710258484	242901.10677061658
0.7329838871955872	222391.56746661922
0.7353196740150452	199236.3555336312
0.7376693487167358	173718.7071891597
0.7400332689285278	149734.70204813767
0.7424117922782898	125054.37485643695
0.7448052167892456	101939.77519000554
0.7472138404846191	80410.94965650595
0.7496379613876343	61063.00051802939
0.7520779371261597	44485.71781735989
0.7545340061187744	30886.26356265342
0.7570064663887024	20272.427967432803
0.7594954967498779	12353.735119175219
0.7620013952255249	6630.450154304407
0.7645244002342224	2443.1645754790934
0.7670646905899048	649.4991739159143
0.7696225643157959	732.4084564909974
0.7721980810165405	4402.211376001128
0.7747915983200073	11422.0558948139
0.7774031162261963	21226.60750536385
0.7800329327583313	27870.092123994273
0.7826811671257019	56025.764382684065
0.7853479981422424	87504.81690761802
0.7880334854125977	125803.24655775358
0.7907378077507019	170293.356640251
0.7934610247612	115196.46477101173
0.7962033748626709	203275.63217562778
0.7989648580551147	375840.81919376744
0.801745593547821	479868.475972555
0.8045456409454346	591570.5746108894
0.8073651194572449	712061.8340536343
0.8102040886878967	828042.2610305421
0.8130625486373901	952874.8571788552
0.8159406185150146	1134008.4702254597
0.8188382983207703	1304417.000862436
0.8217556476593018	1521265.2941451934
0.8246926665306091	1734416.3362275546
0.8276493549346924	1979112.380225171
0.8306257724761963	2219805.399172767
0.8336219191551208	2496135.493932759
0.8366377949714661	2755006.2593463236
0.8396733403205872	3075728.6707997695
0.8427285552024841	3420879.849435997
0.8458034992218018	3798414.603819825
0.8488980531692505	4086937.2252323763
0.8520121574401855	2942332.339015342
0.8551458716392517	4837481.495668344
0.8582990765571594	5679615.69458901
0.8614717125892639	6057633.282684459
0.8646637797355652	6518196.018076152
0.8678751587867737	7199866.332275498
0.8711057901382446	7831306.453326963
0.8743556141853333	8474682.590551117
0.87762451171875	9196068.429518547
0.8809124231338501	9809217.16158194
0.8842192888259888	10447386.1621397
0.8875449895858765	11016650.603127135
0.8908893465995789	10916467.063381849
0.894252359867096	7391522.974145624
0.8976338505744934	11996402.97126152
0.9010337591171265	14466935.68069412
0.9044519662857056	16292673.991791958
0.9078882932662964	17153586.880489264
0.9113426208496094	18151706.073439218
0.914814829826355	19156332.298949547
0.9183048605918884	18918579.273922604
0.9218124747276306	21370822.624563675
0.925337553024292	19095575.920156106
0.9288799166679382	8295030.553270692
0.9324395060539246	11747459.313353661
0.9360161423683167	14330604.333409972
0.9396095871925354	19079043.114106428
0.943219780921936	14575306.503072204
0.9468464851379395	13536915.462629126
0.9504896402359009	14642514.699817797
0.9541489481925964	18707491.90895302
0.9578243494033813	20344264.29682166
0.9615156054496765	15954764.4461157
0.9652225375175476	16858239.604161415
0.9689450263977051	18632420.204324447
0.9726828336715698	28892860.0182769
0.9764357805252075	29223248.675118983
0.9802037477493286	29617366.106357723
0.983986496925354	33118888.1046901
0.9877838492393494	36028261.486693405
0.9915955662727356	38894412.19304177
0.9954215884208679	40230349.233664796
0.9992615580558777	37895834.17449343
1.0031154155731201	39024005.70147549
1.0069829225540161	42981571.66070526
1.0108637809753418	47006422.03339538
1.0147579908370972	51512378.53987788
1.018665075302124	54158229.594077945
1.022585153579712	55915256.61973284
1.0265177488327026	57236901.391921036
1.0304628610610962	60646226.84444321
1.0344202518463135	64997890.88417518
1.0383895635604858	67949433.33134678
1.0423706769943237	69916868.95019905
1.0463634729385376	72349152.58480915
1.0503677129745483	73880813.82926278
1.0543830394744873	76586099.15756398
1.058409333229065	79348805.99958515
1.0624464750289917	82257483.5458383
1.0664942264556885	83162602.48753934
1.0705522298812866	83319263.84799725
1.0746204853057861	86271129.67162609
1.0786986351013184	87281471.44727625
1.0827864408493042	88757177.79427432
1.086883783340454	85637333.94203456
1.0909905433654785	72232531.29137887
1.0951062440872192	55614784.85222968
1.0992310047149658	46226068.22001925
1.10336434841156	23833989.228054542
1.1075061559677124	25295799.716328435
1.1116561889648438	14726230.008373413
1.115814208984375	14339508.821508856
1.1199802160263062	13953781.156350749
1.124153733253479	8355144.259085322
1.1283347606658936	19835667.33158461
1.1325229406356812	9317016.782442696
1.1367181539535522	17816091.33689189
1.1409201622009277	23108946.0082845
1.145128846168518	18583132.66709692
1.1493438482284546	25364089.234402396
1.1535650491714478	9943350.957369428
1.1577922105789185	14095993.541434472
1.1620250940322876	13493292.474299463
1.1662636995315552	17309787.59825937
1.170507550239563	15659307.47785521
1.174756646156311	21475357.502581816
1.1790107488632202	27827522.712161526
1.1832695007324219	42217483.13611514
1.1875330209732056	48239135.469570555
1.191800832748413	53600167.227551654
1.1960728168487549	67817141.18625695
1.2003488540649414	68903882.05752519
1.2046287059783936	78528072.80064669
1.2089121341705322	78782900.1387398
1.2131990194320679	81315929.40627828
1.2174891233444214	90527810.91295859
1.2217823266983032	96588879.02000485
1.2260783910751343	102224562.98346382
1.230377197265625	103952435.18214116
1.2346785068511963	107843227.15950641
1.238982081413269	108712375.84748359
1.2432878017425537	99194796.5603578
1.2475954294204712	109166037.62044431
1.2519049644470215	95087685.28269283
1.256216049194336	115241392.68769738
1.2605286836624146	123989762.8626227
1.2648425102233887	123650842.74886404
1.2691574096679688	126874543.37183523
1.2734732627868652	126499316.11447182
1.2777899503707886	127935125.18344808
1.2821072340011597	119007886.38062187
1.2864248752593994	117278306.75478484
1.2907428741455078	103796980.05518265
1.2950609922409058	103627018.02233566
1.2993791103363037	101055398.25091864
1.303696870803833	102000865.12347096
1.3080145120620728	100382971.2467895
1.3123314380645752	93846604.87998602
1.3166478872299194	92077032.59979047
1.3209635019302368	86803450.00047858
1.3252781629562378	56990584.7281333
1.3295916318893433	38571696.84447258
1.3339040279388428	9367457.942231715
1.3382149934768677	2173246.1304797498
1.3425244092941284	899710.770992836
1.3468321561813354	1543091.4725025883
1.3511382341384888	281687.79963384685
1.3554422855377197	511579.2778785801
1.3597444295883179	641720.2386567272
1.3640443086624146	721741.1496371431
1.3683418035507202	622870.8148321126
1.3726370334625244	1228560.0997045278
1.3769296407699585	1238528.8271493707
1.381219506263733	278883.5957740146
1.3855066299438477	166159.86291235412
1.3897908926010132	413033.73634621344
1.3940720558166504	833580.6230062812
1.3983501195907593	644188.3867532132
1.4026249647140503	1647312.1304986712
1.4068963527679443	2351281.578701078
1.4111642837524414	673794.8452250324
1.4154287576675415	599178.3425370972
1.419689416885376	760314.2309151012
1.4239463806152344	693759.1545512984
1.4281994104385376	1783709.7158270956
1.4324485063552856	1143155.3762922832
1.436693549156189	1416041.039839601
1.440934419631958	2019729.1650176975
1.4451709985733032	2681457.94295275
1.449403166770935	3947587.340648458
1.453631043434143	4441149.989354127
1.4578542709350586	5900553.716308301
1.4620729684829712	6738383.481872616
1.4662868976593018	6985156.417987565
1.4704961776733398	6823073.750602893
1.4747005701065063	7632051.941893855
1.4788999557495117	7300256.565472597
1.4830944538116455	8122803.645253478
1.4872838258743286	8503761.415082214
1.491468071937561	8313507.160112775
1.4956470727920532	9545882.173112571
1.4998208284378052	13648634.10570145
1.5039892196655273	17067870.549008902
1.5081522464752197	15560182.369618779
1.5123097896575928	17144581.323801946
1.5164618492126465	21927989.311395932
1.5206083059310913	25396467.238461625
1.5247491598129272	30351711.279646236
1.5288842916488647	29211398.243083503
1.5330137014389038	34058856.24578239
1.5371372699737549	35730850.34344952
1.541254997253418	37321452.90456026
1.545366883277893	40642892.444598794
1.5494728088378906	44249883.26586164
1.5535727739334106	45303169.57348773
1.5576666593551636	46832680.275242
1.561754584312439	51920421.58628639
1.5658363103866577	53849427.99537636
1.5699119567871094	55692522.429862745
1.5739814043045044	54674379.67236183
1.5780447721481323	56235524.96924944
1.582101821899414	57981945.75584205
1.5861525535583496	59889689.61731076
1.5901970863342285	58509708.03979258
1.5942351818084717	56959432.36593168
1.5982669591903687	56763190.67085541
1.6022924184799194	54485682.22610158
1.606311559677124	51154207.98563873
1.6103241443634033	49954007.46709795
1.6143304109573364	47910814.44920954
1.6183301210403442	44093865.37402712
1.6223233938217163	40047682.40464332
1.6263102293014526	37023903.53469069
1.6302905082702637	34266188.00842736
1.634264349937439	36974329.216720946
1.638231635093689	44951617.765632875
1.6421923637390137	43293393.40007208
1.646146535873413	32209508.728732556
1.6500942707061768	32358592.165283486
1.6540353298187256	39801852.631816685
1.6579699516296387	38530282.34086104
1.661897897720337	36996361.83779732
1.6658192873001099	22563083.83147435
1.6697341203689575	17335800.48343171
1.6736423969268799	28593887.217677686
1.677544116973877	27438326.14950618
1.6814392805099487	26914306.117127437
1.6853278875350952	25364428.683559496
1.6892099380493164	22289876.556408666
1.6930854320526123	18460902.649998456
1.696954369544983	14460493.007808428
1.7008168697357178	16314210.407715
1.7046726942062378	16160657.321753476
1.708522081375122	19669473.54021952
1.712364912033081	20957820.642560862
1.7162011861801147	22954852.71999341
1.7200311422348022	23624872.707234345
1.723854422569275	21663124.645848442
1.7276713848114014	19982055.20116616
1.731481909751892	18396367.840784263
1.7352858781814575	17239649.244782846
1.7390835285186768	15993650.307806762
1.7428747415542603	14547051.078487208
1.7466596364974976	13605806.544938331
1.7504380941390991	12762910.132414231
1.7542102336883545	8853947.734509079
1.7579760551452637	8204144.561958508
1.7617355585098267	8724649.295171028
1.7654887437820435	7690574.696970384
1.7692357301712036	5778900.908268069
1.7729763984680176	5151820.186148022
1.776710867881775	3389611.899574508
1.7804391384124756	3054438.4159400184
1.7841613292694092	3115229.7906603264
1.7878772020339966	2129882.542358677
1.7915871143341064	1771142.2524279815
1.7952908277511597	1803929.1258607984
1.7989884614944458	2055932.1614316828
1.8026801347732544	1017440.3676739829
1.806365728378296	678913.8397309509
1.8100452423095703	571586.3584061704
1.8137187957763672	463488.588704438
1.817386507987976	479544.4275187968
1.8210482597351074	479028.8591428977
1.8247040510177612	472768.2232515724
1.828354001045227	399075.54246802034
1.8319982290267944	474111.1697298049
1.8356364965438843	440773.83175256616
1.8392690420150757	635897.1576772849
1.8428958654403687	1530114.3197714547
1.8465168476104736	1936755.7370756434
1.8501322269439697	1190590.926558062
1.8537418842315674	692683.9414024483
1.8573459386825562	937106.2710343087
1.860944390296936	885510.681860687
1.864537239074707	706323.391553794
1.8681244850158691	967770.5004734088
1.871706247329712	693735.4890967186
1.8752825260162354	1115443.4804897876
1.8788533210754395	2442447.9653583113
1.8824186325073242	2721153.951892777
1.8859784603118896	2095806.681538702
1.8895330429077148	2052930.9680781905
1.8930821418762207	3223190.0707093347
1.8966259956359863	3794525.637273105
1.9001644849777222	1316858.109507272
1.9036977291107178	874006.2725521198
1.9072256088256836	1962712.2468128079
1.9107483625411987	1571811.2318765782
1.9142658710479736	682154.3778926055
1.9177782535552979	553452.6016890892
1.9212853908538818	379484.51302157063
1.9247875213623047	443611.7766877471
1.9282845258712769	551005.9676886627
1.9317764043807983	663344.2739136004
1.9352631568908691	892491.3729964043
1.9387450218200684	1099341.3671867668
1.942221760749817	1361330.6704326724
1.9456936120986938	1176383.5719981764
1.9491604566574097	1410350.743094107
1.952622413635254	1331670.6222793625
1.956079363822937	857816.625331985
1.959531545639038	1067939.8503682977
1.962978720664978	1549833.0670613823
1.966421127319336	2532428.7625618265
1.9698586463928223	3488861.389200548
1.9732913970947266	3177330.2904313197
1.9767193794250488	2915164.4297174495
1.9801424741744995	3266310.641243688
1.9835609197616577	4781492.674236005
1.9869745969772339	5685946.358756727
1.990383505821228	4618894.404209794
1.9937876462936401	4827517.374401467
1.9971871376037598	5395579.180407898
2.000581979751587	5788069.4371071225
2.003972291946411	6074436.364520606
2.007357597351074	6656311.6392274955
2.0107386112213135	8237919.512936838
2.0141148567199707	8521254.668971112
2.017486572265625	8005193.220234293
2.0208535194396973	8940904.463773096
2.0242159366607666	9779216.100353774
2.027573823928833	9842427.43106644
2.0309269428253174	10044108.698218135
2.034275770187378	10623547.543938706
2.0376198291778564	11156595.836734997
2.040959596633911	11534829.90209369
2.044294595718384	12367509.190889044
2.0476250648498535	13804641.653447274
2.0509510040283203	13540501.36588965
2.054272413253784	13140657.767690424
2.057589530944824	13979877.004082065
2.0609018802642822	14525259.758837055
2.0642096996307373	14432837.745853972
2.0675129890441895	14687435.867938522
2.0708119869232178	14830659.152870515
2.074106216430664	14577473.059634684
2.0773961544036865	14368333.468990862
2.080681324005127	14423330.511490285
2.0839622020721436	14440376.343949558
2.087238311767578	14504442.252842244
2.090510129928589	14551424.358864864
2.0937774181365967	14454764.798954811
2.0970399379730225	14386811.776130982
2.1002981662750244	14187692.910406755
2.1035518646240234	13896446.165819502
2.1068007946014404	13619313.940978264
2.1100454330444336	13530455.430241434
2.1132853031158447	13549285.088811116
2.116520881652832	13428883.093704399
2.1197516918182373	13288455.486555545
2.1229779720306396	13212363.246988297
2.12619948387146	13105479.176918397
2.1294167041778564	12950966.438130926
2.132629156112671	12845488.428062495
2.1358368396759033	12564368.904869543
2.139039993286133	12242115.015136592
2.1422386169433594	11838323.11868947
2.145432472229004	11484546.922305182
2.1486217975616455	11329909.080818389
2.151806354522705	10985786.258469827
2.1549863815307617	10946519.44544655
2.1581614017486572	10879233.24082369
2.16133189201355	10534904.31179938
2.1644976139068604	10378217.998205137
2.167658567428589	10167860.93035152
2.1708147525787354	9926950.803515522
2.173966407775879	9644795.791672485
2.1771130561828613	9305134.830225924
2.1802549362182617	8911693.109166307
2.183391809463501	8535844.283689914
2.1865241527557373	8099991.1245159
2.1896514892578125	7425155.962876107
2.1927738189697266	6311244.6031131735
2.1958916187286377	5108698.126689707
2.1990041732788086	4084219.460306099
2.2021119594573975	3303150.551335516
2.2052149772644043	3011366.076675981
2.208312749862671	3375770.320233747
2.2114057540893555	4019210.2362998035
2.214493751525879	4394093.427121472
2.217576742172241	4322467.777200177
2.2206547260284424	4069939.692912232
2.2237277030944824	3891268.1538036666
2.2267956733703613	3587928.2147085667
2.2298583984375	3324798.7828050465
2.2329163551330566	3162395.5010980973
2.235969066619873	2987251.585896784
2.2390167713165283	2808301.377692837
2.2420592308044434	2491696.4290249674
2.2450966835021973	2094316.0035844767
2.248128890991211	2081287.283664377
2.2511560916900635	2342077.0635419204
2.254178285598755	2366616.3980583004
2.257194995880127	2303352.5794776306
2.260206699371338	2244859.5188569166
2.2632133960723877	2099754.7242276445
2.266214609146118	2064814.85648683
2.2692108154296875	2248215.124271576
2.2722020149230957	2500539.9072577506
2.2751877307891846	2609312.7876183386
2.278168201446533	2487367.765514502
2.2811436653137207	2278242.578551358
2.284113883972168	2105188.880117657
2.287078857421875	1974759.1590659702
2.290038824081421	1873672.2298317635
2.2929933071136475	1858088.1768217548
2.295942783355713	1913011.6164273887
2.298887014389038	1987026.7281418412
2.301826238632202	2190034.929420039
2.304760217666626	2682783.4757286436
2.3076889514923096	3406516.618704199
2.310612440109253	3958571.6105582877
2.3135311603546143	3702550.967078436
2.3164443969726562	2529028.7190916156
2.319352865219116	1587710.7093146665
2.322256088256836	1515515.0179847674
2.3251543045043945	1572998.1284476293
2.328047275543213	1509380.9066838787
2.330935478210449	1502222.1464986918
2.3338186740875244	1499353.976299556
2.3366971015930176	1461090.9430856407
2.3395702838897705	1392004.4119618118
2.3424389362335205	1302243.7491939517
2.3453025817871094	1259800.5315901425
2.348161458969116	1342380.749574654
2.351015567779541	1562777.0523927042
2.353865146636963	1853790.3240903362
2.3567099571228027	2146958.576048456
2.3595502376556396	2448471.6836495195
2.3623859882354736	2687327.915654659
2.3652172088623047	2505162.4128549946
2.368043899536133	1777892.5154471677
2.370866537094116	1180868.1108831633
2.3736846446990967	1099684.786407765
2.3764986991882324	1298251.2561789704
2.3793084621429443	1497332.4351703962
2.3821144104003906	1624704.321887603
2.384916305541992	1755789.5746361283
2.387714147567749	1931375.6744670558
2.3905084133148193	2064324.9894826042
2.393299102783203	2104542.1696741576
2.3960859775543213	2139285.8419770245
2.398869514465332	2243250.7666053823
2.4016497135162354	2263110.0679842867
2.4044265747070312	2237997.2455677167
2.407200336456299	2335586.0515542855
2.409970998764038	2599289.43456788
2.4127390384674072	2848619.1515882616
2.415503978729248	2852904.8055725917
2.418266534805298	2750966.746994691
2.4210267066955566	2784396.8026957037
2.4237842559814453	2853038.3232359076
2.426539897918701	3020962.4733193023
2.429293394088745	3319122.3444143473
2.4320452213287354	3574846.976207185
2.4347951412200928	3523501.1964383703
2.4375438690185547	3413275.0284702205
2.440291166305542	3683273.3573410586
2.443037271499634	3586680.4283624827
2.445782423019409	3201670.436349798
2.4485268592834473	2882143.3159058206
2.451270818710327	2848991.5358247347
2.454014539718628	3038289.6656017397
2.4567582607269287	3261063.9732874567
2.4595019817352295	3209296.0445302897
2.4622461795806885	3174719.3647479173
2.4649908542633057	3015786.8571148533
2.4677364826202393	2716566.846287243
2.4704833030700684	2352030.51110411
2.473231554031372	2021988.7434568573
2.4759814739227295	1764671.4987279763
2.4787333011627197	1729724.2561351336
