#wavelength	surface flux
0.7	4567357.300795683
0.7001166666666666	4573214.451355657
0.7002333527777778	4576711.7724653
0.700350058336574	4580209.6764617935
0.7004667833462966	4583708.163442282
0.7005835278101878	4587207.233503944
0.7007002917314895	4590706.886743943
0.7008170751134447	4594207.123259483
0.7009338779592968	4597707.943147773
0.7010507002722901	4600505.120896184
0.7011675420556689	4602445.769092645
0.701284403312678	4604386.740730467
0.7014012840465635	4606328.035863567
0.7015181842605713	4608269.654545855
0.701635103957948	4610211.596831255
0.701752043141941	4612153.862773702
0.701869001815798	4614096.452427142
0.7019859799827672	4616549.507283559
0.7021029776460976	4619358.000698418
0.7022199948090387	4622166.962195517
0.7023370314748403	4624976.391852864
0.7024540876467528	4627786.289748486
0.702571163328027	4630596.65596042
0.7026882585219152	4633407.4905667305
0.7028053732316688	4636218.79364547
0.7029225074605406	4641743.546830133
0.7030396612117841	4648316.827406054
0.7031568344886527	4654891.2035287395
0.7032740272944008	4661466.675380776
0.7033912396322832	4668043.24314479
0.7035084715055552	4674620.907003424
0.7036257229174727	4681199.667139372
0.7037429938712924	4687779.523735347
0.7038602843702709	4691349.682121566
0.7039775944176659	4694409.78269469
0.7040949240167356	4697470.393284578
0.7042122731707383	4700531.513976229
0.7043296418829335	4703593.144854665
0.7044470301565806	4706655.286004912
0.70456443799494	4709717.937512016
0.7046818654012724	4712781.0994610395
0.7047993123788394	4717670.899512762
0.7049167789309024	4722563.610093582
0.7050342650607243	4727457.136126175
0.7051517707715678	4732351.477746435
0.7052692960666963	4737246.635090297
0.705386840949374	4742142.608293715
0.7055044054228656	4747039.397492674
0.7056219894904361	4751565.743194392
0.7057395931553511	4753733.527868588
0.705857216420877	4755901.673840233
0.7059748592902804	4758070.181169538
0.7060925217668288	4760239.049916733
0.70621020385379	4762408.280142053
0.7063279055544321	4764577.87190574
0.7064456268720246	4766747.825268059
0.7065633678098366	4769051.980706341
0.7066811283711383	4771725.119133438
0.7067989085592001	4774398.703083606
0.7069167083772933	4777072.7326310985
0.7070345278286895	4779747.207850183
0.707152366916661	4782422.128815139
0.7072702256444803	4785097.495600252
0.7073881040154211	4787773.308279833
0.7075060020327569	4790352.422288503
0.7076239196997625	4792790.489809495
0.7077418570197124	4795228.963675072
0.7078598139958823	4797667.843952959
0.7079777906315483	4800107.130710896
0.7080957869299869	4802546.824016623
0.7082138028944751	4804986.923937901
0.7083318385282908	4807427.4305425
0.7084498938347124	4807678.82311399
0.708567968817018	4806073.937124599
0.7086860634784875	4804468.783654206
0.7088041778224007	4802863.362658235
0.7089223118520377	4801257.6740921
0.7090404655706796	4799651.717911204
0.709158638981608	4798045.494070944
0.709276832088105	4796439.00252671
0.7093950448934531	4797880.546275427
0.7095132774009353	4800776.098887101
0.7096315296138355	4803672.134090877
0.7097498015354378	4806568.6519671865
0.7098680931690269	4809465.652596474
0.7099864045178884	4812363.136059201
0.7101047355853081	4815261.102435839
0.7102230863745722	4818159.551806872
0.7103414568889679	4818393.228514491
0.7104598471317828	4818021.3352710325
0.7105782571063047	4817649.380045367
0.7106966868158224	4817277.362827165
0.710815136263625	4816905.283606093
0.7109336054530023	4816533.1423718175
0.7110520943872445	4816160.9391140025
0.7111706030696424	4815788.673822312
0.7112891315034873	4814485.571112246
0.7114076796920712	4813137.841244695
0.7115262476386865	4811789.886755499
0.7116448353466263	4810441.707607223
0.711763442819184	4809093.30376242
0.711882070059654	4807744.675183643
0.7120007170713306	4806395.821833436
0.7121193838575091	4805141.170288559
0.7122380704214853	4804871.155050648
0.7123567767665555	4804601.094810199
0.7124755028960166	4804330.989559709
0.7125942488131658	4804060.839291678
0.7127130145213015	4803790.643998601
0.7128318000237216	4803520.403672976
0.7129506053237256	4803250.118307296
0.7130694304246129	4802344.537183709
0.7131882753296837	4799217.744859715
0.7133071400422386	4796090.431403667
0.7134260245655789	4792962.59672871
0.7135449289030065	4789834.240747974
0.7136638530578235	4786705.363374576
0.7137827970333332	4783575.964521612
0.7139017608328388	4780446.044102172
0.7140207444596443	4777316.263808599
0.7141397479170543	4774187.142433505
0.7142587712083737	4771057.499538185
0.7143778143369084	4767927.335035714
0.7144968773059646	4764796.648839159
0.7146159601188489	4761665.440861572
0.7147350627788687	4758533.711015987
0.7148541852893318	4755401.459215431
0.7149733276535467	4751045.140477023
0.7150924898748222	4745454.300360303
0.715211671956468	4739862.528436896
0.7153308739017941	4734269.8245514985
0.715450095714111	4728676.188548788
0.71556933739673	4723081.62027341
0.7156885989529628	4717486.119569987
0.7158078803861218	4711889.686283105
0.7159271816995193	4701205.8637027005
0.7160465028964692	4687534.8278238
0.7161658439802853	4673861.51343892
0.7162852049542819	4660185.920168311
0.7164045858217744	4646508.047632149
0.716523986586078	4632827.895450571
0.7166434072505089	4619145.463243634
0.716762847818384	4605460.750631327
0.7168823082930204	4596594.678967634
0.7170017886777359	4589145.424283589
0.7171212889758488	4581694.928057101
0.7172408091906781	4574243.19008124
0.7173603493255433	4566790.210149047
0.7174799093837642	4559335.988053536
0.7175994893686615	4551880.523587673
0.7177190892835562	4544423.816544402
0.7178387091317702	4545043.2176709175
0.7179583489166254	4546473.549720629
0.7180780086414448	4547904.120159017
0.7181976883095517	4549334.929025812
0.7183173879242699	4550765.976360751
0.718437107488924	4552197.26220358
0.7185568470068389	4553628.786594049
0.7186766064813399	4554798.287457803
0.7187963859157535	4549410.852408626
0.7189161853134061	4544022.519453608
0.719036004677625	4538633.288443097
0.7191558440117378	4533243.159227421
0.7192757033190732	4527852.1316568665
0.7193955826029597	4522460.205581725
0.7195154818667269	4517067.380852233
0.7196354011137046	4511113.902544773
0.7197553403472235	4502582.220955518
0.7198752995706147	4494049.117419334
0.7199952787872098	4485514.591699223
0.720115278000341	4476978.643558158
0.7202352972133411	4468441.272759068
0.7203553364295432	4459902.4790648585
0.7204753956522815	4451362.262238354
0.7205954748848902	4445191.1042503575
0.7207155741307044	4444244.94504735
0.7208356933930594	4443298.628151143
0.7209558326752915	4442352.153535454
0.7210759919807375	4441405.521173993
0.7211961713127342	4440458.731040474
0.7213163706746197	4439511.783108598
0.7214365900697322	4438564.677352067
0.7215568295014103	4433714.586690942
0.721677088972994	4424206.957524552
0.7217973684878227	4414697.743753318
0.7219176680492374	4405186.94511311
0.7220379876605789	4395674.561339801
0.722158327325189	4386160.592169194
0.7222786870464099	4376645.037337063
0.7223990668275843	4367127.896579122
0.7225194666720555	4358089.385010373
0.7226398865831676	4349389.707684476
0.7227603265642646	4340688.5804123795
0.722880786618692	4331986.002952385
0.7230012667497951	4323281.975062819
0.7231217669609201	4314576.496501938
0.7232422872554135	4305869.567027971
0.7233628276366229	4297161.186399077
0.7234833881078956	4290387.579297132
0.7236039686725803	4284347.953141814
0.7237245693340255	4278307.320382147
0.7238451900955812	4272265.680850342
0.7239658309605971	4266223.034378622
0.7240864919324239	4260179.380799149
0.7242071730144127	4254134.7199440785
0.724327874209915	4248089.051645545
0.7244485955222832	4231757.385200489
0.7245693369548704	4213722.460518705
0.7246900985110294	4195684.530016167
0.7248108801941148	4177643.5931918314
0.7249316820074803	4159599.6495447517
0.7250525039544815	4141552.6985737015
0.7251733460384739	4123502.739777487
0.7252942082628137	4105467.02421628
0.7254150906308574	4097424.403822836
0.7255359931459625	4089380.4429926593
0.7256569158114868	4081335.1415023413
0.7257778586307888	4073288.499128438
0.7258988216072273	4065240.5156474747
0.7260198047441617	4057191.1908359397
0.7261408080449525	4049140.524470256
0.72626183151296	4041033.3001971478
0.7263828751515454	4032557.781857535
0.7265039389640706	4024080.8509315336
0.726625022953898	4015602.507183706
0.7267461271243904	4007122.750378583
0.7268672514789111	3998641.580280665
0.7269883960208241	3990158.9966544043
0.7271095607534942	3981674.9992642
0.7272307456802866	3972166.777180638
0.7273519508045666	3959894.111830516
0.7274731761297006	3947619.401036174
0.7275944216590555	3935342.6444567004
0.7277156873959987	3923063.841751126
0.7278369733438982	3910782.992578414
0.727958279506122	3898500.0965975393
0.7280796058860397	3886215.1534673194
0.7282009524870207	3871530.7331252364
0.7283223193124353	3853297.799844408
0.7284437063656539	3835061.8277414036
0.7285651136500483	3816822.8163096854
0.7286865411689898	3798580.7650427665
0.7288079889258514	3780335.673433925
0.7289294569240056	3762087.5409765244
0.7290509451668262	3743836.367163693
0.7291724536576875	3727609.265186505
0.7292939823999636	3713059.1406052983
0.7294155313970303	3698506.591003299
0.7295371006522632	3683951.6159763704
0.7296586901690385	3669394.215120282
0.7297802999507332	3654834.3880307237
0.7299019300007252	3640272.1343032797
0.7300235803223919	3625707.4535335866
0.7301452509191123	3613164.92338674
0.7302669417942654	3601554.78620287
0.7303886529512311	3589942.7139961314
0.7305103843933897	3578328.7064440227
0.7306321361241218	3566712.763223998
0.7307539081468093	3555094.8840134153
0.7308757004648336	3543475.068489656
0.7309975130815778	3531853.3163299616
0.7311193460004248	3520301.7810580386
0.7312411992247582	3508764.655239977
0.7313630727579622	3497225.606567615
0.7314849666034219	3485684.634720463
0.7316068807645224	3474141.7393780095
0.7317288152446498	3462596.9202196607
0.7318507700471907	3451050.1769247795
0.7319727451755319	3439501.5091726873
0.732094740633061	3423670.3336628326
0.7322167564231665	3407643.8064222946
0.7323387925492371	3391614.608093882
0.7324608490146619	3375582.7382324194
0.732582925822831	3359548.1963926423
0.7327050229771347	3343510.9821292437
0.7328271404809642	3327471.094996785
0.7329492783377112	3311479.3585565845
0.7330714365507675	3295984.6106011486
0.7331936151235259	3280487.280187724
0.7333158140593796	3264987.366885915
0.7334380333617229	3249484.8702651984
0.7335602730339499	3233979.789895038
0.7336825330794556	3218472.125344813
0.7338048135016354	3202961.876183859
0.7339271143038857	3188050.934599517
0.734049435489603	3175154.2608493897
0.7341717770621846	3162255.437653635
0.7342941390250283	3149354.464654021
0.7344165213815324	3136451.3414922454
0.734538924135096	3123546.067809924
0.7346613472891185	3110638.643248672
0.734783790847	3097729.0674499893
0.7349062548121412	3082162.2807372976
0.7350287391879431	3061899.97378099
0.7351512439778078	3041634.2897734814
0.7352737691851374	3021365.228151996
0.735396314813335	3001092.7883535563
0.7355188808658037	2980816.9698151834
0.7356414673459482	2960537.7719736793
0.7357640742571725	2940255.194265882
0.7358867016028818	2921612.8084179307
0.7360093493864824	2904590.49135936
0.7361320176113801	2887565.3372479696
0.736254706280982	2870537.345610894
0.7363774153986956	2853506.5159751894
0.7365001449679286	2836472.847867914
0.7366228949920899	2819436.3408159404
0.7367456654745885	2802396.994346125
0.7368684564188344	2785805.6508179815
0.7369912678282374	2769466.348933747
0.7371140997062088	2753124.3238325254
0.7372369520561599	2736779.575060438
0.7373598248815024	2720432.102163592
0.7374827181856494	2704081.904687902
0.7376056319720137	2687728.9821792985
0.7377285662440091	2671373.3341836073
0.7378515210050496	2652460.6147875823
0.7379744962585505	2632776.2184299775
0.738097492007927	2613088.5413396517
0.7382205082565949	2593397.582969823
0.738343545007971	2573703.3427736033
0.7384666022654723	2554005.820203997
0.7385896800325165	2534305.0147139933
0.7387127783125219	2514600.9257563823
0.7388358971089073	2501355.116382055
0.7389590364250921	2488755.2102397447
0.7390821962644963	2476153.2041130685
0.7392053766305403	2463549.097652056
0.7393285775266454	2450942.890506624
0.7394517989562333	2438334.5823266557
0.7395750409227259	2425724.172762011
0.7396983034295463	2412960.0399198392
0.739821586480118	2396820.845669162
0.7399448900778645	2380678.9615528085
0.7400682142262109	2364534.3871223866
0.740191558928582	2348387.1219295766
0.7403149241884034	2332237.1655259137
0.7404383100091014	2316084.5174628464
0.7405617163941028	2299929.177291779
0.7406851433468352	2283318.292910266
0.7408085908707264	2264632.9526388943
0.7409320589692048	2245944.498144153
0.7410555476456997	2227252.928906981
0.7411790569036406	2208558.2444082825
0.7413025867464579	2189860.4441288295
0.7414261371775823	2171159.5275493246
0.7415497082004452	2152455.494150404
0.7416732998184786	2133915.8857520446
0.741796912035115	2115732.59872374
0.7419205448537874	2097546.2811476006
0.7420441982779297	2079356.932518533
0.742167872310976	2061164.5523313435
0.7422915669563612	2042969.14008079
0.7424152822175206	2024770.6952615331
0.7425390180978901	2006569.2173681508
0.7426627746009065	1989584.9919301118
0.7427865517300065	1974085.5518470728
0.7429103494886282	1958583.5285240037
0.7430341678802096	1943078.9215303927
0.7431580069081896	1927571.730435617
0.7432818665760077	1912061.9548089704
0.7434057468871037	1896549.5942197323
0.7435296478449182	1881034.6482370715
0.7436535694528923	1864818.7776145448
0.7437775117144678	1848122.170007464
0.7439014746330868	1831422.7796324736
0.7440254582121922	1814720.6060257398
0.7441494624552276	1798015.6487233979
0.7442734873656368	1781307.9072615094
0.7443975329468645	1764597.3811760305
0.7445215992023557	1747884.0700028727
0.7446456861355559	1731582.098998
0.7447697937499119	1715429.963917365
0.7448939220488703	1699275.1368142203
0.7450180710358784	1683117.617239906
0.7451422407143843	1666957.4047456607
0.7452664310878367	1650794.4988826513
0.7453906421596846	1634628.8992020155
0.7455148739333779	1618460.605254761
0.7456391264123667	1602735.775621188
0.7457633996001021	1587079.663544367
0.7458876935000356	1571420.942115505
0.7460120081156189	1555759.610899768
0.7461363434503048	1540095.6694621546
0.7462606995075466	1524429.1173676208
0.7463850762907978	1508759.9541810947
0.7465094738035127	1493090.621342983
0.7466338920491467	1478057.4580232806
0.746758331031155	1463021.7891763435
0.7468827907529935	1447983.6143846163
0.7470072712181189	1432942.9332304234
0.7471317724299886	1417899.7452960352
0.7472562943920602	1402854.0501636686
0.7473808371077922	1387805.847415433
0.7475054005806435	1372770.6287225264
0.7476299848140736	1357828.3293531742
0.7477545898115426	1342883.5396005905
0.7478792155765113	1327936.259049711
0.7480038621124406	1312986.4872854184
0.7481285294227926	1298034.2238925018
0.7482532175110298	1283079.4684556704
0.7483779263806148	1268122.2205596205
0.7485026560350116	1253353.8458702208
0.7486274064776842	1239100.9349173598
0.748752177712097	1224845.648479366
0.7488769697417158	1210587.9861602688
0.749001782570006	1196327.9475641355
0.7491266162004343	1182065.5322949071
0.7492514706364677	1167800.7399564607
0.7493763458815739	1153533.5701526103
0.7495012419392209	1139380.177238524
0.7496261588128773	1125391.4117228787
0.7497510965060128	1111400.3147463042
0.7498760550220971	1097406.885920239
0.7500010343646007	1083411.1248560338
0.7501260345369949	1069413.0311649777
0.750251055542751	1055412.6044583223
0.7503760973853414	1041409.8443472071
0.7505011600682389	1027774.8636193626
0.750626243594917	1014446.6464341533
0.7507513479688495	1001116.2078794335
0.7508764731935109	987783.54758495
0.7510016192723765	974448.6651804141
0.7511267862089218	961111.5602954898
0.7512519740066232	947772.2325597466
0.7513771826689577	934430.6816027064
0.7515024121994025	921770.5513773581
0.7516276626014359	909427.0645326187
0.751752933878536	897081.5204400934
0.7518782260341824	884733.9187568817
0.7520035390718548	872384.2591400507
0.7521288729950334	860032.5412466235
0.7522542278071992	847678.7647335462
0.7523796035118337	835322.9292577108
0.7525050001124189	823184.7037879516
0.7526304176124378	811092.2284431751
0.7527558560153731	798997.7376858565
0.752881315324709	786901.2311800668
0.7530067955439299	774802.708589855
0.7531322966765205	762702.1695792277
0.7532578187259665	750599.6138120949
0.7533833616957542	738495.0409523348
0.75350892558937	726807.1072800134
0.7536345104103016	715136.9120493603
0.7537601161620366	703464.771786175
0.7538857428480638	691790.6861662676
0.7540113904718717	680114.6548654388
0.7541370590369503	668436.6775593957
0.7542627485467898	656756.7539237943
0.7543884590048808	645165.0997265371
0.7545141904147151	634471.1586816899
0.7546399427797842	623775.4353133524
0.7547657161035808	613077.9293244517
0.754891510389598	602378.6404178869
0.7550173256413296	591677.5682965
0.7551431618622698	580974.7126630954
0.7552690190559135	570270.073220421
0.7553948972257561	559665.0127926203
0.7555207963752938	549398.4226920704
0.755646716508023	539130.1214931763
0.755772657627441	528860.1089107455
0.7558986197370455	518588.3846595494
0.756024602840335	508314.9484543141
0.7561506069408084	498039.8000097113
0.7562766320419653	487762.9390403585
0.7564026781473054	477605.46664571227
0.75652874526033	467659.40746744326
0.7566548333845401	457711.6906126394
0.7567809425234375	447762.31580502994
0.7569070726805247	437811.2827682916
0.7570332238593047	427858.5912260484
0.7571593960632813	417904.24090187205
0.7572855892959586	407948.23151930777
0.7574118035608413	398543.749984405
0.7575380388614347	389678.9021100971
0.7576642952012449	380812.57676114014
0.7577905725837782	371944.77369130444
0.7579168710125422	363075.4926542747
0.7580431904910444	354204.7334037354
0.7581695310227928	345332.4956933322
0.7582958926112967	336458.7792766328
0.7584222752600652	328004.7400779579
0.7585486789726085	319791.2300197723
0.7586751037524372	311576.3510432405
0.7588015496030628	303360.1029201966
0.7589280165279966	295142.4854224818
0.7590545045307512	286923.49832185067
0.7591810136148396	278703.1413900363
0.7593075437837755	270481.4143987212
0.7594340950410726	262817.2117945807
0.7595606673902461	255313.88760832764
0.7596872608348112	247809.31286803607
0.7598138753782836	240303.48736529605
0.75994051102418	232796.41089163188
0.7600671677760173	225288.0832385613
0.7601938456373134	217778.5041975428
0.7603205446115863	210267.67356002168
0.7604472647023548	203375.1974431662
0.7605740059131385	196543.16137505486
0.7607007682474575	189709.98663425885
0.7608275517088319	182875.6730310212
0.7609543563007835	176040.22037550117
0.7610811820268336	169203.62847787602
0.7612080288905045	162365.89714828104
0.7613348968953197	155551.8499838438
0.7614617860448022	149245.99644339175
0.7615886963424764	142939.091927341
0.7617156277918667	136631.13626054372
0.7618425803964988	130322.12926779673
0.7619695541598982	124012.070773886
0.7620965490855914	117700.96060356425
0.7622235651771058	111388.79858154016
0.7623506024379685	105301.49467926854
0.7624776608717082	100203.36505962293
0.7626047404818536	95104.38575170714
0.7627318412719337	90004.55661391547
0.762858963245479	84903.87750459762
0.7629861064060198	79802.34828209443
0.7631132707570876	74699.96880471554
0.7632404563022137	69596.73893076164
0.7633676630449308	64834.32429030008
0.7634948909887717	60798.40890255836
0.7636221401372697	56761.82086225727
0.7637494104939593	52724.56005727899
0.7638767020623748	48686.6263755057
0.7640040148460518	44648.01970478086
0.7641313488485262	40608.73993294438
0.7642587040733344	36568.78694780801
0.7643860805240132	33075.11547021125
0.7645134782041005	30233.542790870262
0.7646408971171346	27391.49651608154
0.764768337266654	24548.976566914727
0.7648957986561985	21705.982864422134
0.7650232812893079	18862.515329646172
0.7651507851695227	16018.573883614383
0.7652783103003843	13174.158447341943
0.7654058566854343	11200.863990158758
0.7655334243282153	9821.255465794331
