#wavelength	surface flux
0.7	23269698.69544135
0.7001166666666666	23332291.79433824
0.7002333527777778	23391553.44674336
0.700350058336574	23450824.976090517
0.7004667833462966	23510106.384025823
0.7005835278101878	23569397.672195945
0.7007002917314895	23628698.842247337
0.7008170751134447	23688009.895827062
0.7009338779592968	23747330.834582355
0.7010507002722901	23776887.416058023
0.7011675420556689	23770215.648035645
0.701284403312678	23763542.768051945
0.7014012840465635	23756868.775921572
0.7015181842605713	23750193.67145918
0.701635103957948	23743517.454479378
0.701752043141941	23736840.12479675
0.701869001815798	23730161.68222583
0.7019859799827672	23715644.51130208
0.7021029776460976	23695670.38193397
0.7022199948090387	23675692.92354427
0.7023370314748403	23655712.13557818
0.7024540876467528	23635728.01748077
0.702571163328027	23615740.56869704
0.7026882585219152	23595749.78867179
0.7028053732316688	23575755.6768499
0.7029225074605406	23570747.10941716
0.7030396612117841	23571525.59994036
0.7031568344886527	23572304.22021198
0.7032740272944008	23573082.970253646
0.7033912396322832	23573861.850086987
0.7035084715055552	23574640.85973363
0.7036257229174727	23575419.999215215
0.7037429938712924	23576199.268553384
0.7038602843702709	23643802.44869122
0.7039775944176659	23722750.698275436
0.7040949240167356	23801712.10590128
0.7042122731707383	23880686.673761684
0.7043296418829335	23959674.40405011
0.7044470301565806	24038675.298960242
0.70456443799494	24117689.36068613
0.7046818654012724	24196716.591422353
0.7047993123788394	24125551.200107884
0.7049167789309024	24054201.580081515
0.7050342650607243	23982840.0684517
0.7051517707715678	23911466.663236644
0.7052692960666963	23840081.362454087
0.705386840949374	23768684.16412143
0.7055044054228656	23697275.066255603
0.7056219894904361	23646589.699264243
0.7057395931553511	23727668.621147346
0.705857216420877	23808761.05618416
0.7059748592902804	23889867.006626766
0.7060925217668288	23970986.474727865
0.70621020385379	24052119.4627403
0.7063279055544321	24133265.972917296
0.7064456268720246	24214426.007512785
0.7065633678098366	24285941.092731982
0.7066811283711383	24330868.47698177
0.7067989085592001	24375803.349128935
0.7069167083772933	24420745.710421424
0.7070345278286895	24465695.562107496
0.707152366916661	24510652.90543552
0.7072702256444803	24555617.74165405
0.7073881040154211	24600590.072012007
0.7075060020327569	24627123.829838537
0.7076239196997625	24626798.127552453
0.7077418570197124	24626472.370982654
0.7078598139958823	24626146.5601201
0.7079777906315483	24625820.694955725
0.7080957869299869	24625494.775480494
0.7082138028944751	24625168.801685352
0.7083318385282908	24624842.773561243
0.7084498938347124	24627393.529283047
0.708567968817018	24632383.752325978
0.7086860634784875	24637374.807072755
0.7088041778224007	24642366.693661995
0.7089223118520377	24647359.41223233
0.7090404655706796	24652352.962922417
0.709158638981608	24657347.345870964
0.709276832088105	24662342.561216667
0.7093950448934531	24696668.703569453
0.7095132774009353	24744988.405412894
0.7096315296138355	24793316.16054
0.7097498015354378	24841651.970292944
0.7098680931690269	24889995.836014137
0.7099864045178884	24938347.759046342
0.7101047355853081	24986707.740732376
0.7102230863745722	25035075.782415323
0.7103414568889679	25026925.428165324
0.7104598471317828	25005929.572666578
0.7105782571063047	24984930.217858594
0.7106966868158224	24963927.363158148
0.710815136263625	24942921.00798192
0.7109336054530023	24921911.151746485
0.7110520943872445	24900897.793868348
0.7111706030696424	24879880.933763888
0.7112891315034873	24922111.986876458
0.7114076796920712	24967367.98571835
0.7115262476386865	25012631.527226716
0.7116448353466263	25057902.612658635
0.711763442819184	25103181.243271485
0.711882070059654	25148467.42032281
0.7120007170713306	25193761.14507028
0.7121193838575091	25240958.25498298
0.7122380704214853	25307936.317478694
0.7123567767665555	25374925.54298475
0.7124755028960166	25441925.933361758
0.7125942488131658	25508937.490470447
0.7127130145213015	25575960.21617217
0.7128318000237216	25642994.112327967
0.7129506053237256	25710039.18079989
0.7130694304246129	25761909.243706286
0.7131882753296837	25760691.71743459
0.7133071400422386	25759473.98824185
0.7134260245655789	25758256.056094244
0.7135449289030065	25757037.92095795
0.7136638530578235	25755819.58279913
0.7137827970333332	25754601.04158395
0.7139017608328388	25753382.29727857
0.7140207444596443	25763489.117415816
0.7141397479170543	25793801.667298533
0.7142587712083737	25824119.269272856
0.7143778143369084	25854441.92418087
0.7144968773059646	25884769.632864702
0.7146159601188489	25915102.39616664
0.7147350627788687	25945440.21492913
0.7148541852893318	25975783.089994736
0.7149733276535467	26020326.267801072
0.7150924898748222	26079191.037846066
0.715211671956468	26138065.61868608
0.7153308739017941	26196950.011956282
0.715450095714111	26255844.219292
0.71556933739673	26314748.24232895
0.7156885989529628	26373662.082703065
0.7158078803861218	26432585.742050663
0.7159271816995193	26457802.542801093
0.7160465028964692	26463233.959188923
0.7161658439802853	26468666.28081282
0.7162852049542819	26474099.507823654
0.7164045858217744	26479533.64037232
0.716523986586078	26484968.678609747
0.7166434072505089	26490404.622686878
0.716762847818384	26495841.47275469
0.7168823082930204	26539596.876740247
0.7170017886777359	26594632.462204408
0.7171212889758488	26649677.220266107
0.7172408091906781	26704731.15245417
0.7173603493255433	26759794.26029761
0.7174799093837642	26814866.545325667
0.7175994893686615	26869948.00906791
0.7177190892835562	26925038.653054092
0.7178387091317702	26993194.370287213
0.7179583489166254	27062672.034693446
0.7180780086414448	27132161.27871047
0.7181976883095517	27201662.104268156
0.7183173879242699	27271174.51329678
0.718437107488924	27340698.507726923
0.7185568470068389	27410234.089489494
0.7186766064813399	27478825.20551218
0.7187963859157535	27523524.27133446
0.7189161853134061	27568230.787001036
0.719036004677625	27612944.753753565
0.7191558440117378	27657666.17283386
0.7192757033190732	27702395.045484062
0.7193955826029597	27747131.37294632
0.7195154818667269	27791875.15646319
0.7196354011137046	27829908.877436608
0.7197553403472235	27837020.27525512
0.7198752995706147	27844132.858306598
0.7199952787872098	27851246.62678859
0.720115278000341	27858361.580898665
0.7202352972133411	27865477.720834423
0.7203553364295432	27872595.04679349
0.7204753956522815	27879713.558973566
0.7205954748848902	27886530.405622665
0.7207155741307044	27892680.713053435
0.7208356933930594	27898832.04553543
0.7209558326752915	27904984.40323951
0.7210759919807375	27911137.78633655
0.7211961713127342	27917292.194997426
0.7213163706746197	27923447.629393093
0.7214365900697322	27929604.089694485
0.7215568295014103	27972373.45060554
0.721677088972994	28058834.073806312
0.7217973684878227	28145309.107110802
0.7219176680492374	28231798.552920945
0.7220379876605789	28318302.413638674
0.722158327325189	28404820.69166655
0.7222786870464099	28491353.38940739
0.7223990668275843	28577900.509264555
0.7225194666720555	28633078.624082744
0.7226398865831676	28666023.71304431
0.7227603265642646	28698974.29285396
0.722880786618692	28731930.36442698
0.7230012667497951	28764891.928678576
0.7231217669609201	28797858.986524217
0.7232422872554135	28830831.53887947
0.7233628276366229	28863809.586660173
0.7234833881078956	28864635.055052985
0.7236039686725803	28853251.480707206
0.7237245693340255	28841866.00909906
0.7238451900955812	28830478.639912285
0.7239658309605971	28819089.372830663
0.7240864919324239	28807698.207537845
0.7242071730144127	28796305.14371748
0.724327874209915	28784910.181053165
0.7244485955222832	28855226.644136183
0.7245693369548704	28939065.434548773
0.7246900985110294	29022918.19809297
0.7248108801941148	29106784.93709798
0.7249316820074803	29190665.653892547
0.7250525039544815	29274560.350806717
0.7251733460384739	29358469.030170385
0.7252942082628137	29442270.373693652
0.7254150906308574	29455788.67415766
0.7255359931459625	29469309.227671746
0.7256569158114868	29482832.03461142
0.7257778586307888	29496357.09535226
0.7258988216072273	29509884.410269883
0.7260198047441617	29523413.97973998
0.7261408080449525	29536945.804138344
0.72626183151296	29550027.571138907
0.7263828751515454	29560105.641013194
0.7265039389640706	29570185.390565787
0.726625022953898	29580266.82007665
0.7267461271243904	29590349.929825764
0.7268672514789111	29600434.720093165
0.7269883960208241	29610521.191158935
0.7271095607534942	29620609.343303222
0.7272307456802866	29622014.989773124
0.7273519508045666	29599962.785211958
0.7274731761297006	29577906.90528338
0.7275944216590555	29555847.349374812
0.7277156873959987	29533784.116873585
0.7278369733438982	29511717.207166906
0.727958279506122	29489646.619642
0.7280796058860397	29467572.353685815
0.7282009524870207	29446954.890087947
0.7283223193124353	29428494.204879634
0.7284437063656539	29410030.442890488
0.7285651136500483	29391563.603607643
0.7286865411689898	29373093.686518297
0.7288079889258514	29354620.691109385
0.7289294569240056	29336144.61686795
0.7290509451668262	29317665.463280786
0.7291724536576875	29360941.10018521
0.7292939823999636	29455396.993375465
0.7294155313970303	29549868.62921477
0.7295371006522632	29644356.01032669
0.7296586901690385	29738859.13933539
0.7297802999507332	29833378.01886555
0.7299019300007252	29927912.65154254
0.7300235803223919	30022463.039991394
0.7301452509191123	30082943.085179966
0.7302669417942654	30127700.107205056
0.7303886529512311	30172464.588733826
0.7305103843933897	30217236.53100953
0.7306321361241218	30262015.93527558
0.7307539081468093	30306802.80277575
0.7308757004648336	30351597.13475375
0.7309975130815778	30396398.932453793
0.7311193460004248	30453139.58695636
0.7312411992247582	30512590.812576998
0.7313630727579622	30572051.94673523
0.7314849666034219	30631522.991082545
0.7316068807645224	30691003.947270554
0.7317288152446498	30750494.816951282
0.7318507700471907	30809995.60177699
0.7319727451755319	30869506.303400148
0.732094740633061	30945665.589282673
0.7322167564231665	31022586.646383803
0.7323387925492371	31099520.523661118
0.7324608490146619	31176467.223251294
0.732582925822831	31253426.74729142
0.7327050229771347	31330399.097918797
0.7328271404809642	31407384.277271356
0.7329492783377112	31475881.600509122
0.7330714365507675	31460819.590652976
0.7331936151235259	31445755.070461854
0.7333158140593796	31430688.039517388
0.7334380333617229	31415618.497401074
0.7335602730339499	31400546.443694398
0.7336825330794556	31385471.87797877
0.7338048135016354	31370394.799835548
0.7339271143038857	31319970.197304405
0.734049435489603	31151107.16578469
0.7341717770621846	30982215.99042636
0.7342941390250283	30813296.66653889
0.7344165213815324	30644349.18943084
0.734538924135096	30475373.554409686
0.7346613472891185	30306369.75678292
0.734783790847	30137337.79185649
0.7349062548121412	29932106.101482414
0.7350287391879431	29662905.507825386
0.7351512439778078	29393660.047402196
0.7352737691851374	29124369.71273593
0.735396314813335	28855034.496346977
0.7355188808658037	28585654.390755743
0.7356414673459482	28316229.38847969
0.7357640742571725	28046759.48203678
0.7358867016028818	27918219.012154732
0.7360093493864824	27928882.000835788
0.7361320176113801	27939546.766681608
0.736254706280982	27950213.309988406
0.7363774153986956	27960881.631052434
0.7365001449679286	27971551.73016995
0.7366228949920899	27982223.607637327
0.7367456654745885	27992897.26375095
0.7368684564188344	27928242.410404816
0.7369912678282374	27821001.68978958
0.7371140997062088	27713743.095720857
0.7372369520561599	27606466.625219695
0.7373598248815024	27499172.275307022
0.7374827181856494	27391860.043002516
0.7376056319720137	27284529.925325952
0.7377285662440091	27177181.919296425
0.7378515210050496	27174127.26156577
0.7379744962585505	27202456.173428513
0.738097492007927	27230789.80677656
0.7382205082565949	27259128.162396815
0.738343545007971	27287471.24107633
0.7384666022654723	27315819.043602325
0.7385896800325165	27344171.57076203
0.7387127783125219	27372528.823342964
0.7388358971089073	27324277.35406737
0.7389590364250921	27268333.32387965
0.7390821962644963	27212379.969686866
0.7392053766305403	27156417.289935123
0.7393285775266454	27100445.283070054
0.7394517989562333	27044463.947537117
0.7395750409227259	26988473.28178168
0.7396983034295463	26941524.284459192
0.739821586480118	27095913.697830267
0.7399448900778645	27250328.84276993
0.7400682142262109	27404769.72356755
0.740191558928582	27559236.344511803
0.7403149241884034	27713728.70989276
0.7404383100091014	27868246.824001323
0.7405617163941028	28022790.6911288
0.7406851433468352	28124214.838096537
0.7408085908707264	27982528.110661715
0.7409320589692048	27840817.76877239
0.7410555476456997	27699083.808492634
0.7411790569036406	27557326.22588627
0.7413025867464579	27415545.017016098
0.7414261371775823	27273740.177944407
0.7415497082004452	27131911.70473298
0.7416732998184786	27033111.506039485
0.741796912035115	27026649.669449717
0.7419205448537874	27020186.755887184
0.7420441982779297	27013722.765172396
0.742167872310976	27007257.69712581
0.7422915669563612	27000791.55156789
0.7424152822175206	26994324.32831904
0.7425390180978901	26987856.027199656
0.7426627746009065	26944483.775914554
0.7427865517300065	26856117.052261814
0.7429103494886282	26767735.600821707
0.7430341678802096	26679339.41913976
0.7431580069081896	26590928.504760873
0.7432818665760077	26502502.855229463
0.7434057468871037	26414062.468089875
0.7435296478449182	26325607.340885814
0.7436535694528923	26257493.732584342
0.7437775117144678	26203303.25734899
0.7439014746330868	26149103.750367846
0.7440254582121922	26094895.21013549
0.7441494624552276	26040677.63514641
0.7442734873656368	25986451.023894843
0.7443975329468645	25932215.37487469
0.7445215992023557	25877970.686579704
0.7446456861355559	25830459.38975214
0.7447697937499119	25785423.907390613
0.7448939220488703	25740380.91911537
0.7450180710358784	25695330.423675455
0.7451422407143843	25650272.419819627
0.7452664310878367	25605206.906296447
0.7453906421596846	25560133.881854393
0.7455148739333779	25515053.345241588
0.7456391264123667	25510647.922841307
0.7457633996001021	25512746.69340239
0.7458876935000356	25514845.813758574
0.7460120081156189	25516945.283968143
0.7461363434503048	25519045.104089417
0.7462606995075466	25521145.27418071
0.7463850762907978	25523245.79430035
0.7465094738035127	25525154.418985225
0.7466338920491467	25476773.002829675
0.746758331031155	25428383.52310472
0.7468827907529935	25379985.97846653
0.7470072712181189	25331580.367570903
0.7471317724299886	25283166.68907345
0.7472562943920602	25234744.941629615
0.7473808371077922	25186315.123894494
0.7475054005806435	25139153.8349052
0.7476299848140736	25099848.043403957
0.7477545898115426	25060535.700937454
0.7478792155765113	25021216.806413867
0.7480038621124406	24981891.35874122
0.7481285294227926	24942559.356827304
0.7482532175110298	24903220.799579695
0.7483779263806148	24863875.685905933
0.7485026560350116	24823423.627858635
0.7486274064776842	24779986.67198994
0.748752177712097	24736542.476628684
0.7488769697417158	24693091.040568102
0.749001782570006	24649632.362601567
0.7491266162004343	24606166.44152205
0.7492514706364677	24562693.27612233
0.7493763458815739	24519212.865195002
0.7495012419392209	24460243.405652814
0.7496261588128773	24379007.182704903
0.7497510965060128	24297757.42038644
0.7498760550220971	24216494.11644096
0.7500010343646007	24135217.268611472
0.7501260345369949	24053926.874640644
0.750251055542751	23972622.932270907
0.7503760973853414	23891305.43924406
0.7505011600682389	23804223.892193798
0.750626243594917	23712326.294618323
0.7507513479688495	23620413.380776722
0.7508764731935109	23528485.148116115
0.7510016192723765	23436541.594083376
0.7511267862089218	23344582.716125052
0.7512519740066232	23252608.511687033
0.7513771826689577	23160618.97821489
0.7515024121994025	23077670.348440334
0.7516276626014359	22998930.419717155
0.751752933878536	22920177.367672656
0.7518782260341824	22841411.190119456
0.7520035390718548	22762631.884869967
0.7521288729950334	22683839.449736305
0.7522542278071992	22605033.882530116
0.7523796035118337	22526215.18106269
0.7525050001124189	22435331.976579104
0.7526304176124378	22341812.722188227
0.7527558560153731	22248277.881255075
0.752881315324709	22154727.451181676
0.7530067955439299	22061161.429369897
0.7531322966765205	21967579.813221272
0.7532578187259665	21873982.600136597
0.7533833616957542	21780369.78751641
0.75350892558937	21646535.02005786
0.7536345104103016	21510787.329189464
0.7537601161620366	21375017.013705995
0.7538857428480638	21239224.06983648
0.7540113904718717	21103408.493809827
0.7541370590369503	20967570.28185387
0.7542627485467898	20831709.430195834
0.7543884590048808	20693649.68964392
0.7545141904147151	20533865.17322448
0.7546399427797842	20374054.02605256
0.7547657161035808	20214216.24368942
0.754891510389598	20054351.821695894
0.7550173256413296	19894460.755631972
0.7551431618622698	19734543.04105708
0.7552690190559135	19574598.673529793
0.7553948972257561	19407227.86419067
0.7555207963752938	19214990.869314082
0.755646716508023	19022721.83493846
0.755772657627441	18830420.755723704
0.7558986197370455	18638087.626329053
0.756024602840335	18445722.441412885
0.7561506069408084	18253325.195632566
0.7562766320419653	18060895.883644447
0.7564026781473054	17852011.35576727
0.75652874526033	17614191.661331143
0.7566548333845401	17376332.330279157
0.7567809425234375	17138433.356005408
0.7569070726805247	16900494.731902752
0.7570332238593047	16662516.451362778
0.7571593960632813	16424498.507775819
0.7572855892959586	16186440.894531583
0.7574118035608413	15942417.067794286
0.7575380388614347	15692554.445638007
0.7576642952012449	15442650.179711275
0.7577905725837782	15192704.263073916
0.7579168710125422	14942716.688783338
0.7580431904910444	14692687.449896954
0.7581695310227928	14442616.539471067
0.7582958926112967	14192503.950559799
0.7584222752600652	13915799.142719194
0.7585486789726085	13623795.949195474
0.7586751037524372	13331744.088472726
0.7588015496030628	13039643.552439285
0.7589280165279966	12747494.33298375
0.7590545045307512	12455296.42199164
0.7591810136148396	12163049.811347704
0.7593075437837755	11870754.492934898
0.7594340950410726	11561752.514501106
0.7595606673902461	11247865.9569326
0.7596872608348112	10933927.08493752
0.7598138753782836	10619935.889797453
0.75994051102418	10305892.362791236
0.7600671677760173	9991796.49519743
0.7601938456373134	9677648.278292118
0.7603205446115863	9363447.70335083
0.7604472647023548	9034924.530769281
0.7605740059131385	8704928.145080881
0.7607007682474575	8374876.759994543
0.7608275517088319	8044770.366344757
0.7609543563007835	7714608.954961965
0.7610811820268336	7384392.516677474
0.7612080288905045	7054121.042320569
0.7613348968953197	6724195.2935559135
0.7614617860448022	6402437.489859913
0.7615886963424764	6080626.059862856
0.7617156277918667	5758760.9946277775
0.7618425803964988	5436842.285214895
0.7619695541598982	5114869.922683864
0.7620965490855914	4792843.898092648
0.7622235651771058	4470764.202496961
0.7623506024379685	4162381.17895818
0.7624776608717082	3914216.0520621017
0.7626047404818536	3666009.5643115295
0.7627318412719337	3417761.7088134256
0.762858963245479	3169472.4786725827
0.7629861064060198	2921141.86699336
0.7631132707570876	2672769.8668786003
0.7632404563022137	2424356.471430711
0.7633676630449308	2202874.453248376
0.7634948909887717	2038771.613460624
0.7636221401372697	1874641.4231997873
0.7637494104939593	1710483.8779070857
0.7638767020623748	1546298.9730237392
0.7640040148460518	1382086.7039893917
0.7641313488485262	1217847.0662435442
0.7642587040733344	1053580.0552245532
0.7643860805240132	923042.862349601
0.7645134782041005	832766.367496769
0.7646408971171346	742474.826561424
0.764768337266654	652168.2370359561
0.7648957986561985	561846.5964122049
