#wavelength	surface flux
0.428837	77591.96537160747
0.43312537	106593.29300176952
0.43745662370000005	101693.50909652965
0.4418311899370001	103527.95538434837
0.44624950183637	136837.2370937411
0.4507119968547338	183764.80262400897
0.45521911682328114	253779.13017210178
0.4597713079915139	337026.17938687536
0.4643690210714291	366574.4856516757
0.4690127112821433	391361.9650050534
0.47370283839496474	414615.6574444166
0.47843986677891437	429587.5465067506
0.48322426544670355	438104.77114984865
0.48805650810117057	452657.6846543328
0.4929370731821824	437884.2931186184
0.49786644391400414	412803.2618406709
0.5028451083531442	375812.50816270156
0.5078735594366757	337993.9309831256
0.5129522950310424	315645.48228210356
0.5180818179813528	279831.9205486888
0.5232626361611664	254574.33520668035
0.5284952625227781	217481.75417123787
0.5337802151480058	175376.19952607923
0.5391180172994858	136154.32879335363
0.5445091974724807	99809.79206861094
0.5499542894472055	69615.16282672167
0.5554538323416777	46413.961173660806
0.5610083706650945	29224.307699768175
0.5666184543717453	16853.07464234438
0.5722846389154628	8402.894694461995
0.5780074853046174	3213.3607413609093
0.5837875601576636	704.7025078040429
0.5896254357592402	47.11140859956961
0.5955216901168326	1248.61726326957
0.6014769070180009	6072.501402558258
0.607491676088181	17624.185573054347
0.6135665928490629	39481.37632517291
0.6197022587775535	75951.74667415708
0.625899281365329	132065.12853777446
0.6321582741789823	213701.5610034077
0.6384798569207721	327356.0776083662
0.6448646554899798	478729.4566497958
0.6513133020448797	674057.8347480907
0.6578264350653285	913257.8158296694
0.6644046994159818	1173374.3048356876
0.6710487464101416	799898.569692178
0.677759233874243	1834787.6268733698
0.6845368262129854	2232741.949961295
0.6913821944751153	2529366.569568758
0.6982960164198664	2843207.437160948
0.7052789765840651	3012741.2236256395
0.7123317663499058	3036171.0594160194
0.7194550840134049	2819359.193062219
0.7266496348535388	2470788.779347006
0.7339161312020743	1963647.5403763668
0.741255292514095	1379845.2948028008
0.748667845439236	808748.7135672295
0.7561545238936284	332922.1347918004
0.7637160691325647	42456.84059585637
0.7713532298238903	31259.512053907572
0.7790667621221293	334281.57712132175
0.7868574297433505	1168282.6229009412
0.7947260040407841	1233454.6552417707
0.8026732640811919	3963668.0367462756
0.8106999967220039	5934929.986188367
0.8188069966892239	7917770.952043063
0.8269950666561161	11554239.587628255
0.8352650173226772	14802969.3144982
0.8436176674959041	18324420.702886235
0.852053844170863	16778191.786200907
0.8605743826125718	24568267.600648206
0.8691801264386976	27041193.7875195
0.8778719277030844	30947009.402366083
0.8866506469801153	35138751.93591562
0.8955171534499164	32267685.14357874
0.9044723249844157	45764656.02592004
0.9135170482342599	49927405.33772484
0.9226522187166025	52008482.15448848
0.9318787409037684	35399716.80306489
0.941197528312806	46121991.319375455
0.9506095035959342	41617822.60213452
0.9601155986318936	45118663.90488659
0.9697167546182125	49674893.94800327
0.9794139221643946	61125265.41000993
0.9892080613860387	69292582.15025803
0.9991001419998989	70717214.65601616
1.0090911434198981	78349485.7531686
1.019182054854097	88827132.95739788
1.0293738754026378	92392891.04044558
1.0396676141566643	101011738.81125082
1.050064290298231	104808098.92018712
1.0605649332012133	110227242.21164684
1.0711705825332256	113146313.03607963
1.0818822883585577	117459160.90835494
1.0927011112421434	102268123.90926029
1.1036281223545648	59225714.55762252
1.1146644035781104	49229051.0704026
1.1258110476138916	42292466.48895387
1.1370691580900303	46435642.73318405
1.1484398496709307	62271565.78699655
1.1599242481676402	44364946.55239222
1.1715234906493166	46930001.67167874
1.1832387255558097	86516059.94906321
1.1950711128113678	111783456.34489334
1.2070218239394814	124621197.05875316
1.2190920421788762	135639589.32708848
1.2312829626006652	145123400.92918542
1.2435957922266716	140910264.1550534
1.2560317501489384	148682508.76867896
1.2685920676504279	153543887.6846718
1.281277988326932	149334741.62341198
1.2940907682102014	138694027.50452656
1.3070316758923035	138807197.1868171
1.3201019926512265	129637201.46748795
1.3333030125777388	37687868.223071136
1.3466360427035162	6495356.35014407
1.3601024031305513	4445928.316679314
1.373703427161857	7524845.746125643
1.3874404614334754	2495947.5886228117
1.4013148660478103	6571165.24405139
1.4153280147082883	3897912.879186403
1.4294812948553712	7293868.251580919
1.443776107803925	10092943.42300855
1.4582138688819641	18367781.031391785
1.4727960075707838	22374827.342651352
1.4875239676464918	26305891.63491658
1.5023992073229566	41522086.05247534
1.5174231993961862	55179817.558581576
1.532597431390148	73745446.76908977
1.5479234057040496	91352407.04960003
1.5634026397610903	105901446.21811062
1.579036666158701	120052590.38461652
1.594827032820288	130453291.17237136
1.610775303148491	130199702.8631727
1.6268830561799759	122793817.01567021
1.6431518867417756	130762848.0947416
1.6595834056091934	127517675.95631565
1.6761792396652853	114147549.63970526
1.6929410320619382	89347297.17321275
1.7098704423825577	86433770.61660403
1.7269691468063835	71547402.41924535
1.744238838274447	43685003.179566875
1.7616812266571917	26158874.98108775
1.7792980389237634	11786358.44538019
1.7970910193130012	7211003.902572821
1.815061929506131	2822457.7548336447
1.8332125488011928	3166762.7783049946
1.8515446742892046	4953089.126378038
1.8700601210320964	4766547.024692531
1.8887607222424174	10406708.727772063
1.9076483294648416	8231969.489910562
1.92672481275949	3135364.872370635
1.9459920608870853	6091746.156772296
1.9654519814959561	8753895.726649763
1.9851065013109155	16352790.852631593
2.0049575663240247	22489702.64877598
2.025007141987265	33122293.396908425
2.0452572134071376	43394604.5744512
2.065709785541209	56050935.207763754
2.086366883396621	60101331.08209777
2.107230552230587	61484402.048313886
2.1283028577528933	63615856.88958634
2.1495858863304225	56504048.22759315
2.1710817451937263	50121653.1244441
2.1927925626456637	33852453.07535973
2.2147204882721203	21972057.24730651
2.2368676931548412	17069538.07128857
2.25923637008639	13919441.900837788
2.281828733787254	12538720.595480924
2.3046470211251266	12508937.621772205
2.327693491336378	7243593.7197751785
2.3509704262497415	8325137.265922773
2.374480130512239	6580322.9206124265
2.3982249318173614	9719801.607665831
2.4222071811355352	11003598.357932474
2.4464292529468903	10058117.56957484
2.4708935454763594	6673415.258466026
2.4956024809311232	3713703.5806992953
2.5205585057404343	1923748.9476013973
2.5457640907978387	1170950.8251276407
2.5712217317058172	1583783.1386898907
2.5969339490228753	893381.5113233918
2.622903288513104	1321087.8040739454
2.6491323213982354	3546798.0728869936
2.6756236446122177	743257.5858598116
2.7023798810583397	1763011.89578643
2.729403679868923	3018174.1920599933
2.7566977166676123	2115957.0858598747
2.7842646938342885	1995831.9701734288
2.812107340772631	1526138.8411478295
2.8402284141803578	3173771.4546331125
2.8686306983221614	2816650.770575058
2.897317005305383	3710677.7748316457
2.926290175358437	5023598.142365269
2.9555530771120213	5272066.534685775
2.9851086078831415	6733751.173454681
3.014959693961973	8986854.95939016
3.0451092909015927	8708299.843482446
3.0755603838106085	7617846.16277196
3.1063159876487147	4519131.00074876
3.137379147525202	3168139.141191749
3.168752939000454	1642057.9628318693
3.200440468390459	1540876.3620872332
3.232444873074363	1891122.3234983382
3.264769321805107	2371277.300956908
3.297417015023158	4308302.2332277475
3.330391185173389	1000879.6977209419
3.3636950970251234	2742146.824223698
3.397332047995375	2854035.5373657173
3.4313053684753285	2223633.722634193
3.465618422160081	2361792.1599617936
3.5002746063816828	2901020.9033602313
3.5352773524454997	3941485.5529257376
3.570630125969955	5199716.635435617
3.606336427229654	6783979.484502582
3.6423997915019504	8766723.232354647
3.67882378941697	11428629.621459508
3.7156120273111397	13984533.7789728
3.7527681475842516	16523399.485669835
3.7902958290600934	16949381.242861576
3.8281987873506953	21078371.127200715
3.8664807752242023	22229310.455732156
3.905145582976444	23376335.923333235
3.9441970388062084	24691982.01077421
3.983639009194271	24881108.863210622
4.023475399286213	24586030.135868616
4.063710153279075	23989887.27231172
4.1043472548118665	21290370.472172573
4.145390727359985	18906572.865480825
4.186844634633585	17550095.40576332
4.2287130809799205	15888971.834382534
4.27100021178972	14963497.684330232
4.313710213907617	13352763.196286744
4.356847316046694	11809220.527785271
4.40041578920716	9172206.224048356
4.444419947099232	7355812.176792795
4.488864146570225	6609670.132253625
4.533752788035927	5699082.664942441
4.579090315916286	5490386.378782571
4.624881219075449	5671978.28796328
4.671130031266204	6181409.316853738
4.717841331578866	5475896.425112608
4.765019744894654	5459499.660166769
4.812669942343601	5183186.486423277
4.8607966417670365	5374444.79840184
4.9094046081847065	5012852.432398558
4.958498654266554	4420655.300869177
5.008083640809219	4875633.31917516
5.058164477217312	5273762.589621049
5.108746121989485	4289287.630393696
5.15983358320938	3314183.4307233654
5.211431919041474	2520263.1371884383
5.263546238231889	3156258.3703812636
5.316181700614208	3173584.5441699005
5.36934351762035	2221359.282068718
5.423036952796553	1900381.1654406115
5.4772673223245185	1795177.0479977818
5.532039995547764	2031038.2623784055
5.587360395503242	1443526.3880382488
5.643233999458275	1491209.299838979
5.6996663394528575	1641490.506813091
5.756663002847385	1375802.74467674
5.814229632875859	1505110.6122434102
5.872371929204618	1355965.2564242752
5.931095648496664	1290727.453443919
5.990406604981631	1548195.5797367217
6.050310671031448	1262792.997172716
6.110813777741763	1791743.6040291889
6.17192191551918	1462572.940427002
6.233641134674372	2733315.615352708
6.295977546021115	3019261.1718576453
6.358937321481327	1928528.2059593415
6.42252669469614	912613.0227088962
6.486751961643101	877968.1766608689
6.551619481259532	985531.8724315203
6.617135676072128	820475.5723536492
6.683307032832849	1070778.0200120762
6.750140103161177	1279701.8171222166
6.81764150419279	1183544.7265895722
6.885817919234718	1067534.5263461794
6.954676098427065	1156784.1754220733
7.024222859411336	996936.1285160204
7.094465088005449	1178285.8120893717
7.165409738885503	891666.0203278876
7.237063836274358	967031.0995462157
7.309434474637103	864440.9250905928
7.382528819383473	806926.3211432904
7.456354107577308	753442.2241091075
7.530917648653081	964676.8280837584
7.606226825139612	894892.0450954672
7.682289093391009	625417.205846333
7.759111984324918	756397.7654010043
7.836703104168168	876687.3809393492
7.91507013520985	831046.8788041426
7.994220836561947	917688.8376829423
8.074163044927568	865056.0426559587
8.154904675376844	891512.3191132563
8.23645372213061	950874.8105316866
8.318818259351918	1044916.7030984379
8.402006441945437	1045335.4207181938
8.486026506364892	1146786.2268537483
8.57088677142854	1233064.676422519
8.656595639142825	1293291.852201867
8.743161595534254	1370348.5426289092
8.830593211489598	1416938.9553730371
8.918899143604493	1481905.2977894302
9.00808813504054	1469179.3628593793
9.098169016390944	1549485.7799789347
9.189150706554853	1565355.2931288672
9.281042213620402	1561124.2104604964
9.373852635756606	1526227.8472151503
9.467591162114172	1443457.0701751283
9.562267073735315	1661689.712409231
9.657889744472667	1437774.9104315839
9.754468641917395	1611550.7948796758
9.852013328336568	1306930.0059103884
9.950533461619933	1419200.2039781997
10.050038796236134	1398597.0069543389
10.150539184198495	1435009.9410907158
10.252044576040479	1333812.2995834826
10.354565021800884	974326.962879193
10.458110672018893	931739.5196665605
10.562691778739081	1143769.2735192294
10.668318696526473	1111493.8054520201
10.775001883491738	995502.3364418489
10.882751902326655	910848.7911313255
10.991579421349924	709186.7141484247
11.101495215563421	944076.7866584389
11.212510167719055	899230.4662446707
11.324635269396246	757393.3293620341
11.43788162209021	890530.5974791261
11.552260438311112	577846.5987563959
11.667783042694223	574582.1130582995
11.784460873121166	600724.6031154218
11.902305481852377	679389.4515703972
12.0213285366709	683219.6128613295
12.14154182203761	676332.8643529268
12.262957240257986	538967.7016236632
12.385586812660566	452045.5728703776
12.509442680787172	426622.4910858937
12.634537107595044	483467.79301897594
12.760882478670995	474233.3960091403
12.888491303457704	488812.1133093955
13.01737621649228	401876.87585589645
13.147549978657205	409816.29307459644
13.279025478443776	334822.07214920194
13.411815733228213	331771.12899647234
13.545933890560496	345395.6163989881
13.681393229466101	327566.0366777817
13.818207161760762	349523.06162996555
13.956389233378369	309508.85286658886
14.095953125712155	326719.92396165483
14.236912656969274	246058.9670093839
14.379281783538968	235396.49775111926
14.523074601374358	217132.83078944683
14.6683053473881	259454.9085317107
14.814988400861985	244024.05839899153
