#wavelength	surface flux
0.8	50437632.71592856
0.8002000000000001	50954104.41426384
0.8004000500000003	51597664.82553063
0.8006001500125003	52242668.54381385
0.8008003000500035	52887833.513026685
0.8010005001250161	53533159.77348212
0.8012007502500472	54178647.36550174
0.8014010504376099	55134070.828699835
0.8016014007002193	56193498.14106371
0.8018018010503944	57253190.310255684
0.8020022515006572	58313147.40249042
0.8022027520635323	59373369.48399731
0.8024033027515483	60332327.27032927
0.8026039035772362	61192029.98932275
0.8028045545531306	62051947.633996025
0.8030052556917691	62912080.25808088
0.803206007005692	63772427.91532099
0.8034068085074435	64496740.52622444
0.8036076602095705	64839305.10598698
0.8038085621246229	65181955.326894194
0.8040095142651542	65524691.21035685
0.8042105166437206	65867512.77779024
0.8044115692728815	66218466.20849416
0.8046126721651998	66915586.80424188
0.8048138253332411	67612881.68013798
0.8050150287895745	68310350.8797537
0.805216282546772	69007994.44666913
0.8054175866174087	69705812.42447594
0.8056189410140631	70582915.67612256
0.8058203457493168	71510938.1823151
0.8060218008357541	72439192.694133
0.8062233062859632	73367679.26957932
0.8064248621125346	74296397.96666887
0.806626468328063	75220651.02315205
0.8068281249451449	76141100.28359103
0.8070298319763813	77061779.65634625
0.8072315894343755	77982689.19894396
0.8074333973317341	78903828.96892767
0.8076352556810671	79839747.13814215
0.8078371644949874	80810919.02725837
0.8080391237861113	81782333.7093471
0.8082411335670578	82753991.24510574
0.8084431938504498	83725891.69524935
0.8086453046489125	84707800.11483584
0.8088474659750746	85871760.71114704
0.8090496778415686	87036012.29760884
0.809251940261029	88200554.94696644
0.8094542532460944	89365388.73198736
0.8096566168094059	90530513.72545321
0.8098590309636085	91601907.96223713
0.8100614957213493	92651563.42188486
0.8102640110952797	93701481.29539764
0.8104665770980536	94751661.6483792
0.8106691937423283	95802104.54644942
0.8108718610407639	96699305.21516487
0.8110745790060241	97479353.08974671
0.8112773476507757	98259595.97629789
0.8114801669876885	99040033.9235705
0.8116830370294355	99820666.98032947
0.8118859577886929	100600698.9029945
0.8120889292781401	101379271.89959154
0.8122919515104597	102158039.53943767
0.8124950244983374	102937001.8711938
0.8126981482544621	103716158.94353275
0.8129013227915257	104508062.94608465
0.8131045481222237	105443888.85748674
0.8133078242592543	106379948.72536679
0.8135111512153191	107316242.60821356
0.813714529003123	108252770.56453113
0.8139179576353739	109189532.65283796
0.8141214371247829	110089952.51394744
0.8143249674840641	110983504.69741689
0.814528548725935	111877280.26893166
0.8147321808631167	112771279.28434052
0.8149358639083326	113665501.79950295
0.8151395978743097	114347781.02160466
0.8153433827737784	114886881.98878497
0.8155472186194719	115426117.73120686
0.8157511054241268	115965488.28256427
0.815955043200483	116504993.6765599
0.8161590319612831	116862826.33769214
0.8163630717192736	116887608.1745441
0.8165671624872033	116912396.20685524
0.8167713042778252	116937190.4361745
0.8169754971038948	116961990.86405107
0.8171797409781707	116648343.82490116
0.8173840359134155	113632637.92700796
0.8175883819223938	110616178.10264377
0.8177927790178745	107598964.16332175
0.8179972272126291	104580995.92051412
0.8182017265194322	101562273.18564883
0.8184062769510622	100900516.77657221
0.8186108785203001	100601413.29526697
0.8188155312399301	100302235.03809182
0.8190202351227402	100002981.98635203
0.819224990181521	99703654.1213495
0.8194297964290664	101785705.03722556
0.8196346538781738	105303693.4067343
0.8198395625416434	108822561.27333403
0.8200445224322789	112342308.8569019
0.820249533562887	115862936.3773646
0.8204545959462778	118180581.27582753
0.8206597095952644	118561220.94293256
0.8208648745226633	118941955.76995468
0.8210700907412941	119322785.78068349
0.8212753582639793	119703710.99891458
0.8214806771035456	120101777.62584233
0.8216860472728215	120604968.990288
0.8218914687846397	121108286.1525748
0.822096941651836	121611729.14415245
0.822302465887249	122115297.99647768
0.8225080415037209	122618992.74101627
0.8227136685140968	123315809.3819046
0.8229193469312254	124034709.30344722
0.8231250767679583	124753788.94997044
0.8233308580371503	125473048.36640492
0.8235366907516598	126192487.59769402
0.8237425749243477	127065802.29912478
0.8239485105680789	128020796.70458788
0.824154497695721	128976029.85865174
0.824360536320145	129931501.8210043
0.8245666264542252	130887212.6513474
0.8247727681108388	131473688.7853478
0.8249789613028664	131531155.76909162
0.8251852060431922	131588637.11958143
0.825391502344703	131646132.84040882
0.8255978502202894	131703642.93516648
0.8258042496828445	131644644.21475479
0.8260107007452654	131019727.65332823
0.8262172034204517	130394654.86276193
0.8264237577213068	129769425.80399783
0.8266303636607373	129144040.43796876
0.8268370212516525	128518498.7255985
0.8270437305069654	128497397.8680292
0.8272504914395923	128523537.0802032
0.8274573040624523	128549682.82718027
0.8276641683884679	128575835.11059405
0.8278710844305652	128601993.93207872
0.8280780522016729	128661733.49991746
0.8282850717147234	128736834.7103334
0.8284921429826521	128811954.69605187
0.8286992660183978	128887093.46176682
0.8289064408349024	128962251.01217316
0.8291136674451112	129011255.03383279
0.8293209458619727	129027269.32480833
0.8295282760984382	129043287.6193566
0.829735658167463	129059309.91847852
0.8299430920820048	129075336.2231752
0.8301505778550254	129136362.56037627
0.8303581154994891	129376996.47017863
0.8305657050283641	129617690.53845869
0.8307733464546212	129858444.78025563
0.8309810397912352	130099259.21061341
0.8311887850511829	130340133.84457831
0.8313965822474458	130817097.06308354
0.8316044313930077	131305134.84738444
0.8318123325008561	131793294.64113186
0.8320202855839813	132281576.4748275
0.8322282906553774	132769980.37898159
0.8324363477280413	133190082.07081693
0.8326444568149735	133582741.40093455
0.8328526179291771	133975498.89588425
0.8330608310836596	134368354.58020827
0.8332690962914304	134761308.47845286
0.8334774135655034	134983175.24569046
0.833685782918895	135013877.8003065
0.8338942043646247	135044588.03056118
0.834102677915716	135075305.93837345
0.834311203585195	135106031.52566263
0.8345197813860912	135155695.82464308
0.8347284113314379	135269096.15802446
0.8349370934342709	135382524.8414891
0.8351458277076294	135495981.8821245
0.8353546141645565	135609467.28702024
0.8355634528180977	135722981.06326714
0.8357723436813022	136002694.57025567
0.8359812867672226	136284529.79841545
0.8361902820889144	136566435.4853821
0.8363993296594368	136848411.6487706
0.8366084294918518	137130458.30620003
0.8368175815992247	137225685.01862404
0.8370267859946247	137256568.54486886
0.8372360426911234	137287459.79199523
0.8374453517017962	137318358.7619334
0.8376547130397217	137349265.45661402
0.8378641267179816	137550345.46858504
0.8380735927496613	137920324.25114283
0.8382831111478488	138290395.528396
0.8384926819256358	138660559.32346833
0.8387023050961173	139030815.65948972
0.8389119806723914	139292644.8193599
0.8391217086675596	139249129.4275594
0.8393314890947265	139205603.15691102
0.8395413219670003	139162066.00469494
0.8397512072974922	139118517.9681908
0.8399611450993165	139080850.73380372
0.8401711353855914	139335753.2590391
0.8403811781694378	139590719.5099057
0.8405912734639802	139845749.5023351
0.8408014212823464	140100843.2522627
0.8410116216376671	140356000.7756278
0.8412218745430766	140168180.06754944
0.8414321800117124	139851404.2726362
0.8416425380567154	139534549.28377408
0.8418529486912297	139217615.0811647
0.8420634119284025	138900601.6450049
0.8422739277813847	139046032.4807211
0.8424844962633302	139599000.84751698
0.842695117387396	140152107.45640388
0.8429057911667428	140705352.34194303
0.8431165176145345	141258735.5387038
0.8433272967439382	141088681.8376117
0.8435381285681244	139153584.95630246
0.8437490131002665	137218004.30077332
0.8439599503535415	135281939.75008148
0.84417094034113	133345391.18325059
0.8443819830762154	131465835.97977103
0.8445930785719846	130743700.04850408
0.8448042268416277	130021383.58325471
0.8450154278983382	129298886.53888912
0.8452266817553128	128576208.87026249
0.8454379884257517	127853350.53221862
0.8456493479228583	127897036.4041304
0.845860760259839	128125369.77418265
0.846072225449904	128353760.2275774
0.8462837435062666	128582207.77858555
0.8464953144421433	128810712.4414816
0.8467069382707537	129141125.20572124
0.8469186150053215	129551010.28027879
0.847130344659073	129960997.8261051
0.8473421272452377	130371087.86881746
0.8475539627770492	130781280.4340409
0.8477658512677435	131205970.46147075
0.8479777927305605	131661332.36587277
0.8481897871787432	132116808.11075076
0.848401834625538	132572397.72456525
0.8486139350841944	133028101.23578289
0.8488260885679657	133468651.21236327
0.8490382950901076	133723206.40272416
0.8492505546638802	133977825.23188277
0.8494628673025462	134232507.71574858
0.8496752330193721	134487253.8702357
0.8498876518276269	134742063.71126115
0.8501001237405839	134649201.97194633
0.8503126487715191	134486902.94753107
0.850525226933712	134324563.34835982
0.8507378582404455	134162183.16428876
0.8509505427050057	133999762.38517159
0.8511632803406821	133654537.61660835
0.8513760711607672	133184067.0906835
0.8515889151785576	132713478.94712643
0.8518018124073523	132242773.15653388
0.8520147628604541	131771949.68949395
0.8522277665511693	131617909.61890914
0.8524408234928071	132049901.32099609
0.8526539336986805	132482001.0210087
0.8528670971821053	132914208.74594633
0.8530803139564007	133346524.52281469
0.8532935840348901	133751997.22384839
0.8535069074308987	133929955.01887725
0.8537202841577566	134107957.30335502
0.8539337142287962	134286004.08840394
0.8541471976573534	134464095.385149
0.8543607344567677	134642231.2047183
0.8545743246403821	133459449.31594647
0.8547879682215422	132060235.37260517
0.8550016652135977	130660671.62577823
0.8552154156299011	129260757.9880145
0.8554292194838088	127860494.37184031
0.8556430767886797	126932443.54919888
0.855856987557877	126291088.40097618
0.8560709518047664	125649572.91396683
0.8562849695427177	125007897.0480855
0.8564990407851035	124366060.7632375
0.8567131655452999	123518526.32631537
0.8569273438366862	122333999.6364181
0.8571415756726455	121149176.81484814
0.8573558610665638	119964057.78757235
0.8575702000318304	118778642.48054102
0.8577845925818384	118061354.88789019
0.857999038729984	120269837.27225758
0.8582135384896665	122478871.77722055
0.858428091874289	124688458.5408099
0.8586426988972576	126898597.70108955
0.8588573595719821	129109289.39616002
0.8590720739118751	128525510.40152898
0.8592868419303532	127612043.856195
0.8595016636408359	126698348.9442247
0.8597165390567462	125784425.60852669
0.8599314681915105	124870273.79199454
0.8601464510585584	123416864.82718658
0.860361487671323	121676979.88655376
0.8605765780432408	119936659.9746863
0.8607917221877518	118195904.9828394
0.8610069201182988	116454714.80224505
0.8612221718483286	114788532.92305416
0.8614374773912907	113230696.656071
0.8616528367606385	111672470.93002155
0.8618682499698288	110113855.64753959
0.8620837170323213	108554850.71123725
0.8622992379615795	107185613.83956483
0.8625148127710699	106757052.83639298
0.8627304414742627	106328384.6929703
0.8629461240846313	105899609.3825117
0.8631618606156526	105470726.87822546
0.8633776510808066	105041737.15331322
0.8635934954935769	106130175.3338036
0.8638093938674504	107343280.72498539
0.8640253462159173	108556689.39251496
0.8642413525524714	109770401.41221139
0.8644574128906095	110984416.85991248
0.8646735272438323	110366020.12194262
0.8648896956256433	108895205.20701474
0.8651059180495498	107424022.58835803
0.8653221945290621	105952472.17404808
0.8655385250776946	104480553.87213248
0.8657549097089641	104412103.19992593
0.8659713484363913	106140853.59361732
0.8661878412735006	107870036.17490794
0.866404388233819	109599651.05184364
0.8666209893308775	111329698.33249778
0.8668376445782103	112754386.99030718
0.8670543539893549	112931342.96775748
0.8672711175778525	113108343.18420225
0.8674879353572469	113285387.65070094
0.8677048073410862	113462476.37831633
0.8679217335429217	113639609.37811373
0.8681387139763074	112336991.33643085
0.8683557486548015	110960535.17861582
0.8685728375919655	109583734.90675966
0.8687899808013633	108206590.43483852
0.8690071782965637	106829101.67679763
0.869224430091138	106303006.26678051
0.8694417361986609	106123350.33454667
0.8696590966327107	105943649.48832981
0.869876511406869	105763903.71690138
0.8700939805347206	105584113.00903018
0.8703115040298544	105753600.55303684
0.870529081905862	106322507.94145907
0.8707467141763385	106891557.55672823
0.8709644008548827	107460749.43440117
0.8711821419550964	108030083.61004317
0.8713999374905854	108643936.34949026
0.871617787474958	109411100.3195738
0.8718356919218269	110178456.08065058
0.8720536508448075	110946003.68066767
0.8722716642575187	111713743.16758431
0.8724897321735832	112481674.58937304
0.8727078546066265	113672688.07870635
0.8729260315702784	114870432.86684574
0.873144263078171	116068477.09118088
0.8733625491439405	117266820.82657222
0.8735808897812266	118465464.14789788
0.8737992850036719	118757861.59781185
0.874017734824923	118729248.62568948
0.8742362392586293	118700628.5003241
0.874454798318444	118672001.21992737
0.8746734120180236	118643366.78271054
0.8748920803710283	118642591.11775862
0.875110803391121	118669817.86416565
0.8753295810919689	118697051.41725929
0.875548413487242	118724291.77874123
0.8757673005906139	118751538.95031352
0.8759862424157616	119206228.40981996
0.8762052389763657	120897836.26374617
0.8764242902861098	122589867.01963471
0.8766433963586814	124282320.78321266
0.8768625572077712	125975197.66023202
0.8770817728470732	127656369.45685984
0.8773010432902849	128391014.51539211
0.8775203685511077	129125843.23519005
0.8777397486432454	129860855.66216703
0.8779591835804065	130596051.84225164
0.8781786733763015	131331431.8213803
0.8783982180446457	131079096.52333814
0.878617817599157	130532816.61787641
0.8788374720535569	129986400.14243858
0.8790571814215703	129439847.062882
0.8792769457169257	128893157.34505555
0.879496764953355	128703176.1720566
0.8797166391445934	128833974.7920937
0.8799365683043796	128964806.1117858
0.8801565524464557	129095670.13930784
0.8803765915845676	129226566.88283688
0.8805966857324639	129402678.6658641
0.880816834903897	129692318.9077983
0.881037039112623	129982031.55979311
0.8812572983724012	130271816.63995089
0.8814776126969944	130561674.16637884
0.8816979821001687	130882478.80089709
0.8819184065956938	131930157.94627209
0.8821388861973429	132978099.01143451
0.8823594209188923	134026302.0618622
0.882580010774122	135074767.16305202
0.8828006557768155	136123494.38051772
0.8830213559407598	137790378.4291458
0.8832421112797452	139613085.97517386
0.8834629218075651	141436249.19808728
0.8836837875380171	143259868.21180698
0.8839047084849018	145083943.13028044
0.884125684662023	145263657.250554
0.8843467160831886	144125305.68787092
0.8845678027622095	142986669.5372972
0.8847889447129001	141847748.7276856
0.8850101419490785	140708543.1878718
0.8852313944845657	139958832.2892083
0.885452702333187	140062113.3558189
0.8856740655087704	140165420.2426961
0.8858954840251476	140268752.95629504
0.8861169578961539	140372111.5030723
0.886338487135628	140368344.42119056
0.886560071757412	138938668.21692166
0.8867817117753515	137508634.5936017
0.8870034072032955	136078243.4618753
0.8872251580550963	134647494.7323676
0.8874469643446101	133216388.31567667
0.8876688260856963	133223199.26039845
0.8878907432922178	133527681.38024114
0.8881127159780409	133832239.62061359
0.8883347441570356	134136874.0005465
0.8885568278430749	134441584.5390741
0.8887789670500358	134505425.6213164
0.8890011617917983	134398362.1813402
0.8892234120822464	134291271.97550392
0.8894457179352669	134184154.99711628
0.8896680793647509	134077011.23948397
0.8898904963845921	134330454.21525896
0.8901129690086883	135272020.6390834
0.8903354972509405	136213822.45451355
0.8905580811252535	137155859.7203983
0.8907807206455347	138098132.49559826
0.8910034158256963	139047935.02154082
0.8912261666796527	140063162.8439829
0.8914489732213227	141078644.4733809
0.8916718354646282	142094379.9731872
0.8918947534234944	143110369.4068675
0.8921177271118502	144126612.83790562
0.8923407565436284	144695993.1305581
0.8925638417327644	145192578.79539722
0.8927869826931977	145689288.6066527
0.8930101794388711	146186122.59536096
0.8932334319837308	146683080.79256633
0.8934567403417267	147057802.2018942
0.8936801045268123	147356584.31676242
0.8939035245529441	147655441.12715918
0.8941270004340824	147954372.65175864
0.894350532184191	148253378.90923917
0.8945741198172371	148880365.28429118
0.8947977633471915	150051300.34168786
0.8950214627880284	151222528.13284883
0.8952452181537254	152394048.73095688
0.8954690294582639	153565862.2092152
0.8956928967156286	154701634.49270645
0.8959168199398075	155601895.04111513
0.8961407991447926	156502380.65466118
0.8963648343445789	157403091.3896106
0.896588925553165	158304027.30224323
0.8968130727845534	159205188.44885412
0.8970372760527496	159871395.9949945
0.8972615353717629	160508344.47771907
0.8974858507556059	161145452.1975644
0.8977102222182949	161782719.1943395
0.8979346497738496	162420145.50786415
0.8981591334362931	163048937.14400375
0.8983836732196523	163673076.72765756
0.8986082691379572	164297372.34620687
0.8988329212052417	164921824.0386608
0.8990576294355432	165546431.8440384
0.8992823938429022	166063241.90210637
0.8995072144413631	166419667.4333274
0.8997320912449734	166776182.07093114
0.8999570242677847	167132785.83719417
0.9001820135238516	167489478.7543988
0.9004070590272328	167963959.263208
0.9006321607919896	169055573.65563318
0.9008573188321878	170147460.9516576
0.9010825331618959	171239621.21950546
0.9013078037951865	172332054.5274205
0.9015331307461353	173424760.9436619
0.9017585140288219	174033033.72911185
0.9019839536573292	174599709.52907854
0.9022094496457435	175166526.9979948
0.9024350020081551	175733486.17127895
0.9026606107586572	176300587.08435622
0.902886275911347	176954329.50553355
0.9031119974803249	177649934.25449887
0.9033377754796951	178345712.90465146
0.903563609923565	179041665.49946627
0.903789500826046	179737792.08243024
0.9040154482012526	180253577.52131516
0.904241452063303	180535650.2580376
0.9044675124263188	180817793.51294413
0.9046936293044254	181100007.3036644
0.9049198027117517	181382291.64783242
0.9051460326624297	181546741.8758869
0.9053723191705955	181209167.62953183
0.9055986622503881	180871508.9896155
0.9058250619159507	180533765.9350392
0.9060515181814298	180195938.44469902
0.9062780310609752	179858026.4974865
0.9065046005687405	180427897.451363
0.906731226718883	181048558.10993108
0.9069579095255627	181669373.933663
0.907184649002944	182290344.96135092
0.907411445165195	182911471.23179635
0.9076382980264862	183599016.54333568
0.907865207600993	184314252.95780894
0.9080921739028933	185029668.18138564
0.9083191969463691	185745262.2587681
0.9085462767456058	186461035.23467028
0.9087734133147922	187144767.95552185
0.9090006066681211	187791458.03616014
0.909227856819788	188438309.78931773
0.9094551637839932	189085323.2554145
0.9096825275749393	189732498.47487757
0.9099099482068329	190394597.54100284
0.9101374256938848	191109326.72372118
0.9103649600503083	191824234.58873484
0.9105925512903209	192539321.18071464
0.9108201994281437	193254586.54434314
0.9110479044780008	193970030.72431177
0.9112756664541204	195133380.10478458
0.911503485370734	196307268.69958034
0.9117313612420768	197481450.76652482
0.9119592940823873	198655926.37898567
0.912187283905908	199830695.61035004
0.9124153307268845	200427523.40527487
0.9126434345595664	200814634.85416415
0.9128715954182063	201201843.0809153
0.9130998133170609	201589148.10972333
0.9133280882703902	201976549.96478856
0.913556420292458	202579957.39539668
