#wavelength	surface flux
0.8	490439.84530543076
0.8002000000000001	499369.6251400936
0.8004000500000003	508866.0556885026
0.8006001500125003	518370.56152478536
0.8008003000500035	527877.4434875279
0.8010005001250161	537386.7021707655
0.8012007502500472	546898.3381686601
0.8014010504376099	556060.3988131039
0.8016014007002193	565106.8563823445
0.8018018010503944	574155.5755659773
0.8020022515006572	583206.55692941
0.8022027520635323	592259.8010381758
0.8024033027515483	601906.1614002958
0.8026039035772362	612133.9462087099
0.8028045545531306	622364.2879633264
0.8030052556917691	632597.1873033865
0.803206007005692	642832.6448682727
0.8034068085074435	653089.4609634259
0.8036076602095705	663401.5394836669
0.8038085621246229	673716.1960235297
0.8040095142651542	684033.431227534
0.8042105166437206	694353.2457403358
0.8044115692728815	704679.6182378135
0.8046126721651998	715179.6744527253
0.8048138253332411	725682.3556816825
0.8050150287895745	736187.6625809566
0.805216282546772	746695.5958069527
0.8054175866174087	757206.1560162498
0.8056189410140631	767725.2562034058
0.8058203457493168	778248.6597406851
0.8060218008357541	788774.6941288355
0.8062233062859632	799303.3600255878
0.8064248621125346	809834.6580888072
0.806626468328063	820951.7181769643
0.8068281249451449	832572.394969691
0.8070298319763813	844195.9769316303
0.8072315894343755	855822.4647890512
0.8074333973317341	867451.8592684409
0.8076352556810671	878426.1760051326
0.8078371644949874	887819.3563348622
0.8080391237861113	897214.8849596764
0.8082411335670578	906612.762466641
0.8084431938504498	916012.9894429923
0.8086453046489125	925336.3562225377
0.8088474659750746	933187.3008347868
0.8090496778415686	941040.2081831995
0.809251940261029	948895.0787584437
0.8094542532460944	956751.9130513383
0.8096566168094059	964610.7115527971
0.8098590309636085	974135.9005916272
0.8100614957213493	984053.043385538
0.8102640110952797	993972.6654651486
0.8104665770980536	1003894.767450283
0.8106691937423283	1013819.3499609176
0.8108718610407639	1023969.7897835232
0.8110745790060241	1034293.5712462876
0.8112773476507757	1044619.9336544267
0.8114801669876885	1054948.8776531653
0.8116830370294355	1065280.4038878973
0.8118859577886929	1074797.658116229
0.8120889292781401	1082620.6483365134
0.8122919515104597	1090445.5943043525
0.8124950244983374	1098272.4965086838
0.8126981482544621	1106101.355438565
0.8129013227915257	1114330.543371082
0.8131045481222237	1127123.2064770246
0.8133078242592543	1139919.067748745
0.8135111512153191	1152718.1279857797
0.813714529003123	1165520.3879878751
0.8139179576353739	1178325.8485549735
0.8141214371247829	1197886.3068780056
0.8143249674840641	1218760.94219978
0.814528548725935	1239640.796180372
0.8147321808631167	1260525.8701244872
0.8149358639083326	1281416.1653370822
0.8151395978743097	1299385.70466166
0.8153433827737784	1315382.822558818
0.8155472186194719	1331383.9397354443
0.8157511054241268	1347389.057191362
0.815955043200483	1363398.1759266546
0.8161590319612831	1382294.075452483
0.8163630717192736	1406477.0391781214
0.8165671624872033	1430666.0486446647
0.8167713042778252	1454861.105363598
0.8169754971038948	1479062.2108467235
0.8171797409781707	1500129.7425254965
0.8173840359134155	1496137.949680241
0.8175883819223938	1492145.158886779
0.8177927790178745	1488151.3698956163
0.8179972272126291	1484156.5824572046
0.8182017265194322	1480160.7963219373
0.8184062769510622	1496839.3255453568
0.8186108785203001	1516703.6492626565
0.8188155312399301	1536572.9390608585
0.8190202351227402	1556447.1961815325
0.819224990181521	1576326.4218664737
0.8194297964290664	1603391.0530796032
0.8196346538781738	1634790.4453451193
0.8198395625416434	1666197.6874586896
0.8200445224322789	1697612.7813828012
0.820249533562887	1729035.7290803846
0.8204545959462778	1756671.5559039868
0.8206597095952644	1778206.3792799364
0.8208648745226633	1799746.5863617468
0.8210700907412941	1821292.178495324
0.8212753582639793	1842843.1570269128
0.8214806771035456	1862509.789045321
0.8216860472728215	1870538.2723445904
0.8218914687846397	1878568.7627646849
0.822096941651836	1886601.2608073887
0.822302465887249	1894635.7669745984
0.8225080415037209	1902672.2817683544
0.8227136685140968	1910842.2183680309
0.8229193469312254	1919029.1155372404
0.8231250767679583	1927218.059430745
0.8233308580371503	1935409.0505602183
0.8235366907516598	1943602.0894374803
0.8237425749243477	1971472.861495196
0.8239485105680789	2009779.060140938
0.824154497695721	2048094.8353363168
0.824360536320145	2086420.1894755021
0.8245666264542252	2124755.12495322
0.8247727681108388	2156125.4313575705
0.8249789613028664	2177515.194962723
0.8251852060431922	2198910.3060087957
0.825391502344703	2220310.76583262
0.8255978502202894	2241716.57577142
0.8258042496828445	2263661.4290115167
0.8260107007452654	2288203.6805134807
0.8262172034204517	2312752.067578295
0.8264237577213068	2337306.591739882
0.8266303636607373	2361867.2545325197
0.8268370212516525	2386434.057490844
0.8270437305069654	2399515.1460751095
0.8272504914395923	2411701.491066537
0.8274573040624523	2423890.8826442156
0.8276641683884679	2436083.321569778
0.8278710844305652	2448278.808605086
0.8280780522016729	2468354.9597293553
0.8282850717147234	2492036.973219155
0.8284921429826521	2515724.907212303
0.8286992660183978	2539418.763188968
0.8289064408349024	2563118.5426296107
0.8291136674451112	2584583.189402765
0.8293209458619727	2603227.3409863897
0.8295282760984382	2621876.153607886
0.829735658167463	2640529.6284325584
0.8299430920820048	2659187.766625914
0.8301505778550254	2678194.4517969154
0.8303581154994891	2698578.424171301
0.8305657050283641	2718967.492538801
0.8307733464546212	2739361.6581733767
0.8309810397912352	2759760.9223493943
0.8311887850511829	2780165.2863414157
0.8313965822474458	2817414.6264304114
0.8316044313930077	2855454.9065321404
0.8318123325008561	2893504.6967039304
0.8320202855839813	2931563.999323244
0.8322282906553774	2969632.8167682164
0.8324363477280413	2995656.0753491065
0.8326444568149735	3016832.508648164
0.8328526179291771	3038014.2360555218
0.8330608310836596	3059201.258894763
0.8332690962914304	3080393.578489686
0.8334774135655034	3095165.8555076453
0.833685782918895	3102764.509077642
0.8338942043646247	3110365.0623110267
0.834102677915716	3117967.515682725
0.834311203585195	3125571.86966776
0.8345197813860912	3137817.9915324314
0.8347284113314379	3165685.4004485486
0.8349370934342709	3193559.776216879
0.8351458277076294	3221441.1205791174
0.8353546141645565	3249329.435277493
0.8355634528180977	3277224.7220545313
0.8357723436813022	3292877.818538579
0.8359812867672226	3308383.5823309748
0.8361902820889144	3323893.2225643108
0.8363993296594368	3339406.74020771
0.8366084294918518	3354924.136230525
0.8368175815992247	3389433.0606896775
0.8370267859946247	3430490.153750696
0.8372360426911234	3471557.5110849678
0.8374453517017962	3512635.135258569
0.8376547130397217	3553723.028838208
0.8378641267179816	3587886.304116753
0.8380735927496613	3615176.906331188
0.8382831111478488	3642474.3311961605
0.8384926819256358	3669778.580417335
0.8387023050961173	3697089.6557008387
0.8389119806723914	3723016.159915499
0.8391217086675596	3745033.294773237
0.8393314890947265	3767055.933914673
0.8395413219670003	3789084.0787158962
0.8397512072974922	3811117.730553335
0.8399611450993165	3833139.205982764
0.8401711353855914	3854287.964893124
0.8403811781694378	3875442.010993206
0.8405912734639802	3896601.3456048183
0.8408014212823464	3917765.9700500937
0.8410116216376671	3938935.885651477
0.8412218745430766	3960114.2627111305
0.8414321800117124	3981298.8564157444
0.8416425380567154	4002488.7462687944
0.8418529486912297	4023683.933594313
0.8420634119284025	4044884.419716645
0.8422739277813847	4095156.7641290156
0.8424844962633302	4171050.4422648815
0.842695117387396	4246963.093820185
0.8429057911667428	4322894.72353838
0.8431165176145345	4398845.336164041
0.8433272967439382	4451338.184147828
0.8435381285681244	4446577.84638908
0.8437490131002665	4441816.318545895
0.8439599503535415	4437053.600320751
0.84417094034113	4432289.691416047
0.8443819830762154	4429451.344096974
0.8445930785719846	4465426.882282698
0.8448042268416277	4501411.414352948
0.8450154278983382	4537404.942556211
0.8452266817553128	4573407.4691415215
0.8454379884257517	4609418.996358483
0.8456493479228583	4664412.511077536
0.845860760259839	4723988.696897614
0.846072225449904	4783579.776764145
0.8462837435062666	4843185.754400656
0.8464953144421433	4902806.63353161
0.8467069382707537	4948862.013540297
0.8469186150053215	4984343.399287903
0.847130344659073	5019833.655381957
0.8473421272452377	5055332.784039999
0.8475539627770492	5090840.787480242
0.8477658512677435	5122873.474416174
0.8479777927305605	5147515.943421547
0.8481897871787432	5172164.573044167
0.848401834625538	5196819.364824205
0.8486139350841944	5221480.3203021735
0.8488260885679657	5241931.411220237
0.8490382950901076	5210995.708361091
0.8492505546638802	5180052.2715762155
0.8494628673025462	5149101.0989321545
0.8496752330193721	5118142.188494886
0.8498876518276269	5087175.538330051
0.8501001237405839	4847375.509008875
0.8503126487715191	4565830.264865571
0.850525226933712	4284214.634411387
0.8507378582404455	4002528.600049593
0.8509505427050057	3720772.1441790443
0.8511632803406821	3505553.916868952
0.8513760711607672	3335896.6251946376
0.8515889151785576	3166196.919197141
0.8518018124073523	2996454.7882732875
0.8520147628604541	2826670.221816803
0.8522277665511693	2777704.1702579125
0.8524408234928071	2952243.615317627
0.8526539336986805	3126826.695238653
0.8528670971821053	3301453.4209296703
0.8530803139564007	3476123.8033019053
0.8532935840348901	3676620.1317544486
0.8535069074308987	4094911.1008582613
0.8537202841577566	4513306.642704701
0.8539337142287962	4931806.78343665
0.8541471976573534	5350411.549203521
0.8543607344567677	5769120.966161909
0.8545743246403821	5928313.94413751
0.8547879682215422	6046315.919762129
0.8550016652135977	6164347.395880638
0.8552154156299011	6282408.379868183
0.8554292194838088	6400498.879101811
0.8556430767886797	6485732.474590132
0.855856987557877	6551019.608967479
0.8560709518047664	6616323.065128379
0.8562849695427177	6681642.847153342
0.8564990407851035	6746978.959123831
0.8567131655452999	6806150.142450671
0.8569273438366862	6855207.913399489
0.8571415756726455	6904277.948791053
0.8573558610665638	6953360.251691484
0.8575702000318304	7002454.825167585
0.8577845925818384	7052067.964997829
0.857999038729984	7104855.998904205
0.8582135384896665	7157657.229819045
0.858428091874289	7210471.661041617
0.8586426988972576	7263299.295871981
0.8588573595719821	7316140.137611071
0.8590720739118751	7348521.280055376
0.8592868419303532	7378496.700581795
0.8595016636408359	7408479.614963346
0.8597165390567462	7438470.025073482
0.8599314681915105	7468467.932786154
0.8601464510585584	7442072.643538792
0.860361487671323	7385733.659514446
0.8605765780432408	7329380.590744111
0.8607917221877518	7273013.433706537
0.8610069201182988	7216632.184879718
0.8612221718483286	7097857.555389044
0.8614374773912907	6889125.050611353
0.8616528367606385	6680340.362707525
0.8618682499698288	6471503.478631589
0.8620837170323213	6262614.385334668
0.8622992379615795	6093222.890088491
0.8625148127710699	6119505.955481361
0.8627304414742627	6145795.591640581
0.8629461240846313	6172091.800208845
0.8631618606156526	6198394.582829254
0.8633776510808066	6224703.941145313
0.8635934954935769	6326115.714533739
0.8638093938674504	6433708.582505481
0.8640253462159173	6541328.348694214
0.8642413525524714	6648975.01982449
0.8644574128906095	6756648.602622528
0.8646735272438323	6850219.162366163
0.8648896956256433	6937242.300453313
0.8651059180495498	7024287.194324989
0.8653221945290621	7111353.849420049
0.8655385250776946	7198442.271179006
0.8657549097089641	7286797.221731747
0.8659713484363913	7376767.823212353
0.8661878412735006	7466760.91734337
0.866404388233819	7556776.5097479075
0.8666209893308775	7646814.606050505
0.8668376445782103	7725541.109088468
0.8670543539893549	7758027.066622106
0.8672711175778525	7790521.14564515
0.8674879353572469	7823023.348187913
0.8677048073410862	7855533.676281325
0.8679217335429217	7888052.131956779
0.8681387139763074	7954591.312238725
0.8683557486548015	8022836.786380261
0.8685728375919655	8091099.321890416
0.8687899808013633	8159378.9230343
0.8690071782965637	8227675.5940785585
0.869224430091138	8256902.111004817
0.8694417361986609	8270231.39078271
0.8696590966327107	8283564.002880545
0.869876511406869	8296899.948131405
0.8700939805347206	8310239.227368571
0.8703115040298544	8333822.2892889725
0.870529081905862	8369119.041334006
0.8707467141763385	8404424.617567038
0.8709644008548827	8439739.020194126
0.8711821419550964	8475062.25142185
0.8713999374905854	8510067.963161986
0.871617787474958	8543956.07822955
0.8718356919218269	8577852.665325914
0.8720536508448075	8611757.72656905
0.8722716642575187	8645671.264077479
0.8724897321735832	8679593.279970301
0.8727078546066265	8742498.034620717
0.8729260315702784	8805859.308974758
0.873144263078171	8869236.423647316
0.8733625491439405	8932629.382598551
0.8735808897812266	8996038.189789549
0.8737992850036719	9023423.04159702
0.874017734824923	9038050.032365074
0.8742362392586293	9052680.679880815
0.874454798318444	9067314.985058432
0.8746734120180236	9081952.948812343
0.8748920803710283	9106803.276558
0.875110803391121	9141918.592154825
0.8753295810919689	9177042.68658057
0.875548413487242	9212175.56202992
0.8757673005906139	9247317.220698137
0.8759862424157616	9312132.167813614
0.8762052389763657	9462798.958139136
0.8764242902861098	9613503.415162135
0.8766433963586814	9764245.54829943
0.8768625572077712	9915025.366970057
0.8770817728470732	10064375.41754877
0.8773010432902849	10099186.99371907
0.8775203685511077	10134007.27278346
0.8777397486432454	10168836.256917574
0.8779591835804065	10203673.948297761
0.8781786733763015	10238520.34910075
0.8783982180446457	10205612.554691331
0.878617817599157	10152538.335142316
0.8788374720535569	10099450.84703844
0.8790571814215703	10046350.08706255
0.8792769457169257	9993236.051896667
0.879496764953355	9997670.26572242
0.8797166391445934	10053857.182033597
0.8799365683043796	10110058.145073853
0.8801565524464557	10166273.158354871
0.8803765915845676	10222502.22538926
0.8805966857324639	10273002.57857451
0.880816834903897	10309091.437417246
0.881037039112623	10345189.318474706
0.8812572983724012	10381296.224002428
0.8814776126969944	10417412.156256547
0.8816979821001687	10452318.06997953
0.8819184065956938	10458536.126508173
0.8821388861973429	10464755.737550953
0.8823594209188923	10470976.903496489
0.882580010774122	10477199.624733508
0.8828006557768155	10483423.90165084
0.8830213559407598	10564020.187534187
0.8832421112797452	10663341.546305973
0.8834629218075651	10762687.735417392
0.8836837875380171	10862058.761076119
0.8839047084849018	10961454.629491275
0.884125684662023	11002027.680166475
0.8843467160831886	10995451.984950613
0.8845678027622095	10988874.645810947
0.8847889447129001	10982295.662336495
0.8850101419490785	10975715.034116175
0.8852313944845657	11054549.37950067
0.885452702333187	11320369.935536033
0.8856740655087704	11586256.946710367
0.8858954840251476	11852210.42963742
0.8861169578961539	12118230.400935085
0.886338487135628	12351617.299478162
0.886560071757412	12149915.960619431
0.8867817117753515	11948164.196425993
0.8870034072032955	11746361.994291414
0.8872251580550963	11544509.341606539
0.8874469643446101	11342606.225758366
0.8876688260856963	11351506.310726883
0.8878907432922178	11404047.49133576
0.8881127159780409	11456601.807239754
0.8883347441570356	11509169.26172279
0.8885568278430749	11561749.85806939
0.8887789670500358	11547366.154910909
0.8890011617917983	11485466.821804985
0.8892234120822464	11423552.013865758
0.8894457179352669	11361621.727224596
0.8896680793647509	11299675.958011724
0.8898904963845921	11236704.044664932
0.8901129690086883	11171788.02686064
0.8903354972509405	11106855.780051911
0.8905580811252535	11041907.300181432
0.8907807206455347	10976942.58319107
0.8910034158256963	10903842.514352046
0.8912261666796527	10758163.971809376
0.8914489732213227	10612449.00963103
0.8916718354646282	10466697.618711995
0.8918947534234944	10320909.789945373
0.8921177271118502	10175085.51422165
0.8923407565436284	9665013.033753669
0.8925638417327644	9095400.195573358
0.8927869826931977	8525644.954183312
0.8930101794388711	7955747.273982957
0.8932334319837308	7385707.119362641
0.8934567403417267	7020321.193963655
0.8936801045268123	6782100.987876428
0.8939035245529441	6543821.22673784
0.8941270004340824	6305481.895658875
0.894350532184191	6067082.9797472
0.8945741198172371	6159529.698613814
0.8947977633471915	6800766.388982924
0.8950214627880284	7442163.3885245975
0.8952452181537254	8083720.737315776
0.8954690294582639	8725438.475444539
0.8956928967156286	9361424.004597094
0.8959168199398075	9959327.405970749
0.8961407991447926	10557380.2831949
0.8963648343445789	11155582.67363834
0.896588925553165	11753934.614679053
0.8968130727845534	12352436.143705105
0.8970372760527496	12477880.334200194
0.8972615353717629	12544148.165043268
0.8974858507556059	12610432.562844058
0.8977102222182949	12676733.531744283
0.8979346497738496	12743051.07588677
0.8981591334362931	12973336.412900418
0.8983836732196523	13293340.384829175
0.8986082691379572	13613424.357750703
0.8988329212052417	13933588.351665461
0.8990576294355432	14253832.386578977
0.8992823938429022	14459341.823166048
0.8995072144413631	14494187.829389231
0.8997320912449734	14529042.547113957
0.8999570242677847	14563905.978518106
0.9001820135238516	14598778.12578011
0.9004070590272328	14650602.276875036
0.9006321607919896	14791261.868576158
0.9008573188321878	14931956.625175348
0.9010825331618959	15072686.55546362
0.9013078037951865	15213451.668234486
0.9015331307461353	15354251.972283471
0.9017585140288219	15757693.514444549
0.9019839536573292	16183854.855721286
0.9022094496457435	16610122.737333035
0.9024350020081551	17036497.185915668
0.9026606107586572	17462978.228110313
0.902886275911347	17666245.183540408
0.9031119974803249	17761906.83036414
0.9033377754796951	17857592.392599586
0.903563609923565	17953301.876225542
0.903789500826046	18049035.28722247
0.9040154482012526	18059800.580051314
0.904241452063303	17960468.782513775
0.9044675124263188	17861112.152026873
0.9046936293044254	17761730.682382364
0.9049198027117517	17662324.367370397
0.9051460326624297	17596729.9366715
0.9053723191705955	17675203.80043391
0.9055986622503881	17753697.28266219
0.9058250619159507	17832210.38826103
0.9060515181814298	17910743.12213632
0.9062780310609752	17989295.489195023
0.9065046005687405	17949531.30035374
0.906731226718883	17903155.544065464
0.9069579095255627	17856768.193838175
0.907184649002944	17810369.24677333
0.907411445165195	17763958.69997167
0.9076382980264862	18048676.461108852
0.907865207600993	18470987.193248585
0.9080921739028933	18893403.50307123
0.9083191969463691	19315925.416971263
0.9085462767456058	19738552.961349975
0.9087734133147922	19884458.128839165
0.9090006066681211	19710659.962261084
0.909227856819788	19536818.346141588
0.9094551637839932	19362933.269617822
0.9096825275749393	19189004.72182498
0.9099099482068329	19029155.037971698
0.9101374256938848	18919456.454528693
0.9103649600503083	18809730.446439873
0.9105925512903209	18699977.006849058
0.9108201994281437	18590196.12889823
0.9110479044780008	18480387.805728037
0.9112756664541204	18935460.70687438
0.911503485370734	19403578.036257826
0.9117313612420768	19871812.39497362
0.9119592940823873	20340163.812278952
0.912187283905908	20808632.31743876
0.9124153307268845	20786473.645790752
0.9126434345595664	20586197.940550845
0.9128715954182063	20385872.16638482
0.9130998133170609	20185496.31077515
0.9133280882703902	19985070.36120159
0.913556420292458	19929779.79435653
0.9137848093975312	20024207.34361959
0.9140132555998806	20118658.499769956
0.9142417589137806	20213133.268709365
0.9144703193535092	20307631.65634107
0.9146989369333476	20387295.05475299
