#wavelength	surface flux
0.7	4159083.3266412714
0.7001166666666666	4171173.827898442
0.7002333527777778	4172261.309297365
0.700350058336574	4173348.971943188
0.7004667833462966	4174436.815866117
0.7005835278101878	4175524.8410963695
0.7007002917314895	4176613.047664159
0.7008170751134447	4177701.435599709
0.7009338779592968	4178790.0049332483
0.7010507002722901	4177047.272368743
0.7011675420556689	4171858.522385973
0.701284403312678	4166668.9076115475
0.7014012840465635	4161478.427901319
0.7015181842605713	4156287.08311114
0.701635103957948	4151094.873096833
0.701752043141941	4145901.797714191
0.701869001815798	4140707.8568189777
0.7019859799827672	4132540.392725732
0.7021029776460976	4122302.765123392
0.7022199948090387	4112063.4312497713
0.7023370314748403	4101822.3908205093
0.7024540876467528	4091579.643551178
0.702571163328027	4081335.1891573183
0.7026882585219152	4071089.0273543657
0.7028053732316688	4060841.157857794
0.7029225074605406	4062592.5381240286
0.7030396612117841	4068978.330448779
0.7031568344886527	4075365.187072251
0.7032740272944008	4081753.108171823
0.7033912396322832	4088142.0939249145
0.7035084715055552	4094532.1445089593
0.7036257229174727	4100923.2601014366
0.7037429938712924	4107315.440879852
0.7038602843702709	4120619.5219767047
0.7039775944176659	4135097.9486011188
0.7040949240167356	4149578.7882966427
0.7042122731707383	4164062.0414654417
0.7043296418829335	4178547.7085097767
0.7044470301565806	4193035.7898319503
0.70456443799494	4207526.285834333
0.7046818654012724	4222019.196919391
0.7047993123788394	4220657.6146495
0.7049167789309024	4219277.608942652
0.7050342650607243	4217897.37323485
0.7051517707715678	4216516.907487765
0.7052692960666963	4215136.211663055
0.705386840949374	4213755.285722376
0.7055044054228656	4212374.129627371
0.7056219894904361	4211544.352695436
0.7057395931553511	4214219.85620169
0.705857216420877	4216895.805625197
0.7059748592902804	4219572.201040273
0.7060925217668288	4222249.042521254
0.70621020385379	4224926.330142481
0.7063279055544321	4227604.063978309
0.7064456268720246	4230282.244103114
0.7065633678098366	4234220.08892531
0.7066811283711383	4241626.5004378185
0.7067989085592001	4249034.146352246
0.7069167083772933	4256443.026874321
0.7070345278286895	4263853.14220982
0.707152366916661	4271264.492564545
0.7072702256444803	4278677.078144319
0.7073881040154211	4286090.899155034
0.7075060020327569	4287525.738004405
0.7076239196997625	4280251.54156238
0.7077418570197124	4272976.1327542905
0.7078598139958823	4265699.511378065
0.7079777906315483	4258421.677231604
0.7080957869299869	4251142.6301127905
0.7082138028944751	4243862.369819461
0.7083318385282908	4236580.896149411
0.7084498938347124	4232044.739332672
0.708567968817018	4229836.391110526
0.7086860634784875	4227627.674830342
0.7088041778224007	4225418.590430775
0.7089223118520377	4223209.137850478
0.7090404655706796	4220999.317028086
0.709158638981608	4218789.12790222
0.709276832088105	4216578.5704115
0.7093950448934531	4220304.841015974
0.7095132774009353	4226863.245737217
0.7096315296138355	4233422.743525918
0.7097498015354378	4239983.334564246
0.7098680931690269	4246545.01903441
0.7099864045178884	4253107.797118659
0.7101047355853081	4259671.668999255
0.7102230863745722	4266236.634858492
0.7103414568889679	4252797.590899878
0.7104598471317828	4234810.676156152
0.7105782571063047	4216820.763593315
0.7106966868158224	4198827.8527117185
0.710815136263625	4180831.9430116457
0.7109336054530023	4162833.0339932777
0.7110520943872445	4144831.1251567467
0.7111706030696424	4126826.2160020657
0.7112891315034873	4125060.4247537875
0.7114076796920712	4124069.29746803
0.7115262476386865	4123078.0049943915
0.7116448353466263	4122086.5473053413
0.711763442819184	4121094.9243733427
0.711882070059654	4120103.1361708543
0.7120007170713306	4119111.182670333
0.7121193838575091	4118783.50553778
0.7122380704214853	4125385.730576454
0.7123567767665555	4131989.0559859616
0.7124755028960166	4138593.4819497075
0.7125942488131658	4145199.0086511085
0.7127130145213015	4151805.636273645
0.7128318000237216	4158413.3650007644
0.7129506053237256	4165022.1950160144
0.7130694304246129	4167617.3361938456
0.7131882753296837	4156175.7886396884
0.7133071400422386	4144732.334160936
0.7134260245655789	4133286.9724397785
0.7135449289030065	4121839.70315833
0.7136638530578235	4110390.525998675
0.7137827970333332	4098939.440642809
0.7139017608328388	4087486.4467727207
0.7140207444596443	4078108.764795489
0.7141397479170543	4072435.075484244
0.7142587712083737	4066760.4405581215
0.7143778143369084	4061084.8598595066
0.7144968773059646	4055408.3332307744
0.7146159601188489	4049730.8605142725
0.7147350627788687	4044052.4415523172
0.7148541852893318	4038373.076187204
0.7149733276535467	4035094.9993010494
0.7150924898748222	4034238.7361898846
0.715211671956468	4033382.330368201
0.7153308739017941	4032525.7818122124
0.715450095714111	4031669.090498132
0.71556933739673	4030812.256402166
0.7156885989529628	4029955.2795005175
0.7158078803861218	4029098.159769384
0.7159271816995193	4018653.241261335
0.7160465028964692	4002579.226065446
0.7161658439802853	3986502.531867025
0.7162852049542819	3970423.158219574
0.7164045858217744	3954341.104676505
0.716523986586078	3938256.3707911856
0.7166434072505089	3922168.9561168933
0.716762847818384	3906078.8602068163
0.7168823082930204	3897842.1757021467
0.7170017886777359	3891915.3475708677
0.7171212889758488	3885987.5316349035
0.7172408091906781	3880058.7277296153
0.7173603493255433	3874128.935690341
0.7174799093837642	3868198.155352397
0.7175994893686615	3862266.3865510602
0.7177190892835562	3856333.629121593
0.7178387091317702	3857915.3536131275
0.7179583489166254	3860251.766262645
0.7180780086414448	3862588.5683142724
0.7181976883095517	3864925.759832909
0.7183173879242699	3867263.340883465
0.718437107488924	3869601.311530864
0.7185568470068389	3871939.6718400377
0.7186766064813399	3873870.08890112
0.7187963859157535	3865591.6034382433
0.7189161853134061	3857311.73822779
0.719036004677625	3849030.4930398013
0.7191558440117378	3840747.8676442862
0.7192757033190732	3832463.8618111936
0.7193955826029597	3824178.475310472
0.7195154818667269	3815891.7079119934
0.7196354011137046	3806460.4162908513
0.7197553403472235	3791764.3176417225
0.7198752995706147	3777065.769642825
0.7199952787872098	3762364.7718859175
0.720115278000341	3747661.3239627182
0.7202352972133411	3732955.4254648625
0.7203553364295432	3718247.0759839467
0.7204753956522815	3703536.2751114294
0.7205954748848902	3691218.7754299073
0.7207155741307044	3684180.962775111
0.7208356933930594	3677141.9771515517
0.7209558326752915	3670101.8183637196
0.7210759919807375	3663060.4862160804
0.7211961713127342	3656017.980513092
0.7213163706746197	3648974.301059142
0.7214365900697322	3641929.4476586245
0.7215568295014103	3636787.1341839074
0.721677088972994	3633915.415245411
0.7217973684878227	3631043.2176870964
0.7219176680492374	3628170.541429186
0.7220379876605789	3625297.3863919
0.722158327325189	3622423.7524954407
0.7222786870464099	3619549.6396600003
0.7223990668275843	3616675.047805752
0.7225194666720555	3607257.026409851
0.7226398865831676	3593200.2825626847
0.7227603265642646	3579141.195924911
0.722880786618692	3565079.7661060006
0.7230012667497951	3551015.9927154635
0.7231217669609201	3536949.8753626924
0.7232422872554135	3522881.413657042
0.7233628276366229	3508810.6072077495
0.7234833881078956	3495374.125363854
0.7236039686725803	3482177.1230362845
0.7237245693340255	3468977.9212083477
0.7238451900955812	3455776.519513415
0.7239658309605971	3442572.917584882
0.7240864919324239	3429367.1150560104
0.7242071730144127	3416159.11156005
0.724327874209915	3402948.906730201
0.7244485955222832	3390181.533764638
0.7245693369548704	3377485.615443698
0.7246900985110294	3364787.5811363896
0.7248108801941148	3352087.4304899964
0.7249316820074803	3339385.1631518714
0.7250525039544815	3326680.7787691695
0.7251733460384739	3313974.2769890684
0.7252942082628137	3301267.4565247837
0.7254150906308574	3289600.9541416145
0.7255359931459625	3277932.50734138
0.7256569158114868	3266262.115800009
0.7257778586307888	3254589.7791933753
0.7258988216072273	3242915.49719731
0.7260198047441617	3231239.269487592
0.7261408080449525	3219561.0957399025
0.72626183151296	3207562.037832785
0.7263828751515454	3193441.4554282604
0.7265039389640706	3179318.519593337
0.726625022953898	3165193.2299357667
0.7267461271243904	3151065.5860632462
0.7268672514789111	3136935.5875834227
0.7269883960208241	3122803.2341038655
0.7271095607534942	3108668.525232052
0.7272307456802866	3094348.7057190067
0.7273519508045666	3079532.8345901435
0.7274731761297006	3064714.494149433
0.7275944216590555	3049893.6839853153
0.7277156873959987	3035070.4036861653
0.7278369733438982	3020244.6528402753
0.727958279506122	3005416.43103595
0.7280796058860397	2990585.737861306
0.7282009524870207	2975402.266180242
0.7283223193124353	2959698.1212652926
0.7284437063656539	2943991.35899289
0.7285651136500483	2928281.9789267494
0.7286865411689898	2912569.9806306297
0.7288079889258514	2896855.3636680897
0.7289294569240056	2881138.127602759
0.7290509451668262	2865418.2719980655
0.7291724536576875	2851424.9256274495
0.7292939823999636	2838862.0167198037
0.7294155313970303	2826297.013993981
0.7295371006522632	2813729.917101041
0.7296586901690385	2801160.725691962
0.7297802999507332	2788589.4394176533
0.7299019300007252	2776016.0579289338
0.7300235803223919	2763440.580876666
0.7301452509191123	2751763.8225217555
0.7302669417942654	2740500.906544009
0.7303886529512311	2729236.1134135965
0.7305103843933897	2717969.442817659
0.7306321361241218	2706700.8944432978
0.7307539081468093	2695430.467977521
0.7308757004648336	2684158.163107357
0.7309975130815778	2672883.9795197016
0.7311193460004248	2661799.2586075966
0.7312411992247582	2650756.007561623
0.7313630727579622	2639710.915973811
0.7314849666034219	2628663.9835373894
0.7316068807645224	2617615.209945569
0.7317288152446498	2606564.594891478
0.7318507700471907	2595512.1380682057
0.7319727451755319	2584457.8391688
0.732094740633061	2570818.695239495
0.7322167564231665	2557060.9905223236
0.7323387925492371	2543300.992854365
0.7324608490146619	2529538.701853466
0.732582925822831	2515774.1171373967
0.7327050229771347	2502007.2383238906
0.7328271404809642	2488238.0650305683
0.7329492783377112	2474368.2206260427
0.7330714365507675	2459528.9219413544
0.7331936151235259	2444687.150040222
0.7333158140593796	2429842.904510456
0.7334380333617229	2414996.1849397463
0.7335602730339499	2400146.9909157674
0.7336825330794556	2385295.3220261154
0.7338048135016354	2370441.1778583433
0.7339271143038857	2355742.9099485353
0.734049435489603	2341572.779938082
0.7341717770621846	2327400.288239292
0.7342941390250283	2313225.434458559
0.7344165213815324	2299048.218202201
0.734538924135096	2284868.6390764466
0.7346613472891185	2270686.696687523
0.734783790847	2256502.3906415296
0.7349062548121412	2241165.014742134
0.7350287391879431	2223791.1631120746
0.7351512439778078	2206414.415840041
0.7352737691851374	2189034.772443483
0.735396314813335	2171652.2324396768
0.7355188808658037	2154266.795345899
0.7356414673459482	2136878.460679237
0.7357640742571725	2119487.2279568086
0.7358867016028818	2103483.7984561394
0.7360093493864824	2088851.1451196629
0.7361320176113801	2074216.0530076497
0.736254706280982	2059578.5217136177
0.7363774153986956	2044938.550831018
0.7365001449679286	2030296.139953301
0.7366228949920899	2015651.288673759
0.7367456654745885	2001003.9965856709
0.7368684564188344	1986600.7319799336
0.7369912678282374	1972334.3657438648
0.7371140997062088	1958065.621780084
0.7372369520561599	1943794.4996922957
0.7373598248815024	1929520.9990841916
0.7374827181856494	1915245.1195592955
0.7376056319720137	1900966.8607211441
0.7377285662440091	1886686.2221731844
0.7378515210050496	1871235.2816008434
0.7379744962585505	1855430.3736965088
0.738097492007927	1839622.8316408608
0.7382205082565949	1823812.6549948798
0.738343545007971	1807999.843319461
0.7384666022654723	1792184.3961754139
0.7385896800325165	1776366.313123533
0.7387127783125219	1760545.593724457
0.7388358971089073	1748024.3903911284
0.7389590364250921	1735832.3143178222
0.7390821962644963	1723638.206231828
0.7392053766305403	1711442.0657945042
0.7393285775266454	1699243.8926670984
0.7394517989562333	1687043.6865108265
0.7395750409227259	1674841.4469868816
0.7396983034295463	1662577.0387037452
0.739821586480118	1648972.8373546
0.7399448900778645	1635366.36863859
0.7400682142262109	1621757.632177753
0.740191558928582	1608146.6275941865
0.7403149241884034	1594533.354509867
0.7404383100091014	1580917.812546697
0.7405617163941028	1567300.0013265414
0.7406851433468352	1553382.9961985848
0.7408085908707264	1538105.314430288
0.7409320589692048	1522825.0863817038
0.7410555476456997	1507542.3116284325
0.7411790569036406	1492256.9897460467
0.7413025867464579	1476969.1203100095
0.7414261371775823	1461678.7028957289
0.7415497082004452	1446385.7370785575
0.7416732998184786	1431216.290289393
0.741796912035115	1416314.7556303747
0.7419205448537874	1401410.7373822501
0.7420441982779297	1386504.2351310847
0.742167872310976	1371595.2484628635
0.7422915669563612	1356683.7769635315
0.7424152822175206	1341769.8202189535
0.7425390180978901	1326853.3778149274
0.7426627746009065	1312773.4351579922
0.7427865517300065	1299713.9296378694
0.7429103494886282	1286652.2475334795
0.7430341678802096	1273588.3884820822
0.7431580069081896	1260522.3521208437
0.7432818665760077	1247454.13808686
0.7434057468871037	1234383.746017215
0.7435296478449182	1221311.175548899
0.7436535694528923	1207895.7569854574
0.7437775117144678	1194244.9039108371
0.7439014746330868	1180591.7756940583
0.7440254582121922	1166936.371955898
0.7441494624552276	1153278.6923171093
0.7442734873656368	1139618.7363983837
0.7443975329468645	1125956.5038203276
0.7445215992023557	1112291.9942035098
0.7446456861355559	1099112.2350274073
0.7447697937499119	1086109.687356442
0.7448939220488703	1073104.972594201
0.7450180710358784	1060098.0903795115
0.7451422407143843	1047089.0403511177
0.7452664310878367	1034077.8221477071
0.7453906421596846	1021064.4354079432
0.7455148739333779	1008048.8797703851
0.7456391264123667	995268.3811189081
0.7457633996001021	982523.6835491777
0.7458876935000356	969776.861863163
0.7460120081156189	957027.9157068915
0.7461363434503048	944276.8447262547
0.7462606995075466	931523.6485671095
0.7463850762907978	918768.3268752904
0.7465094738035127	906013.6298631502
0.7466338920491467	893976.3399947658
0.746758331031155	881937.0439113914
0.7468827907529935	869895.741278684
0.7470072712181189	857852.4317622043
0.7471317724299886	845807.1150274694
0.7472562943920602	833759.7907399539
0.7473808371077922	821710.4585650464
0.7475054005806435	809695.7450295818
0.7476299848140736	797904.6361443611
0.7477545898115426	786111.5620743235
0.7478792155765113	774316.5224919381
0.7480038621124406	762519.5170696316
0.7481285294227926	750720.5454797574
0.7482532175110298	738919.6073946058
0.7483779263806148	727116.7024864565
0.7485026560350116	715515.9125095727
0.7486274064776842	704465.5295799038
0.748752177712097	693413.3049197667
0.7488769697417158	682359.2382221627
0.749001782570006	671303.3291801225
0.7491266162004343	660245.5774865785
0.7492514706364677	649185.9828344139
0.7493763458815739	638124.5449164629
0.7495012419392209	627264.1072028739
0.7496261588128773	616693.4715190926
0.7497510965060128	606121.0740626898
0.7498760550220971	595546.9145400482
0.7500010343646007	584970.9926574846
0.7501260345369949	574393.3081212686
0.750251055542751	563813.860637642
0.7503760973853414	553232.6499127615
0.7505011600682389	543046.9508125487
0.750626243594917	533191.2697701064
0.7507513479688495	523333.9461141719
0.7508764731935109	513474.97957095806
0.7510016192723765	503614.3698666512
0.7511267862089218	493752.1167274028
0.7512519740066232	483888.2198792943
0.7513771826689577	474022.6790483722
0.7515024121994025	464824.73182166566
0.7516276626014359	455937.2879036575
0.751752933878536	447048.3627450119
0.7518782260341824	438157.9560988369
0.7520035390718548	429266.06771821686
0.7521288729950334	420372.6973562047
0.7522542278071992	411477.84476579813
0.7523796035118337	402581.5096999555
0.7525050001124189	394126.4528999628
0.7526304176124378	385766.2775367013
0.7527558560153731	377404.70881089
0.752881315324709	369041.74649028294
0.7530067955439299	360677.39034261944
0.7531322966765205	352311.6401356092
0.7532578187259665	343944.4956368952
0.7533833616957542	335575.95661409834
0.75350892558937	327839.1602212207
0.7536345104103016	320130.8462917029
0.7537601161620366	312421.24764320074
0.7538857428480638	304710.36406158307
0.7540113904718717	296998.19533271174
0.7541370590369503	289284.74124238733
0.7542627485467898	281570.0015763764
0.7543884590048808	273948.6040199231
0.7545141904147151	267269.576366841
0.7546399427797842	260589.43554249415
0.7547657161035808	253908.1813613422
0.754891510389598	247225.81363782712
0.7550173256413296	240542.33218635537
0.7551431618622698	233857.73682131004
0.7552690190559135	227172.02735703863
0.7553948972257561	220648.01719567014
0.7555207963752938	214669.4236171851
0.755646716508023	208689.83360644037
0.755772657627441	202709.24699735848
0.7558986197370455	196727.66362384084
0.756024602840335	190745.0833197625
0.7561506069408084	184761.50591896684
0.7562766320419653	178776.9312552657
0.7564026781473054	173026.15251971205
0.75652874526033	167687.58898879908
0.7566548333845401	162348.13569729484
0.7567809425234375	157007.7924969106
0.7569070726805247	151666.55923932933
0.7570332238593047	146324.43577620585
0.7571593960632813	140981.42195916676
0.7572855892959586	135637.51763982454
0.7574118035608413	130812.56787063138
0.7575380388614347	126495.39546850935
0.7576642952012449	122177.50353765201
0.7577905725837782	117858.89195814576
0.7579168710125422	113539.56061003523
0.7580431904910444	109219.50937336507
0.7581695310227928	104898.73812816091
0.7582958926112967	100577.24675441046
0.7584222752600652	96736.0541757191
0.7585486789726085	93170.54848112771
0.7586751037524372	89604.44853558589
0.7588015496030628	86037.75424004617
0.7589280165279966	82470.46549546426
0.7590545045307512	78902.58220275825
0.7591810136148396	75334.10426283687
0.7593075437837755	71765.03157658692
0.7594340950410726	68761.62652739711
0.7595606673902461	65922.01436610601
0.7596872608348112	63081.928936118544
0.7598138753782836	60241.37015856253
0.75994051102418	57400.33795454093
0.7600671677760173	54558.83224515422
0.7601938456373134	51716.85295148044
0.7603205446115863	48874.39999459263
0.7604472647023548	46612.86186570999
0.7605740059131385	44408.736768229515
0.7607007682474575	42204.24431656398
0.7608275517088319	39999.384449494726
0.7609543563007835	37794.157105776074
0.7610811820268336	35588.56222416813
0.7612080288905045	33382.59974341748
0.7613348968953197	31201.240313797705
0.7614617860448022	29531.86118881662
0.7615886963424764	27862.203833979096
0.7617156277918667	26192.26820291738
0.7618425803964988	24522.05424924911
0.7619695541598982	22851.561926589013
0.7620965490855914	21180.791188543033
0.7622235651771058	19509.74198870545
0.7623506024379685	17949.422429567017
0.7624776608717082	16875.403651304205
0.7626047404818536	15801.205869911631
0.7627318412719337	14726.829055557337
0.762858963245479	13652.273178399975
0.7629861064060198	12577.538208596325
0.7631132707570876	11502.624116296589
0.7632404563022137	10427.530871649105
0.7633676630449308	9483.067407164099
0.7634948909887717	8816.895381868322
0.7636221401372697	8150.61232790253
0.7637494104939593	7484.218226760448
0.7638767020623748	6817.713059935804
0.7640040148460518	6151.0968089159305
0.7641313488485262	5484.369455187579
0.7642587040733344	4817.530980232849
0.7643860805240132	4284.173171039303
0.7645134782041005	3910.1415397543365
0.7646408971171346	3536.0475698640003
0.764768337266654	3161.891250978819
0.7648957986561985	2787.6725727070357
0.7650232812893079	2413.3915246555903
0.7651507851695227	2039.048096429466
0.7652783103003843	1664.6422776320169
