#wavelength	surface flux
0.8	571436134.684544
0.8002000000000001	587387296.7690914
0.8004000500000003	603341721.4593178
0.8006001500125003	619300127.4306295
0.8008003000500035	635262523.0034351
0.8010005001250161	651228909.1751413
0.8012007502500472	667199286.9433675
0.8014010504376099	682923232.0521919
0.8016014007002193	698567223.3380108
0.8018018010503944	714215125.621651
0.8020022515006572	729866939.8808693
0.8022027520635323	745522667.0936389
0.8024033027515483	764475173.951663
0.8026039035772362	786659299.0029361
0.8028045545531306	808848970.0854731
0.8030052556917691	831044188.5857913
0.803206007005692	853244955.8907151
0.8034068085074435	872649036.4948297
0.8036076602095705	884202887.0641432
0.8038085621246229	895759626.0960898
0.8040095142651542	907319254.3128017
0.8042105166437206	918881772.4365638
0.8044115692728815	930442089.6613336
0.8046126721651998	941786301.3531581
0.8048138253332411	953133349.0978966
0.8050150287895745	964483233.6045817
0.805216282546772	975835955.5823905
0.8054175866174087	987191515.7406878
0.8056189410140631	995624936.175513
0.8058203457493168	1003232506.308137
0.8060218008357541	1010841978.3332844
0.8062233062859632	1018453352.7264417
0.8064248621125346	1026066629.9631922
0.806626468328063	1034125246.3456938
0.8068281249451449	1042566735.1128916
0.8070298319763813	1051010334.2522914
0.8072315894343755	1059456044.2914699
0.8074333973317341	1067903865.7581613
0.8076352556810671	1077913889.256653
0.8078371644949874	1091681812.581236
0.8080391237861113	1105453177.886653
0.8082411335670578	1119227986.0333881
0.8084431938504498	1133006237.8821743
0.8086453046489125	1146880932.3040116
0.8088474659750746	1162490551.7335894
0.8090496778415686	1178104073.5680454
0.809251940261029	1193721498.782949
0.8094542532460944	1209342828.3541694
0.8096566168094059	1224968063.257765
0.8098590309636085	1235945304.0823781
0.8100614957213493	1245836473.9473581
0.8102640110952797	1255730116.604806
0.8104665770980536	1265626232.672922
0.8106691937423283	1275524822.7700586
0.8108718610407639	1281840676.069629
0.8110745790060241	1285416685.3151069
0.8112773476507757	1288993588.562899
0.8114801669876885	1292571386.0365026
0.8116830370294355	1296150077.9594722
0.8118859577886929	1300651083.803967
0.8120889292781401	1307067042.9708264
0.8122919515104597	1313484606.1274772
0.8124950244983374	1319903773.6749175
0.8126981482544621	1326324546.0142436
0.8129013227915257	1333137846.2738805
0.8131045481222237	1344428974.8514192
0.8133078242592543	1355722926.2111037
0.8135111512153191	1367019701.058625
0.813714529003123	1378319300.0998595
0.8139179576353739	1389621724.0408564
0.8141214371247829	1394586865.9615355
0.8143249674840641	1398323795.6594791
0.814528548725935	1402061659.589845
0.8147321808631167	1405800457.9861984
0.8149358639083326	1409540191.0821497
0.8151395978743097	1406602425.0832088
0.8153433827737784	1399151694.410414
0.8155472186194719	1391699101.0549533
0.8157511054241268	1384244644.5511553
0.815955043200483	1376788324.4332263
0.8161590319612831	1356764378.993101
0.8163630717192736	1313710201.7935321
0.8165671624872033	1270645261.049711
0.8167713042778252	1227569554.0706615
0.8169754971038948	1184483078.1648462
0.8171797409781707	1135410288.8906343
0.8173840359134155	1038620630.9518996
0.8175883819223938	941806775.5987918
0.8177927790178745	844968716.7817903
0.8179972272126291	748106448.4500592
0.8182017265194322	651219964.5513428
0.8184062769510622	628811983.520866
0.8186108785203001	617863267.0983502
0.8188155312399301	606911813.4967436
0.8190202351227402	595957622.0317241
0.819224990181521	585000692.0188454
0.8194297964290664	623774815.3089753
0.8196346538781738	692535587.3625716
0.8198395625416434	761313549.609154
0.8200445224322789	830108706.346327
0.820249533562887	898921061.8726639
0.8204545959462778	946643002.9250462
0.8206597095952644	960404733.8261046
0.8208648745226633	974169905.1598989
0.8210700907412941	987938517.7865244
0.8212753582639793	1001710572.5662928
0.8214806771035456	1015916191.9554129
0.8216860472728215	1032775435.8151058
0.8218914687846397	1049638894.4857644
0.822096941651836	1066506569.0210994
0.822302465887249	1083378460.4750586
0.8225080415037209	1100254569.9018903
0.8227136685140968	1117418898.8526843
0.8229193469312254	1134619758.8776767
0.8231250767679583	1151824919.1176813
0.8233308580371503	1169034380.647736
0.8235366907516598	1186248144.5431864
0.8237425749243477	1207251848.9809656
0.8239485105680789	1230267258.5578856
0.824154497695721	1253288421.9871855
0.824360536320145	1276315340.7073467
0.8245666264542252	1299348016.157187
0.8247727681108388	1311188757.9829037
0.8249789613028664	1306995257.7980568
0.8251852060431922	1302800709.2381601
0.825391502344703	1298605112.0411253
0.8255978502202894	1294408465.9447873
0.8258042496828445	1285220461.1354353
0.8260107007452654	1251794369.5508265
0.8262172034204517	1218359921.4433558
0.8264237577213068	1184917114.7238493
0.8266303636607373	1151465947.302648
0.8268370212516525	1118006417.0896082
0.8270437305069654	1108075807.1705072
0.8272504914395923	1099982000.4631965
0.8274573040624523	1091886170.304207
0.8276641683884679	1083788316.187685
0.8278710844305652	1075688437.607624
0.8280780522016729	1069333369.7936715
0.8282850717147234	1063775188.5927143
0.8284921429826521	1058215617.8464626
0.8286992660183978	1052654657.20752
0.8289064408349024	1047092306.3284216
0.8291136674451112	1040791347.6140074
0.8293209458619727	1033559219.6521703
0.8295282760984382	1026325283.6583524
0.829735658167463	1019089539.1805276
0.8299430920820048	1011851985.7665926
0.8301505778550254	1006921160.1901146
0.8303581154994891	1011203150.0024669
0.8305657050283641	1015486210.3122766
0.8307733464546212	1019770341.3871604
0.8309810397912352	1024055543.4948199
0.8311887850511829	1028341816.9029979
0.8313965822474458	1039361498.2226691
0.8316044313930077	1050696417.8047174
0.8318123325008561	1062034171.1166719
0.8320202855839813	1073374758.8669487
0.8322282906553774	1084718181.7641642
0.8324363477280413	1092545167.7051764
0.8326444568149735	1098957263.5741105
0.8328526179291771	1105370962.4670043
0.8330608310836596	1111786264.784631
0.8332690962914304	1118203170.9278286
0.8334774135655034	1119154685.8624375
0.833685782918895	1113999625.242615
0.8338942043646247	1108843275.8576407
0.834102677915716	1103685637.3853164
0.834311203585195	1098526709.5033784
0.8345197813860912	1093731605.3296533
0.8347284113314379	1090164308.3634927
0.8349370934342709	1086596119.5730927
0.8351458277076294	1083027038.7354994
0.8353546141645565	1079457065.6276906
0.8355634528180977	1075886200.0266066
0.8357723436813022	1081072111.7939007
0.8359812867672226	1086367454.950035
0.8361902820889144	1091664121.941956
0.8363993296594368	1096962113.1006265
0.8366084294918518	1102261428.7570884
0.8368175815992247	1097404987.9736958
0.8370267859946247	1089049129.966209
0.8372360426911234	1080691182.9942229
0.8374453517017962	1072331146.5354948
0.8376547130397217	1063969020.067653
0.8378641267179816	1063881722.266837
0.8380735927496613	1072007258.0788879
0.8382831111478488	1080134825.274887
0.8384926819256358	1088264424.3626812
0.8387023050961173	1096396055.850254
0.8389119806723914	1099185442.9997551
0.8391217086675596	1086934985.028503
0.8393314890947265	1074681464.4427671
0.8395413219670003	1062424880.4768838
0.8397512072974922	1050165232.3650005
0.8399611450993165	1038270235.0421983
0.8401711353855914	1044632894.2720907
0.8403811781694378	1050997144.1667887
0.8405912734639802	1057362985.1239619
0.8408014212823464	1063730417.5413775
0.8410116216376671	1070099441.8168967
0.8412218745430766	1056425999.6399382
0.8414321800117124	1036917091.4918023
0.8416425380567154	1017403306.1166201
0.8418529486912297	997884642.2950892
0.8420634119284025	978361098.8076196
0.8422739277813847	974937686.6072396
0.8424844962633302	985702559.2127537
0.842695117387396	996470123.0364053
0.8429057911667428	1007240378.7510134
0.8431165176145345	1018013327.0295553
0.8433272967439382	1002492216.6082062
0.8435381285681244	922822155.8417141
0.8437490131002665	843132177.5600482
0.8439599503535415	763422276.7838616
0.84417094034113	683692448.5324233
0.8443819830762154	606168125.8485885
0.8445930785719846	573456061.3370347
0.8448042268416277	540735818.809371
0.8450154278983382	508007396.22107947
0.8452266817553128	475270791.5271435
0.8454379884257517	442526002.6820302
0.8456493479228583	436311839.9320957
0.845860760259839	436486988.59680855
0.846072225449904	436662181.04868764
0.8462837435062666	436837417.29867965
0.8464953144421433	437012697.3577343
0.8467069382707537	442228871.69155806
0.8469186150053215	451375538.1849514
0.847130344659073	460524491.34497064
0.8473421272452377	469675731.74327093
0.8475539627770492	478829259.95168006
0.8477658512677435	489449224.83512133
0.8479777927305605	503180770.80782664
0.8481897871787432	516915749.6670217
0.848401834625538	530654162.27093923
0.8486139350841944	544396009.4779992
0.8488260885679657	557602569.2791859
0.8490382950901076	564245590.210614
0.8492505546638802	570890271.8972783
0.8494628673025462	577536614.754362
0.8496752330193721	584184619.1971697
0.8498876518276269	590834285.6410792
0.8501001237405839	593972972.57464
0.8503126487715191	596411259.1593525
0.850525226933712	598850155.3157098
0.8507378582404455	601289661.1961061
0.8509505427050057	603729776.952974
0.8511632803406821	606998234.8357399
0.8513760711607672	610834354.7477535
0.8515889151785576	614671433.6897511
0.8518018124073523	618509471.901481
0.8520147628604541	622348469.6227616
0.8522277665511693	627799332.8445872
0.8524408234928071	636230734.2474402
0.8526539336986805	644664243.5006464
0.8528670971821053	653099861.1311662
0.8530803139564007	661537587.6660838
0.8532935840348901	670193141.5921943
0.8535069074308987	680672707.8072059
0.8537202841577566	691154893.9137801
0.8539337142287962	701639700.566882
0.8541471976573534	712127128.4216408
0.8543607344567677	722617178.133365
0.8545743246403821	727366909.1225821
0.8547879682215422	731205782.8378983
0.8550016652135977	735045616.2716428
0.8552154156299011	738886409.6637459
0.8554292194838088	742728163.2541999
0.8556430767886797	745019205.9248813
0.855856987557877	746368687.4896202
0.8560709518047664	747718506.4247494
0.8562849695427177	749068662.8146129
0.8564990407851035	750419156.7435743
0.8567131655452999	752143480.0329769
0.8569273438366862	754480213.0786967
0.8571415756726455	756817530.3076783
0.8573558610665638	759155431.8659682
0.8575702000318304	761493917.899645
0.8577845925818384	764829971.818118
0.857999038729984	774394384.5043099
0.8582135384896665	783961188.2936711
0.858428091874289	793530383.7839803
0.8586426988972576	803101971.5731595
0.8588573595719821	812675952.2592893
0.8590720739118751	821105663.8221493
0.8592868419303532	829402287.8639718
0.8595016636408359	837700986.0618049
0.8597165390567462	846001758.9341848
0.8599314681915105	854304606.9997847
0.8601464510585584	862173042.1152306
0.860361487671323	869811759.2045553
0.8605765780432408	877452385.9731503
0.8607917221877518	885094922.8984436
0.8610069201182988	892739370.4579661
0.8612221718483286	897192202.5084679
0.8614374773912907	897042246.9626293
0.8616528367606385	896892253.9279044
0.8618682499698288	896742223.3949207
0.8620837170323213	896592155.3543037
0.8622992379615795	896765989.9457688
0.8625148127710699	898542923.6862499
0.8627304414742627	900320301.6601663
0.8629461240846313	902098123.9785764
0.8631618606156526	903876390.7525663
0.8633776510808066	905655102.0932493
0.8635934954935769	923370893.5891671
0.8638093938674504	942397468.8666104
0.8640253462159173	961428800.7878724
0.8642413525524714	980464890.5421144
0.8644574128906095	999505739.3187909
0.8646735272438323	1002650699.2466087
0.8648896956256433	998402203.0149482
0.8651059180495498	994152644.6592298
0.8653221945290621	989902023.9139264
0.8655385250776946	985650340.5134306
0.8657549097089641	991352147.1897136
0.8659713484363913	1009799395.4179267
0.8661878412735006	1028251255.4582053
0.866404388233819	1046707728.4634916
0.8666209893308775	1065168815.5870206
0.8668376445782103	1080344532.2532125
0.8670543539893549	1082095940.95813
0.8672711175778525	1083847787.5152247
0.8674879353572469	1085600072.033957
0.8677048073410862	1087352794.6238194
0.8679217335429217	1089105955.3943305
0.8681387139763074	1083995217.7027707
0.8683557486548015	1078542199.5653753
0.8685728375919655	1073087818.1734387
0.8687899808013633	1067632073.186166
0.8690071782965637	1062174964.2626394
0.869224430091138	1056353515.1807028
0.8694417361986609	1050382916.3093003
0.8696590966327107	1044410824.7881813
0.869876511406869	1038437240.2441816
0.8700939805347206	1032462162.3040489
0.8703115040298544	1027887723.1200898
0.870529081905862	1024915183.424995
0.8707467141763385	1021941900.5949775
0.8709644008548827	1018967874.4442526
0.8711821419550964	1015993104.786992
0.8713999374905854	1017392664.7403134
0.871617787474958	1033892470.5324062
0.8718356919218269	1050396401.2759621
0.8720536508448075	1066904458.002205
0.8722716642575187	1083416641.7426198
0.8724897321735832	1099932953.528977
0.8727078546066265	1112712671.939962
0.8729260315702784	1125438676.6210303
0.873144263078171	1138167862.8032553
0.8733625491439405	1150900231.282027
0.8735808897812266	1163635782.8529236
0.8737992850036719	1165392715.333365
0.874017734824923	1163260513.003274
0.8742362392586293	1161127777.6226013
0.874454798318444	1158994509.0580835
0.8746734120180236	1156860707.1764247
0.8748920803710283	1159820548.1134942
0.875110803391121	1167900290.7539508
0.8753295810919689	1175982053.3300722
0.875548413487242	1184065836.3468375
0.8757673005906139	1192151640.3093574
0.8759862424157616	1204796748.1033368
0.8762052389763657	1230631728.8126857
0.8764242902861098	1256473168.267194
0.8766433963586814	1282321068.081573
0.8768625572077712	1308175429.8709135
0.8770817728470732	1333891891.0774026
0.8773010432902849	1348343191.012992
0.8775203685511077	1362798103.773586
0.8777397486432454	1377256630.2623522
0.8779591835804065	1391718771.3827581
0.8781786733763015	1406184528.038425
0.8783982180446457	1397408536.3963647
0.878617817599157	1381715289.2363217
0.8788374720535569	1366018118.764496
0.8790571814215703	1350317024.0000563
0.8792769457169257	1334612003.9619253
0.879496764953355	1324986621.3453112
0.8797166391445934	1320828355.7038906
0.8799365683043796	1316669050.4960594
0.8801565524464557	1312508705.4619265
0.8803765915845676	1308347320.3415308
0.8805966857324639	1309336774.8235047
0.880816834903897	1323266454.6297474
0.881037039112623	1337199616.855947
0.8812572983724012	1351136262.372702
0.8814776126969944	1365076392.0508423
0.8816979821001687	1378511847.2577693
0.8819184065956938	1379988501.0802228
0.8821388861973429	1381465524.0661335
0.8823594209188923	1382942916.3077893
0.882580010774122	1384420677.8975048
0.8828006557768155	1385898808.9276185
0.8830213559407598	1406925852.3300028
0.8832421112797452	1432874809.4491029
0.8834629218075651	1458830253.807467
0.8836837875380171	1484792187.0269284
0.8839047084849018	1510760610.7296991
0.884125684662023	1503211772.179758
0.8843467160831886	1468796038.7778733
0.8845678027622095	1434371701.442638
0.8847889447129001	1399938758.0230622
0.8850101419490785	1365497206.367638
0.8852313944845657	1313679203.7527905
0.885452702333187	1223832173.8033943
0.8856740655087704	1133962682.096524
0.8858954840251476	1044070723.0167512
0.8861169578961539	954156290.94725
0.886338487135628	867448453.3528113
0.886560071757412	823689527.987378
0.8867817117753515	779919662.8906043
0.8870034072032955	736138855.3275368
0.8872251580550963	692347102.5626297
0.8874469643446101	648544401.8595045
0.8876688260856963	648759695.3979326
0.8878907432922178	658087397.1741381
0.8881127159780409	667417430.8757813
0.8883347441570356	676749797.0858613
0.8885568278430749	686084496.3874841
0.8887789670500358	696643752.4651326
0.8890011617917983	708072661.2126291
0.8892234120822464	719504427.1873176
0.8894457179352669	730939051.1034905
0.8896680793647509	742376533.6756516
0.8898904963845921	759049624.5774456
0.8901129690086883	785711106.5068483
0.8903354972509405	812379253.8067268
0.8905580811252535	839054068.143451
0.8907807206455347	865735551.1837233
0.8910034158256963	891157484.333532
0.8912261666796527	905269608.2436599
0.8914489732213227	919385260.1847692
0.8916718354646282	933504441.0388777
0.8918947534234944	947627151.688186
0.8921177271118502	961753393.015148
0.8923407565436284	957237987.0954226
0.8925638417327644	949679916.6745076
0.8927869826931977	942119956.7359849
0.8930101794388711	934558106.807478
0.8932334319837308	926994366.4164902
0.8934567403417267	921001745.6794301
0.8936801045268123	915985067.7012517
0.8939035245529441	910967135.5535823
0.8941270004340824	905947948.922874
0.894350532184191	900927507.4955093
0.8945741198172371	902423348.563287
0.8947977633471915	914728122.2739178
0.8950214627880284	927035972.1779757
0.8952452181537254	939346899.0445023
0.8954690294582639	951660903.642753
0.8956928967156286	964547775.6072189
0.8959168199398075	981135596.0489898
0.8961407991447926	997727563.4458754
0.8963648343445789	1014323678.8346097
0.896588925553165	1030923943.2521819
0.8968130727845534	1047528357.7358606
0.8970372760527496	1066248970.850594
0.8972615353717629	1085238523.797017
0.8974858507556059	1104232824.1316788
0.8977102222182949	1123231873.0414193
0.8979346497738496	1142235671.7133975
0.8981591334362931	1161394350.467402
0.8983836732196523	1180639920.9835389
0.8986082691379572	1199890302.8922923
0.8988329212052417	1219145497.396523
0.8990576294355432	1238405505.6993961
0.8992823938429022	1256052121.7541995
0.8995072144413631	1271297080.9247086
0.8997320912449734	1286545851.3350048
0.8999570242677847	1301798433.9378998
0.9001820135238516	1317054829.686447
0.9004070590272328	1333109148.4318585
0.9006321607919896	1353330470.5205154
0.9008573188321878	1373556847.939715
0.9010825331618959	1393788281.9532597
0.9013078037951865	1414024773.825311
0.9015331307461353	1434266324.8203194
0.9017585140288219	1436183754.1459692
0.9019839536573292	1436522922.8691854
0.9022094496457435	1436862176.3845823
0.9024350020081551	1437201514.7133584
0.9026606107586572	1437540937.8767166
0.902886275911347	1445675056.1381376
0.9031119974803249	1457568752.6209629
0.9033377754796951	1469465422.5279088
0.903563609923565	1481365066.6023264
0.903789500826046	1493267685.5877705
0.9040154482012526	1505472046.187449
0.904241452063303	1518066483.0911458
0.9044675124263188	1530664068.604066
0.9046936293044254	1543264803.513362
0.9049198027117517	1555868688.606392
0.9051460326624297	1563776226.9362364
0.9053723191705955	1551674187.5251613
0.9055986622503881	1539569122.6042447
0.9058250619159507	1527461031.4170973
0.9060515181814298	1515349913.2071457
0.9062780310609752	1503235767.2176497
0.9065046005687405	1507768557.0753186
0.906731226718883	1513231332.417506
0.9069579095255627	1518695473.4535217
0.907184649002944	1524160980.524797
0.907411445165195	1529627853.9728456
0.9076382980264862	1539511441.9877367
0.907865207600993	1551231186.6835093
0.9080921739028933	1562953861.3154528
0.9083191969463691	1574679466.6160522
0.9085462767456058	1586408003.3179824
0.9087734133147922	1600197316.9321384
0.9090006066681211	1616366914.1008406
0.909227856819788	1632540553.6688135
0.9094551637839932	1648718236.6467006
0.9096825275749393	1664899964.0453272
0.9099099482068329	1679364456.165118
0.9101374256938848	1687715102.9158807
0.9103649600503083	1696067837.3283274
0.9105925512903209	1704422659.9243755
0.9108201994281437	1712779571.2260816
0.9110479044780008	1721138571.7556033
0.9112756664541204	1737671550.547694
0.911503485370734	1754395715.6718624
0.9117313612420768	1771124061.8373117
0.9119592940823873	1787856590.0892973
0.912187283905908	1804593301.4733512
0.9124153307268845	1812762379.1188142
0.9126434345595664	1817822430.166235
0.9128715954182063	1822883746.226413
0.9130998133170609	1827946327.6156087
0.9133280882703902	1833010174.6501513
0.913556420292458	1845720304.9130666
0.9137848093975312	1866318031.897317
0.9140132555998806	1886920908.3133109
0.9142417589137806	1907528935.4484096
