#wavelength	surface flux
0.8	57086298.985087715
0.8002000000000001	57775074.39912661
0.8004000500000003	58695646.4242174
0.8006001500125003	59618788.22698497
0.8008003000500035	60542160.815203294
0.8010005001250161	61465764.246569104
0.8012007502500472	62389598.578791425
0.8014010504376099	63801347.86000189
0.8016014007002193	65376809.316024676
0.8018018010503944	66952664.63741145
0.8020022515006572	68528913.92262928
0.8022027520635323	70105557.27016707
0.8024033027515483	71693766.17434616
0.8026039035772362	73293319.6632569
0.8028045545531306	74893273.04053995
0.8030052556917691	76493626.40616807
0.803206007005692	78094379.8601362
0.8034068085074435	79458734.32278119
0.8036076602095705	80159647.03859618
0.8038085621246229	80860734.98258957
0.8040095142651542	81561998.19856939
0.8042105166437206	82263436.73035297
0.8044115692728815	82982939.01165
0.8046126721651998	84472032.33438478
0.8048138253332411	85961497.93044907
0.8050150287895745	87451335.89291374
0.805216282546772	88941546.31486864
0.8054175866174087	90432129.28942825
0.8056189410140631	92458775.77189037
0.8058203457493168	94637564.17406677
0.8060218008357541	96816897.27334093
0.8062233062859632	98996775.20589097
0.8064248621125346	101177198.10792267
0.806626468328063	103374981.94440134
0.8068281249451449	105587757.98942403
0.8070298319763813	107801087.22846068
0.8072315894343755	110014969.79980545
0.8074333973317341	112229405.84179388
0.8076352556810671	114600282.35615598
0.8078371644949874	117346997.2999917
0.8080391237861113	120094398.92256403
0.8082411335670578	122842487.39554031
0.8084431938504498	125591262.89063771
0.8086453046489125	128399042.11349772
0.8088474659750746	132293272.66313621
0.8090496778415686	136188476.7704173
0.809251940261029	140084654.6787224
0.8094542532460944	143981806.63150793
0.8096566168094059	147879932.8722772
0.8098590309636085	151816589.34374136
0.8100614957213493	155763020.19735414
0.8102640110952797	159710437.65868086
0.8104665770980536	163658841.97437444
0.8106691937423283	167608233.39114845
0.8108718610407639	171231976.25192624
0.8110745790060241	174606863.71666905
0.8112773476507757	177982594.903281
0.8114801669876885	181359170.02268872
0.8116830370294355	184736589.2858743
0.8118859577886929	188300160.58187062
0.8120889292781401	192249514.92098925
0.8122919515104597	196199856.59869236
0.8124950244983374	200151185.86181512
0.8126981482544621	204103502.95725307
0.8129013227915257	208159427.48503125
0.8131045481222237	213391373.27548218
0.8133078242592543	218624627.05238128
0.8135111512153191	223859189.1427232
0.813714529003123	229095059.87358832
0.8139179576353739	234332239.5721371
0.8141214371247829	239515843.64860374
0.8143249674840641	244690100.51752326
0.814528548725935	249865650.9506569
0.8147321808631167	255042495.2714058
0.8149358639083326	260220633.8032333
0.8151395978743097	264185782.43815166
0.8153433827737784	267331500.85130367
0.8155472186194719	270478005.6940578
0.8157511054241268	273625297.16302204
0.815955043200483	276773375.45485574
0.8161590319612831	279084352.3170411
0.8163630717192736	279860578.4746419
0.8165671624872033	280636998.68878126
0.8167713042778252	281413613.0079749
0.8169754971038948	282190421.4807488
0.8171797409781707	281432466.29370415
0.8173840359134155	268420277.61526728
0.8175883819223938	255404835.8896758
0.8177927790178745	242386140.30364546
0.8179972272126291	229364190.04371524
0.8182017265194322	216338984.29623315
0.8184062769510622	213424227.03309616
0.8186108785203001	212065090.55683088
0.8188155312399301	210705614.29644838
0.8190202351227402	209345798.16699928
0.819224990181521	207985642.08351865
0.8194297964290664	209012789.85940245
0.8196346538781738	211479342.5467634
0.8198395625416434	213946511.87229517
0.8200445224322789	216414297.9901594
0.820249533562887	218882701.05455235
0.8204545959462778	218065352.44868195
0.8206597095952644	211958477.68899235
0.8208648745226633	205850076.2106081
0.8210700907412941	199740147.63185522
0.8212753582639793	193628691.57096386
0.8214806771035456	188578148.65510446
0.8216860472728215	190072274.13928863
0.8218914687846397	191566773.15484393
0.822096941651836	193061645.7951539
0.822302465887249	194556892.15362307
0.8225080415037209	196052512.32368267
0.8227136685140968	199681360.8055907
0.8229193469312254	203553240.0512343
0.8231250767679583	207426087.2666906
0.8233308580371503	211299902.69394866
0.8235366907516598	215174686.5750664
0.8237425749243477	220993607.41789943
0.8239485105680789	227843896.33155438
0.824154497695721	234695897.81743333
0.824360536320145	241549612.30368507
0.8245666264542252	248405040.21855807
0.8247727681108388	252012101.28223312
0.8249789613028664	250965336.83040887
0.8251852060431922	249918310.68747073
0.825391502344703	248871022.78799734
0.8255978502202894	247823473.06654814
0.8258042496828445	245502453.2163672
0.8260107007452654	236997427.62300703
0.8262172034204517	228490275.77325723
0.8264237577213068	219980997.13554275
0.8266303636607373	211469591.17816508
0.8268370212516525	202956057.36930227
0.8270437305069654	201114292.4118779
0.8272504914395923	199793588.7074828
0.8274573040624523	198472554.82716134
0.8276641683884679	197151190.68837094
0.8278710844305652	195829496.20854425
0.8280780522016729	194908802.55310473
0.8282850717147234	194171326.49451408
0.8284921429826521	193433666.06690955
0.8286992660183978	192695821.22419754
0.8289064408349024	191957791.92027536
0.8291136674451112	190945838.55943438
0.8293209458619727	189588460.35512704
0.8295282760984382	188230742.80627042
0.829735658167463	186872685.82802504
0.8299430920820048	185514289.3355368
0.8301505778550254	184579800.41249636
0.8303581154994891	185338372.55260888
0.8305657050283641	186097134.33575723
0.8307733464546212	186856085.80935073
0.8309810397912352	187615227.02081388
0.8311887850511829	188374558.01757842
0.8313965822474458	190735394.4319934
0.8316044313930077	193171146.58236322
0.8318123325008561	195607507.67077294
0.8320202855839813	198044477.84945354
0.8322282906553774	200482057.27067906
0.8324363477280413	202289091.82333624
0.8326444568149735	203842477.65480423
0.8328526179291771	205396251.83272827
0.8330608310836596	206950414.45419914
0.8332690962914304	208504965.61632332
0.8334774135655034	208987380.30123854
0.833685782918895	208271869.81543005
0.8338942043646247	207556180.45200056
0.834102677915716	206840312.1662297
0.834311203585195	206124264.91338795
0.8345197813860912	205536066.61890718
0.8347284113314379	205378675.39512628
0.8349370934342709	205221244.82353953
0.8351458277076294	205063774.89431006
0.8353546141645565	204906265.59759802
0.8355634528180977	204748716.92356187
0.8357723436813022	206343592.08717883
0.8359812867672226	207960504.4251166
0.8361902820889144	209577820.99113804
0.8363993296594368	211195541.88630143
0.8366084294918518	212813667.2116892
0.8368175815992247	212824161.93266636
0.8370267859946247	212280835.4602005
0.8372360426911234	211737373.15611666
0.8374453517017962	211193774.98645684
0.8376547130397217	210650040.91725472
0.8378641267179816	211486900.75137672
0.8380735927496613	213694012.72051382
0.8382831111478488	215901676.4676419
0.8384926819256358	218109892.13070557
0.8387023050961173	220318659.84768695
0.8389119806723914	221594836.65578514
0.8391217086675596	220245162.90831324
0.8393314890947265	218895151.74240553
0.8395413219670003	217544803.07370618
0.8397512072974922	216194116.81783876
0.8399611450993165	214910797.1364251
0.8401711353855914	216989325.28608963
0.8403811781694378	219068373.06779101
0.8405912734639802	221147940.61143833
0.8408014212823464	223228028.04697254
0.8410116216376671	225308635.50436538
0.8412218745430766	222664974.00631347
0.8414321800117124	218645920.2859843
0.8416425380567154	214625861.80222315
0.8418529486912297	210604798.30384007
0.8420634119284025	206582729.53958577
0.8422739277813847	206419668.64079309
0.8424844962633302	209657388.54981503
0.842695117387396	212895917.8888101
0.8429057911667428	216135256.86014006
0.8431165176145345	219375405.6662144
0.8433272967439382	217537358.78097412
0.8435381285681244	203309749.00310495
0.8437490131002665	189078582.3227945
0.8439599503535415	174843857.85082287
0.84417094034113	160605574.6977229
0.8443819830762154	146887766.179606
0.8445930785719846	143723242.08278042
0.8448042268416277	140557926.85493234
0.8450154278983382	137391820.29827774
0.8452266817553128	134224922.21498418
0.8454379884257517	131057232.40716946
0.8456493479228583	130679641.50702403
0.845860760259839	130974036.26322204
0.846072225449904	131268504.61810908
0.8462837435062666	131563046.5900849
0.8464953144421433	131857662.19755389
0.8467069382707537	132586836.75395525
0.8469186150053215	133654861.54765543
0.847130344659073	134723153.34755436
0.8473421272452377	135791712.2204022
0.8475539627770492	136860538.23296934
0.8477658512677435	138061486.16822317
0.8479777927305605	139542710.46737298
0.8481897871787432	141024305.0725972
0.848401834625538	142506270.07647356
0.8486139350841944	143988605.57159996
0.8488260885679657	145422271.45592168
0.8490382950901076	146258513.1929064
0.8492505546638802	147094963.9903258
0.8494628673025462	147931623.90044427
0.8496752330193721	148768492.97554147
0.8498876518276269	149605571.26790634
0.8501001237405839	149896192.78301787
0.8503126487715191	150077762.80955437
0.850525226933712	150259378.22859737
0.8507378582404455	150441039.05149513
0.8509505427050057	150622745.28959876
0.8511632803406821	150480972.22536868
0.8513760711607672	150117608.52138713
0.8515889151785576	149754153.97647902
0.8518018124073523	149390608.567935
0.8520147628604541	149026972.27303904
0.8522277665511693	149061813.61257726
0.8524408234928071	149833768.00589767
0.8526539336986805	150605915.3878166
0.8528670971821053	151378255.80658108
0.8530803139564007	152150789.31044936
0.8532935840348901	152908293.79228815
0.8535069074308987	153537428.76930028
0.8537202841577566	154166721.03005722
0.8539337142287962	154796170.61387938
0.8541471976573534	155425777.56009713
0.8543607344567677	156055541.90805155
0.8545743246403821	154539018.38406485
0.8547879682215422	152681235.68084484
0.8550016652135977	150822988.53194928
0.8552154156299011	148964276.8212664
0.8554292194838088	147105100.4326545
0.8556430767886797	145975338.10153812
0.855856987557877	145288456.49128234
0.8560709518047664	144601403.16062447
0.8562849695427177	143914178.06663367
0.8564990407851035	143226781.16636917
0.8567131655452999	142277021.0886582
0.8569273438366862	140897414.32956266
0.8571415756726455	139517462.6687771
0.8573558610665638	138137166.02007586
0.8575702000318304	136756524.2972139
0.8577845925818384	136080766.7509941
0.857999038729984	139809962.51344025
0.8582135384896665	143540090.57482615
0.858428091874289	147271151.1682276
0.8586426988972576	151003144.52677643
0.8588573595719821	154736070.8836662
0.8590720739118751	154668802.79150385
0.8592868419303532	154153353.57104102
0.8595016636408359	153637775.48827305
0.8597165390567462	153122068.5109846
0.8599314681915105	152606232.60695168
0.8601464510585584	151497543.52540174
0.860361487671323	150073963.39398578
0.8605765780432408	148650027.36753735
0.8607917221877518	147225735.35708115
0.8610069201182988	145801087.27362272
0.8612221718483286	145098746.76122844
0.8614374773912907	145438048.23311037
0.8616528367606385	145777434.53036016
0.8618682499698288	146116905.67418447
0.8620837170323213	146456461.68579468
0.8622992379615795	146653927.05028084
0.8625148127710699	146147869.5229049
0.8627304414742627	145641685.48114705
0.8629461240846313	145135374.8933787
0.8631618606156526	144628937.72796336
0.8633776510808066	144122373.95325676
0.8635934954935769	145594822.68615866
0.8638093938674504	147229873.14679262
0.8640253462159173	148865332.3700417
0.8642413525524714	150501200.45809656
0.8644574128906095	152137477.5131731
0.8646735272438323	150434190.3799123
0.8648896956256433	147177297.31381875
0.8651059180495498	143919590.02445853
0.8653221945290621	140661068.30827907
0.8655385250776946	137401731.961666
0.8657549097089641	137244330.9822364
0.8659713484363913	141059092.97339776
0.8661878412735006	144874808.65505868
0.866404388233819	148691478.2656395
0.8666209893308775	152509102.0436212
0.8668376445782103	155781987.5982001
0.8670543539893549	156828442.7381354
0.8672711175778525	157875159.49185637
0.8674879353572469	158922137.9247646
0.8677048073410862	159969378.10228145
0.8679217335429217	161016880.08984333
0.8681387139763074	158139536.11158675
0.8683557486548015	155066483.43987286
0.8685728375919655	151992662.50498724
0.8687899808013633	148918073.1148746
0.8690071782965637	145842715.07741046
0.869224430091138	145316130.8330918
0.8694417361986609	145826820.61695015
0.8696590966327107	146337638.07325435
0.869876511406869	146848583.23392266
0.8700939805347206	147359656.1308809
0.8703115040298544	148632817.89248317
0.870529081905862	150777439.90487072
0.8707467141763385	152922598.07276064
0.8709644008548827	155068292.53019243
0.8711821419550964	157214523.41123724
0.8713999374905854	159476472.42818865
0.871617787474958	162136518.52222374
0.8718356919218269	164797229.62778476
0.8720536508448075	167458605.91112235
0.8722716642575187	170120647.53852922
0.8724897321735832	172783354.6763441
0.8727078546066265	176365991.44042036
0.8729260315702784	179963508.8839076
0.873144263078171	183561925.70675182
0.8733625491439405	187161242.13380212
0.8735808897812266	190761458.3899606
0.8737992850036719	191807587.85122463
0.874017734824923	191949044.5140188
0.8742362392586293	192090536.54097864
0.874454798318444	192232063.9409452
0.8746734120180236	192373626.72276175
0.8748920803710283	192717944.69970083
0.875110803391121	193266062.8430761
0.8753295810919689	193814318.01598755
0.875548413487242	194362710.2526922
0.8757673005906139	194911239.58745605
0.8759862424157616	196722754.06884032
0.8762052389763657	202188831.75540945
0.8764242902861098	207656275.9613964
0.8766433963586814	213125087.02843633
0.8768625572077712	218595265.2982447
0.8770817728470732	224038609.76388028
0.8773010432902849	227281424.9146696
0.8775203685511077	230525050.76925126
0.8777397486432454	233769487.53029254
0.8779591835804065	237014735.400528
0.8781786733763015	240260794.58272672
0.8783982180446457	240787785.14459756
0.878617817599157	240505793.95236424
0.8788374720535569	240223732.262333
0.8790571814215703	239941600.05687934
0.8792769457169257	239659397.31837428
0.879496764953355	239970979.66198906
0.8797166391445934	240816555.12021977
0.8799365683043796	241662341.9723151
0.8801565524464557	242508340.27112344
0.8803765915845676	243354550.06950727
0.8805966857324639	244194486.88163054
0.880816834903897	245018346.46070284
0.881037039112623	245842412.0046702
0.8812572983724012	246666683.5650235
0.8814776126969944	247491161.19326726
0.8816979821001687	248446813.39595374
0.8819184065956938	252485723.98773107
0.8821388861973429	256525644.30716053
0.8823594209188923	260566574.6066659
0.882580010774122	264608515.13874435
0.8828006557768155	268651466.15595806
0.8830213559407598	276605313.1541261
0.8832421112797452	285544524.4408491
0.8834629218075651	294485970.5303885
0.8836837875380171	303429651.9814529
0.8839047084849018	312375569.3528815
0.884125684662023	313287116.46264124
0.8843467160831886	307758577.5490569
0.8845678027622095	302228656.5007441
0.8847889447129001	296697352.9721682
0.8850101419490785	291164666.6177112
0.8852313944845657	280502609.16359353
0.885452702333187	258613349.57168597
0.8856740655087704	236718617.66488364
0.8858954840251476	214818412.0751105
0.8861169578961539	192912731.43395
0.886338487135628	172204569.20559785
0.886560071757412	167499971.58882016
0.8867817117753515	162794197.8226384
0.8870034072032955	158087247.61301294
0.8872251580550963	153379120.66584063
0.8874469643446101	148669816.6869286
0.8876688260856963	148773176.05791435
0.8878907432922178	149872847.28958926
0.8881127159780409	150972793.43907136
0.8883347441570356	152073014.57509217
0.8885568278430749	153173510.7663958
0.8887789670500358	154318036.0007199
0.8890011617917983	155493885.2433196
0.8892234120822464	156670028.44823048
0.8894457179352669	157846465.68894163
0.8896680793647509	159023197.03896388
0.8898904963845921	161031950.91804236
0.8901129690086883	164628166.5636771
0.8903354972509405	168225281.26322234
0.8905580811252535	171823295.24144527
0.8907807206455347	175422208.7231579
0.8910034158256963	178927276.40018234
0.8912261666796527	181586482.93854424
0.8914489732213227	184246354.27854148
0.8916718354646282	186906890.58637634
0.8918947534234944	189568092.02828556
0.8921177271118502	192229958.77055365
0.8923407565436284	192248496.87067372
0.8925638417327644	191835732.27258214
0.8927869826931977	191422864.4833409
0.8930101794388711	191009893.47715235
0.8932334319837308	190596819.22821233
0.8934567403417267	190556670.65352243
0.8936801045268123	190748305.61852953
0.8939035245529441	190939988.49227774
0.8941270004340824	191131719.28674448
0.894350532184191	191323498.01390976
0.8945741198172371	192630622.20305768
0.8947977633471915	195787661.06885934
0.8950214627880284	198945489.1943773
0.8952452181537254	202104106.7769248
0.8954690294582639	205263514.01386982
0.8956928967156286	208468308.70514998
0.8959168199398075	211963327.14856318
0.8961407991447926	215459219.34658813
0.8963648343445789	218955985.5176625
0.896588925553165	222453625.88027766
0.8968130727845534	225952140.6529839
0.8970372760527496	229627126.1801408
0.8972615353717629	233325001.06519207
0.8974858507556059	237023800.418965
0.8977102222182949	240723524.47257543
0.8979346497738496	244424173.45720127
0.8981591334362931	249014263.9093087
0.8983836732196523	254091410.55919918
0.8986082691379572	259169826.4957488
0.8988329212052417	264249512.03628257
0.8990576294355432	269330467.49820584
0.8992823938429022	274382810.0831081
0.8995072144413631	279391983.3579009
0.8997320912449734	284402408.92601067
0.8999570242677847	289414087.1005112
0.9001820135238516	294427018.19455576
0.9004070590272328	299509122.13150966
0.9006321607919896	304948554.36241716
0.9008573188321878	310389346.4513879
0.9010825331618959	315831498.7383783
0.9013078037951865	321275011.56344134
0.9015331307461353	326719885.2667077
0.9017585140288219	329154674.9642091
0.9019839536573292	331330689.776318
0.9022094496457435	333507248.59212834
0.9024350020081551	335684351.54764515
0.9026606107586572	337861998.77890015
0.902886275911347	340514623.75229806
0.9031119974803249	343396621.7707761
0.9033377754796951	346279340.28875875
0.903563609923565	349162779.4863696
0.903789500826046	352046939.5437818
0.9040154482012526	355701295.30345
0.904241452063303	360353351.890545
0.9044675124263188	365006571.4917858
0.9046936293044254	369660954.3979262
0.9049198027117517	374316500.8997954
0.9051460326624297	378399784.76544327
0.9053723191705955	380042305.9181499
0.9055986622503881	381685237.7011432
0.9058250619159507	383328580.21708226
0.9060515181814298	384972333.5686514
0.9062780310609752	386616497.8585572
0.9065046005687405	389999330.06245804
0.906731226718883	393479980.18616563
0.9069579095255627	396961500.47239965
0.907184649002944	400443891.13870543
0.907411445165195	403927152.40268135
0.9076382980264862	410988193.73646504
0.907865207600993	419536484.11923397
0.9080921739028933	428086911.5745961
0.9083191969463691	436639476.6368207
0.9085462767456058	445194179.840315
0.9087734133147922	451598144.1704184
0.9090006066681211	455517109.236876
0.909227856819788	459437054.0445951
0.9094551637839932	463357978.83852154
0.9096825275749393	467279883.86364514
0.9099099482068329	471604091.27435464
0.9101374256938848	477355684.76146394
0.9103649600503083	483108716.1469423
0.9105925512903209	488863185.790266
0.9108201994281437	494619094.05100644
0.9110479044780008	500376441.28880554
0.9112756664541204	509914590.9257594
0.911503485370734	519541634.0543331
0.9117313612420768	529171083.943689
0.9119592940823873	538802941.1955143
0.912187283905908	548437206.4116557
0.9124153307268845	554280110.6607361
0.9126434345595664	558747559.047053
0.9128715954182063	563216124.2954624
0.9130998133170609	567685806.6851861
0.9133280882703902	572156606.495507
0.913556420292458	579994262.5128194
0.9137848093975312	591305013.7629067
