#wavelength	surface flux
0.7	344372.663890032
0.7001166666666666	344887.8283797029
0.7002333527777778	345229.91974818916
0.700350058336574	345572.06813190324
0.7004667833462966	345914.2735403475
0.7005835278101878	346256.5359830275
0.7007002917314895	346598.8554694473
0.7008170751134447	346941.2320091149
0.7009338779592968	347283.66561153886
0.7010507002722901	347611.44728728116
0.7011675420556689	347921.3837194786
0.701284403312678	348231.3718077476
0.7014012840465635	348541.41156069835
0.7015181842605713	348851.50298694125
0.701635103957948	349161.6460950883
0.701752043141941	349471.84089375334
0.701869001815798	349782.0873915519
0.7019859799827672	350223.3282395536
0.7021029776460976	350755.77133376105
0.7022199948090387	351288.3031684849
0.7023370314748403	351820.9237585143
0.7024540876467528	352353.6331186419
0.702571163328027	352886.431263662
0.7026882585219152	353419.3182083744
0.7028053732316688	353952.2939675768
0.7029225074605406	354582.9010366864
0.7030396612117841	355251.2788321524
0.7031568344886527	355919.7680239179
0.7032740272944008	356588.36863054824
0.7033912396322832	357257.08067061333
0.7035084715055552	357925.90416268446
0.7036257229174727	358594.8391253379
0.7037429938712924	359263.8855771523
0.7038602843702709	359534.4749161529
0.7039775944176659	359737.50919867057
0.7040949240167356	359940.57732023543
0.7042122731707383	360143.6792864871
0.7043296418829335	360346.8151030666
0.7044470301565806	360549.98477561557
0.70456443799494	360753.18830977636
0.7046818654012724	360956.42571119306
0.7047993123788394	361463.76550642576
0.7049167789309024	361971.5387904115
0.7050342650607243	362479.39670327865
0.7051517707715678	362987.3392591311
0.7052692960666963	363495.3664720759
0.705386840949374	364003.4783562226
0.7055044054228656	364511.67492568423
0.7056219894904361	364970.18976175896
0.7057395931553511	365112.52063431084
0.705857216420877	365254.8752286749
0.7059748592902804	365397.2535488046
0.7060925217668288	365539.65559865447
0.70621020385379	365682.0813821793
0.7063279055544321	365824.53090333455
0.7064456268720246	365967.00416607683
0.7065633678098366	366140.88527642016
0.7066811283711383	366401.22775951977
0.7067989085592001	366661.6136330332
0.7069167083772933	366922.042904192
0.7070345278286895	367182.5155802296
0.707152366916661	367443.03166837984
0.7072702256444803	367703.59117587784
0.7073881040154211	367964.1941099608
0.7075060020327569	368257.7521350119
0.7076239196997625	368599.28989155614
0.7077418570197124	368940.88457105943
0.7078598139958823	369282.5361830093
0.7079777906315483	369624.2447368948
0.7080957869299869	369966.0102422057
0.7082138028944751	370307.83270843397
0.7083318385282908	370649.7121450735
0.7084498938347124	370733.32285715383
0.708567968817018	370597.9336937009
0.7086860634784875	370462.52196538716
0.7088041778224007	370327.087668452
0.7089223118520377	370191.63079913415
0.7090404655706796	370056.1513536715
0.709158638981608	369920.64932830114
0.709276832088105	369785.1247192598
0.7093950448934531	369873.1362099747
0.7095132774009353	370067.77991894836
0.7096315296138355	370262.4560685402
0.7097498015354378	370457.16466415697
0.7098680931690269	370651.9057112062
0.7099864045178884	370846.67921509675
0.7101047355853081	371041.485181238
0.7102230863745722	371236.32361504005
0.7103414568889679	371401.71683350543
0.7104598471317828	371560.4395922063
0.7105782571063047	371719.18880470016
0.7106966868158224	371877.96447539615
0.710815136263625	372036.7666087038
0.7109336054530023	372195.5952090338
0.7110520943872445	372354.45028079714
0.7111706030696424	372513.3318284059
0.7112891315034873	372361.6071977277
0.7114076796920712	372195.03610086103
0.7115262476386865	372028.43724214484
0.7116448353466263	371861.81061695225
0.711763442819184	371695.1562206554
0.711882070059654	371528.47404862574
0.7120007170713306	371361.76409623417
0.7121193838575091	371194.54922594136
0.7122380704214853	371022.33011239255
0.7123567767665555	370850.08229565824
0.7124755028960166	370677.80577095447
0.7125942488131658	370505.50053349667
0.7127130145213015	370333.16657849884
0.7128318000237216	370160.8039011757
0.7129506053237256	369988.4124967394
0.7130694304246129	369807.5693738031
0.7131882753296837	369597.24638193613
0.7133071400422386	369386.8883362371
0.7134260245655789	369176.495230864
0.7135449289030065	368966.0670599732
0.7136638530578235	368755.6038177207
0.7137827970333332	368545.10549826093
0.7139017608328388	368334.5720957479
0.7140207444596443	368093.0792074035
0.7141397479170543	367796.3800153137
0.7142587712083737	367499.63137335895
0.7143778143369084	367202.83327329694
0.7144968773059646	366905.98570688494
0.7146159601188489	366609.0886658786
0.7147350627788687	366312.142142032
0.7148541852893318	366015.1461270983
0.7149733276535467	365565.26583680726
0.7150924898748222	364961.1953943835
0.715211671956468	364357.02427355264
0.7153308739017941	363752.7524575345
0.715450095714111	363148.37992954726
0.71556933739673	362543.9066728053
0.7156885989529628	361939.33267052064
0.7158078803861218	361334.6579059013
0.7159271816995193	360346.521995894
0.7160465028964692	359133.21277883457
0.7161658439802853	357919.7013435723
0.7162852049542819	356705.9876564044
0.7164045858217744	355492.0716836212
0.716523986586078	354277.9533915097
0.7166434072505089	353063.6327463502
0.716762847818384	351849.109714416
0.7168823082930204	350927.51580428635
0.7170017886777359	350092.0063474694
0.7171212889758488	349256.3576390769
0.7172408091906781	348420.56965589937
0.7173603493255433	347584.6423747244
0.7174799093837642	346748.57577233633
0.7175994893686615	345912.36982551427
0.7177190892835562	345076.0245110347
0.7178387091317702	344988.3399149471
0.7179583489166254	344975.8074105369
0.7180780086414448	344963.2728173759
0.7181976883095517	344950.7361351161
0.7183173879242699	344938.19736340916
0.718437107488924	344925.656501907
0.7185568470068389	344913.11355026125
0.7186766064813399	344880.25156449265
0.7187963859157535	344339.41573618806
0.7189161853134061	343798.48976857885
0.719036004677625	343257.47364664153
0.7191558440117378	342716.367355351
0.7192757033190732	342175.17087967775
0.7193955826029597	341633.88420459256
0.7195154818667269	341092.50731506106
0.7196354011137046	340537.45830874477
0.7197553403472235	339919.7833573416
0.7198752995706147	339302.00546011346
0.7199952787872098	338684.124599902
0.720115278000341	338066.14075954724
0.7202352972133411	337448.0539218857
0.7203553364295432	336829.86406975205
0.7204753956522815	336211.57118597557
0.7205954748848902	335765.7956036581
0.7207155741307044	335700.50908166735
0.7208356933930594	335635.2116785897
0.7209558326752915	335569.9033926115
0.7210759919807375	335504.5842219189
0.7211961713127342	335439.25416469795
0.7213163706746197	335373.91321913403
0.7214365900697322	335308.56138341257
0.7215568295014103	334912.75588822714
0.721677088972994	334122.61053647235
0.7217973684878227	333332.3334938269
0.7219176680492374	332541.92473834
0.7220379876605789	331751.3842480611
0.722158327325189	330960.7120010335
0.7222786870464099	330169.90797529847
0.7223990668275843	329378.9721488921
0.7225194666720555	328369.47165408987
0.7226398865831676	327204.994082972
0.7227603265642646	326040.3224322617
0.722880786618692	324875.45666960714
0.7230012667497951	323710.3967626596
0.7231217669609201	322545.14267906075
0.7232422872554135	321379.69438644894
0.7233628276366229	320214.0518524531
0.7234833881078956	319483.0904978892
0.7236039686725803	318917.11274338525
0.7237245693340255	318351.04065925645
0.7238451900955812	317784.87422977923
0.7239658309605971	317218.6134392311
0.7240864919324239	316652.2582718838
0.7242071730144127	316085.8087120086
0.724327874209915	315519.2647438746
0.7244485955222832	314047.56912222656
0.7245693369548704	312425.9846514431
0.7246900985110294	310804.1299165835
0.7248108801941148	309182.0048725972
0.7249316820074803	307559.60947444226
0.7250525039544815	305936.94367705163
0.7251733460384739	304314.0074353612
0.7252942082628137	302692.2992589429
0.7254150906308574	301938.6308226632
0.7255359931459625	301184.8367749774
0.7256569158114868	300430.9170949501
0.7257778586307888	299676.8717616424
0.7258988216072273	298922.7007541127
0.7260198047441617	298168.4040514159
0.7261408080449525	297413.9816326007
0.72626183151296	296655.5514297402
0.7263828751515454	295871.1963923418
0.7265039389640706	295086.71062910394
0.726625022953898	294302.0941182384
0.7267461271243904	293517.3468379541
0.7268672514789111	292732.4687664568
0.7269883960208241	291947.45988194837
0.7271095607534942	291162.32016262534
0.7272307456802866	290330.6901001665
0.7273519508045666	289373.6932696887
0.7274731761297006	288416.53693973954
0.7275944216590555	287459.22108373547
0.7277156873959987	286501.7456750884
0.7278369733438982	285544.1106872049
0.727958279506122	284586.3160934928
0.7280796058860397	283628.36186734715
0.7282009524870207	282422.484765026
0.7283223193124353	280849.937294159
0.7284437063656539	279277.1277320501
0.7285651136500483	277704.0560350116
0.7286865411689898	276130.7221593601
0.7288079889258514	274557.12606139225
0.7289294569240056	272983.2676974117
0.7290509451668262	271409.147023702
0.7291724536576875	269960.19223675266
0.7292939823999636	268614.9267564188
0.7294155313970303	267269.4370651688
0.7295371006522632	265923.72312563733
0.7296586901690385	264577.7849004503
0.7297802999507332	263231.6223522264
0.7299019300007252	261885.2354435743
0.7300235803223919	260538.62413710766
0.7301452509191123	259445.10305600482
0.7302669417942654	258468.32202977187
0.7303886529512311	257491.3782067009
0.7305103843933897	256514.27155965916
0.7306321361241218	255537.00206151037
0.7307539081468093	254559.56968511012
0.7308757004648336	253581.9744033159
0.7309975130815778	252604.21618897354
0.7311193460004248	251657.0977218333
0.7312411992247582	250716.7947412316
0.7313630727579622	249776.33504346668
0.7314849666034219	248835.71860241785
0.7316068807645224	247894.94539196274
0.7317288152446498	246954.01538597216
0.7318507700471907	246012.9285583134
0.7319727451755319	245071.6848828504
0.732094740633061	243733.78017139813
0.7322167564231665	242377.80173287747
0.7323387925492371	241021.59729795033
0.7324608490146619	239665.16682895104
0.732582925822831	238308.51028820663
0.7327050229771347	236951.62763804029
0.7328271404809642	235594.5188407642
0.7329492783377112	234240.0908451802
0.7330714365507675	232914.01586530657
0.7331936151235259	231587.7198729366
0.7333158140593796	230261.2028312361
0.7334380333617229	228934.46470335996
0.7335602730339499	227607.5054524619
0.7336825330794556	226280.3250416884
0.7338048135016354	224952.9234341823
0.7339271143038857	223687.37271950702
0.734049435489603	222629.5952663855
0.7341717770621846	221571.6415170216
0.7342941390250283	220513.51144203334
0.7344165213815324	219455.205012033
0.734538924135096	218396.7221976261
0.7346613472891185	217338.0629694182
0.734783790847	216279.22729800522
0.7349062548121412	215044.74051337433
0.7350287391879431	213499.88938716566
0.7351512439778078	211954.7807857661
0.7352737691851374	210409.41466626822
0.735396314813335	208863.79098574902
0.7355188808658037	207317.90970128565
0.7356414673459482	205771.77076993836
0.7357640742571725	204225.37414877024
0.7358867016028818	202759.42297403511
0.7360093493864824	201372.92914140198
0.7361320176113801	199986.20422646528
0.736254706280982	198599.24819070942
0.7363774153986956	197212.06099561247
0.7365001449679286	195824.64260265252
0.7366228949920899	194436.99297329257
0.7367456654745885	193049.11206899444
0.7368684564188344	191683.02633045113
0.7369912678282374	190329.16181282332
0.7371140997062088	188975.07165110868
0.7372369520561599	187620.75580769917
0.7373598248815024	186266.21424498543
0.7374827181856494	184911.44692534232
0.7376056319720137	183556.45381114582
0.7377285662440091	182201.23486476342
0.7378515210050496	180673.0176705298
0.7379744962585505	179092.56382087065
0.738097492007927	177511.84656223695
0.7382205082565949	175930.8658507278
0.738343545007971	174349.6216424337
0.7384666022654723	172768.11389343662
0.7385896800325165	171186.3425598171
0.7387127783125219	169604.30759764
0.7388358971089073	168508.21121076774
0.7389590364250921	167460.69943340425
0.7390821962644963	166413.01307074376
0.7392053766305403	165365.152093691
0.7393285775266454	164317.11647314133
0.7394517989562333	163268.9061799872
0.7395750409227259	162220.52118511926
0.7396983034295463	161161.1440576236
0.739821586480118	159860.9492139497
0.7399448900778645	158560.5376711378
0.7400682142262109	157259.9093930648
0.740191558928582	155959.06434361349
0.7403149241884034	154658.00248665496
0.7404383100091014	153356.7237860533
0.7405617163941028	152055.22820566903
0.7406851433468352	150728.50277044377
0.7408085908707264	149287.1280341856
0.7409320589692048	147845.51306880536
0.7410555476456997	146403.65783426308
0.7411790569036406	144961.5622905161
0.7413025867464579	143519.2263975114
0.7414261371775823	142076.6501151908
0.7415497082004452	140633.83340349095
0.7416732998184786	139199.78297855274
0.741796912035115	137784.81481058837
0.7419205448537874	136369.61081459638
0.7420441982779297	134954.17095127172
0.742167872310976	133538.4951813019
0.7422915669563612	132122.58346537044
0.7424152822175206	130706.43576415339
0.7425390180978901	129290.05203832033
0.7426627746009065	127974.7408109078
0.7427865517300065	126782.71275702404
0.7429103494886282	125590.48603179673
0.7430341678802096	124398.06060211612
0.7431580069081896	123205.43643486398
0.7432818665760077	122012.6134969156
0.7434057468871037	120819.59175514524
0.7435296478449182	119626.3711764186
0.7436535694528923	118386.65618315215
0.7437775117144678	117115.04385052077
0.7439014746330868	115843.21958250254
0.7440254582121922	114571.18334377187
0.7441494624552276	113298.93509900091
0.7442734873656368	112026.47481285609
0.7443975329468645	110753.80244999588
0.7445215992023557	109480.91797507537
0.7446456861355559	108248.1119613334
0.7447697937499119	107029.94247032917
0.7448939220488703	105811.56995107673
0.7450180710358784	104592.99436973882
0.7451422407143843	103374.21569247053
0.7452664310878367	102155.23388542156
0.7453906421596846	100936.0489147394
0.7455148739333779	99716.66074656171
0.7456391264123667	98534.37264646345
0.7457633996001021	97357.8520896551
0.7458876935000356	96181.13544608517
0.7460120081156189	95004.2226830769
0.7461363434503048	93827.1137679409
0.7462606995075466	92649.80866798465
0.7463850762907978	91472.30735051351
0.7465094738035127	90294.87489870365
0.7466338920491467	89186.5990475781
0.746758331031155	88078.1384838096
0.7468827907529935	86969.49317661511
0.7470072712181189	85860.66309520273
0.7471317724299886	84751.64820877656
0.7472562943920602	83642.44848653678
0.7473808371077922	82533.06389767563
0.7475054005806435	81427.1133164771
0.7476299848140736	80343.26944631456
0.7477545898115426	79259.24493550675
0.7478792155765113	78175.03975394687
0.7480038621124406	77090.65387152426
0.7481285294227926	76006.0872581215
0.7482532175110298	74921.33988361535
0.7483779263806148	73836.41171788164
0.7485026560350116	72771.05525915435
0.7486274064776842	71758.98071930409
0.748752177712097	70746.73750036568
0.7488769697417158	69734.32557422195
0.749001782570006	68721.74491275844
0.7491266162004343	67708.99548785163
0.7492514706364677	66696.07727137355
0.7493763458815739	65682.99023519171
0.7495012419392209	64689.42480042627
0.7496261588128773	63724.00113873072
0.7497510965060128	62758.41657309087
0.7498760550220971	61792.67107669044
0.7500010343646007	60826.76462270713
0.7501260345369949	59860.69718431435
0.750251055542751	58894.46873468292
0.7503760973853414	57928.07924697596
0.7505011600682389	57000.520098450565
0.750626243594917	56105.36328757259
0.7507513479688495	55210.057283894166
0.7508764731935109	54314.60206254815
0.7510016192723765	53418.99759866502
0.7511267862089218	52523.24386737207
0.7512519740066232	51627.340843790254
0.7513771826689577	50731.28850303733
0.7515024121994025	49898.12234278712
0.7516276626014359	49094.20802452863
0.751752933878536	48290.15972055183
0.7518782260341824	47485.97740852409
0.7520035390718548	46681.66106611066
0.7521288729950334	45877.21067097391
0.7522542278071992	45072.62620077124
0.7523796035118337	44267.90763315649
0.7525050001124189	43502.15948882132
0.7526304176124378	42744.78808335538
0.7527558560153731	41987.290449322834
0.752881315324709	41229.66656568388
0.7530067955439299	40471.91641139738
0.7531322966765205	39714.03996541951
0.7532578187259665	38956.03720670042
0.7533833616957542	38197.90811418823
0.75350892558937	37495.02009477366
0.7536345104103016	36794.61846205875
0.7537601161620366	36094.10009573876
0.7538857428480638	35393.464976357034
0.7540113904718717	34692.71308445631
0.7541370590369503	33991.84440057376
0.7542627485467898	33290.85890524346
0.7543884590048808	32597.946746159883
0.7545141904147151	31986.592376704873
0.7546399427797842	31375.136114855937
0.7547657161035808	30763.57794362993
0.754891510389598	30151.917846042084
0.7550173256413296	29540.155805104398
0.7551431618622698	28928.2918038267
0.7552690190559135	28316.325825215587
0.7553948972257561	27716.978819681754
0.7555207963752938	27160.23142135106
0.755646716508023	26603.39123178763
0.755772657627441	26046.45823552575
0.7558986197370455	25489.43241709774
0.756024602840335	24932.313761033474
0.7561506069408084	24375.102251859862
0.7562766320419653	23817.797874100892
0.7564026781473054	23276.76825257807
0.75652874526033	22764.45113962045
0.7566548333845401	22252.048640477075
0.7567809425234375	21739.560740917357
0.7569070726805247	21226.987426708
0.7570332238593047	20714.328683613017
0.7571593960632813	20201.584497393695
0.7572855892959586	19688.754853809973
0.7574118035608413	19216.63403472977
0.7575380388614347	18784.34492006977
0.7576642952012449	18351.98375722383
0.7577905725837782	17919.550534184706
0.7579168710125422	17487.04523894097
0.7580431904910444	17054.4678594812
0.7581695310227928	16621.818383792066
0.7582958926112967	16189.096799856441
0.7584222752600652	15789.884195134562
0.7585486789726085	15409.896115033405
0.7586751037524372	15029.84470358542
0.7588015496030628	14649.729950234787
0.7589280165279966	14269.551844426012
0.7590545045307512	13889.310375599605
0.7591810136148396	13509.005533195066
0.7593075437837755	13128.637306649567
0.7594340950410726	12785.52579561732
0.7595606673902461	12453.185028170265
0.7596872608348112	12120.78887059497
0.7598138753782836	11788.337313660446
0.75994051102418	11455.83034813279
0.7600671677760173	11123.267964777802
0.7601938456373134	10790.65015435867
0.7603205446115863	10457.976907637987
0.7604472647023548	10161.60282531173
0.7605740059131385	9868.792991189808
0.7607007682474575	9575.93435542858
0.7608275517088319	9283.026909895378
0.7609543563007835	8990.070646453934
0.7610811820268336	8697.065556968762
0.7612080288905045	8404.01163330257
0.7613348968953197	8112.077604152506
0.7614617860448022	7844.074818612965
0.7615886963424764	7576.027365942135
0.7617156277918667	7307.935238696119
0.7618425803964988	7039.798429428674
0.7619695541598982	6771.616930693091
0.7620965490855914	6503.390735041248
0.7622235651771058	6235.119835023154
0.7623506024379685	5974.99268715619
0.7624776608717082	5750.713116176703
0.7626047404818536	5526.3961652687085
0.7627318412719337	5302.041828202614
0.762858963245479	5077.650098746868
0.7629861064060198	4853.220970669527
0.7631132707570876	4628.7544377372715
0.7632404563022137	4404.250493716396
0.7633676630449308	4188.046845755739
0.7634948909887717	3989.5553873658473
0.7636221401372697	3791.0308470664822
0.7637494104939593	3592.473219343547
0.7638767020623748	3393.8824986829445
0.7640040148460518	3195.258679568672
0.7641313488485262	2996.601756484555
0.7642587040733344	2797.911723913032
0.7643860805240132	2608.6608936638486
0.7645134782041005	2430.6818357044267
0.7646408971171346	2252.6731145686035
0.764768337266654	2074.634725312657
0.7648957986561985	1896.5666629917764
0.7650232812893079	1718.4689226605328
0.7651507851695227	1540.3414993725655
0.7652783103003843	1362.184388180739
