#wavelength	surface flux
0.7	23903450.979380887
0.7001166666666666	23960292.82330868
0.7002333527777778	24008894.144428052
0.700350058336574	24057503.565767586
0.7004667833462966	24106121.08867728
0.7005835278101878	24154746.71450759
0.7007002917314895	24203380.4446088
0.7008170751134447	24252022.280331682
0.7009338779592968	24300672.223027162
0.7010507002722901	24324113.892907023
0.7011675420556689	24316872.81034336
0.701284403312678	24309630.52093261
0.7014012840465635	24302387.02447362
0.7015181842605713	24295142.320765216
0.701635103957948	24287896.409606203
0.701752043141941	24280649.290795334
0.701869001815798	24273400.964131314
0.7019859799827672	24259768.02031258
0.7021029776460976	24241690.31103806
0.7022199948090387	24223609.588811964
0.7023370314748403	24205525.853132177
0.7024540876467528	24187439.103496443
0.702571163328027	24169349.339402467
0.7026882585219152	24151256.560347762
0.7028053732316688	24133160.765829906
0.7029225074605406	24133791.03258469
0.7030396612117841	24141653.560043097
0.7031568344886527	24149517.39792275
0.7032740272944008	24157382.546442047
0.7033912396322832	24165249.005819432
0.7035084715055552	24173116.776273374
0.7036257229174727	24180985.858022396
0.7037429938712924	24188856.251285046
0.7038602843702709	24245849.2388531
0.7039775944176659	24311183.054238275
0.7040949240167356	24376527.758592702
0.7042122731707383	24441883.353731155
0.7043296418829335	24507249.841468837
0.7044470301565806	24572627.22362113
0.70456443799494	24638015.502003733
0.7046818654012724	24703414.67843277
0.7047993123788394	24704059.187463082
0.7049167789309024	24704629.48254901
0.7050342650607243	24705199.87268412
0.7051517707715678	24705770.357884254
0.7052692960666963	24706340.938165255
0.705386840949374	24706911.613542967
0.7055044054228656	24707482.384033244
0.7056219894904361	24718057.28258016
0.7057395931553511	24792208.507891838
0.705857216420877	24866372.091741122
0.7059748592902804	24940548.036187675
0.7060925217668288	25014736.343291707
0.70621020385379	25088937.01511358
0.7063279055544321	25163150.053713996
0.7064456268720246	25237375.461154293
0.7065633678098366	25302356.945441093
0.7066811283711383	25341857.256411422
0.7067989085592001	25381364.150766913
0.7069167083772933	25420877.62960477
0.7070345278286895	25460397.69402246
0.707152366916661	25499924.34511756
0.7072702256444803	25539457.5839878
0.7073881040154211	25578997.411731236
0.7075060020327569	25600685.38441804
0.7076239196997625	25596368.872411467
0.7077418570197124	25592051.640986234
0.7078598139958823	25587733.690022428
0.7079777906315483	25583415.019400124
0.7080957869299869	25579095.628999386
0.7082138028944751	25574775.51870025
0.7083318385282908	25570454.68838273
0.7084498938347124	25576654.671093613
0.708567968817018	25591776.05794172
0.7086860634784875	25606899.965020984
0.7088041778224007	25622026.392751444
0.7089223118520377	25637155.341553174
0.7090404655706796	25652286.811846357
0.709158638981608	25667420.804051276
0.709276832088105	25682557.31858823
0.7093950448934531	25720490.781607524
0.7095132774009353	25769301.474407937
0.7096315296138355	25818120.302323837
0.7097498015354378	25866947.266711045
0.7098680931690269	25915782.3689256
0.7099864045178884	25964625.610323925
0.7101047355853081	26013476.99226247
0.7102230863745722	26062336.516097974
0.7103414568889679	26038073.42974056
0.7104598471317828	25997189.269390993
0.7105782571063047	25956298.295014735
0.7106966868158224	25915400.50547608
0.710815136263625	25874495.899639178
0.7109336054530023	25833584.476367943
0.7110520943872445	25792666.23452618
0.7111706030696424	25751741.172977418
0.7112891315034873	25786191.01427826
0.7114076796920712	25824243.27635338
0.7115262476386865	25862301.880472183
0.7116448353466263	25900366.82769165
0.711763442819184	25938438.119069
0.711882070059654	25976515.755661614
0.7120007170713306	26014599.738526974
0.7121193838575091	26056257.85342387
0.7122380704214853	26135133.992513172
0.7123567767665555	26214023.277625576
0.7124755028960166	26292925.710952204
0.7125942488131658	26371841.294684324
0.7127130145213015	26450770.03101395
0.7128318000237216	26529711.92213272
0.7129506053237256	26608666.97023346
0.7130694304246129	26668072.949555397
0.7131882753296837	26659092.38954429
0.7133071400422386	26650110.332773175
0.7134260245655789	26641126.77899261
0.7135449289030065	26632141.727953073
0.7136638530578235	26623155.179405034
0.7137827970333332	26614167.133098893
0.7139017608328388	26605177.588785037
0.7140207444596443	26605391.34378567
0.7141397479170543	26622025.57971956
0.7142587712083737	26638662.588026077
0.7143778143369084	26655302.369167328
0.7144968773059646	26671944.92360544
0.7146159601188489	26688590.25180262
0.7147350627788687	26705238.354221165
0.7148541852893318	26721889.231323443
0.7149733276535467	26757021.29464477
0.7150924898748222	26810792.430019416
0.715211671956468	26864572.52724997
0.7153308739017941	26918361.587830104
0.715450095714111	26972159.613253642
0.71556933739673	27025966.605014756
0.7156885989529628	27079782.56460783
0.7158078803861218	27133607.493527576
0.7159271816995193	27145853.560658023
0.7160465028964692	27133692.20565806
0.7161658439802853	27121528.8237656
0.7162852049542819	27109363.414642826
0.7164045858217744	27097195.97795186
0.716523986586078	27085026.51335478
0.7166434072505089	27072855.02051361
0.716762847818384	27060681.49909029
0.7168823082930204	27092988.926230125
0.7170017886777359	27138388.440615155
0.7171212889758488	27183795.521585885
0.7172408091906781	27229210.17040346
0.7173603493255433	27274632.38832918
0.7174799093837642	27320062.176624533
0.7175994893686615	27365499.536551286
0.7177190892835562	27410944.46937134
0.7178387091317702	27469798.972732898
0.7179583489166254	27530008.616070576
0.7180780086414448	27590228.294348855
0.7181976883095517	27650458.009240177
0.7183173879242699	27710697.762417324
0.718437107488924	27770947.555553347
0.7185568470068389	27831207.39032158
0.7186766064813399	27889994.432386864
0.7187963859157535	27911717.104180995
0.7189161853134061	27933443.396420423
0.719036004677625	27955173.309708558
0.7191558440117378	27976906.844648898
0.7192757033190732	27998644.001845088
0.7193955826029597	28020384.78190079
0.7195154818667269	28042129.18541985
0.7196354011137046	28057062.852298874
0.7197553403472235	28040624.473353777
0.7198752995706147	28024183.35467886
0.7199952787872098	28007739.49581749
0.720115278000341	27991292.896312974
0.7202352972133411	27974843.555708542
0.7203553364295432	27958391.473547366
0.7204753956522815	27941936.64937247
0.7205954748848902	27925676.05257547
0.7207155741307044	27909846.9905785
0.7208356933930594	27894015.29040456
0.7209558326752915	27878180.951613918
0.7210759919807375	27862343.97376679
0.7211961713127342	27846504.356423374
0.7213163706746197	27830662.09914371
0.7214365900697322	27814817.20148785
0.7215568295014103	27839681.68464071
0.721677088972994	27913126.612140678
0.7217973684878227	27986583.780461777
0.7219176680492374	28060053.19164435
0.7220379876605789	28133534.84772874
0.722158327325189	28207028.75075584
0.7222786870464099	28280534.902766734
0.7223990668275843	28354053.305803
0.7225194666720555	28388759.592866346
0.7226398865831676	28395955.86200835
0.7227603265642646	28403153.33052853
0.722880786618692	28410351.99862681
0.7230012667497951	28417551.8665031
0.7231217669609201	28424752.934357375
0.7232422872554135	28431955.202389617
0.7233628276366229	28439158.670799874
0.7234833881078956	28402443.234929685
0.7236039686725803	28349046.910960853
0.7237245693340255	28295641.687604778
0.7238451900955812	28242227.563378043
0.7239658309605971	28188804.536797334
0.7240864919324239	28135372.606378794
0.7242071730144127	28081931.77063851
0.724327874209915	28028482.028092384
0.7244485955222832	28067342.97051932
0.7245693369548704	28121474.654554654
0.7246900985110294	28175615.360537246
0.7248108801941148	28229765.089970984
0.7249316820074803	28283923.844359443
0.7250525039544815	28338091.625207055
0.7251733460384739	28392268.434018154
0.7252942082628137	28446324.97913056
0.7254150906308574	28425473.97773424
0.7255359931459625	28404619.501171026
0.7256569158114868	28383761.548861712
0.7257778586307888	28362900.120227
0.7258988216072273	28342035.214687523
0.7260198047441617	28321166.83166381
0.7261408080449525	28300294.970576227
0.72626183151296	28277754.52095699
0.7263828751515454	28244144.70402306
0.7265039389640706	28210529.28545298
0.726625022953898	28176908.264313117
0.7267461271243904	28143281.639669716
0.7268672514789111	28109649.410588898
0.7269883960208241	28076011.576136597
0.7271095607534942	28042368.13537853
0.7272307456802866	28000420.178529616
0.7273519508045666	27936047.874415632
0.7274731761297006	27871664.841584325
0.7275944216590555	27807271.078247543
0.7277156873959987	27742866.582616854
0.7278369733438982	27678451.352903455
0.727958279506122	27614025.387318607
0.7280796058860397	27549588.68407275
0.7282009524870207	27492005.562445626
0.7283223193124353	27444565.938902788
0.7284437063656539	27397118.40875612
0.7285651136500483	27349662.970687684
0.7286865411689898	27302199.62337967
0.7288079889258514	27254728.365513656
0.7289294569240056	27207249.195771437
0.7290509451668262	27159762.11283421
0.7291724536576875	27160994.038658228
0.7292939823999636	27202601.671079166
0.7294155313970303	27244216.23810559
0.7295371006522632	27285837.740893174
0.7296586901690385	27327466.180597857
0.7297802999507332	27369101.558375806
0.7299019300007252	27410743.875383493
0.7300235803223919	27452393.132777233
0.7301452509191123	27469184.246650368
0.7302669417942654	27474501.195423108
0.7303886529512311	27479819.03035398
0.7305103843933897	27485137.75159067
0.7306321361241218	27490457.359280895
0.7307539081468093	27495777.853572417
0.7308757004648336	27501099.23461297
0.7309975130815778	27506421.502550375
0.7311193460004248	27518654.094464164
0.7312411992247582	27532452.933458503
0.7313630727579622	27546254.07225934
0.7314849666034219	27560057.51124999
0.7316068807645224	27573863.250813797
0.7317288152446498	27587671.291334204
0.7318507700471907	27601481.633194704
0.7319727451755319	27615294.276778843
0.732094740633061	27632905.289184943
0.7322167564231665	27650690.136885513
0.7323387925492371	27668477.94872736
0.7324608490146619	27686268.72520452
0.732582925822831	27704062.46681109
0.7327050229771347	27721859.17404124
0.7328271404809642	27739658.847389285
0.7329492783377112	27750849.03753933
0.7330714365507675	27697033.71309773
0.7331936151235259	27643209.4194354
0.7333158140593796	27589376.15505752
0.7334380333617229	27535533.91846883
0.7335602730339499	27481682.708174016
0.7336825330794556	27427822.522677474
0.7338048135016354	27373953.360483456
0.7339271143038857	27300083.65289079
0.734049435489603	27159216.17524164
0.7341717770621846	27018325.21967953
0.7342941390250283	26877410.78229156
0.7344165213815324	26736472.85916408
0.734538924135096	26595511.44638254
0.7346613472891185	26454526.540032387
0.734783790847	26313518.136197794
0.7349062548121412	26158380.84693592
0.7350287391879431	25978285.859118376
0.7351512439778078	25798160.855469156
0.7352737691851374	25618005.830986217
0.735396314813335	25437820.7806657
0.7355188808658037	25257605.699503765
0.7356414673459482	25077360.582494598
0.7357640742571725	24897085.424632724
0.7358867016028818	24789978.12147253
0.7360093493864824	24755142.49491126
0.7361320176113801	24720301.06241228
0.736254706280982	24685453.82300788
0.7363774153986956	24650600.775730204
0.7365001449679286	24615741.919611387
0.7366228949920899	24580877.253683183
0.7367456654745885	24546006.77697733
0.7368684564188344	24479330.51400922
0.7369912678282374	24394670.462901317
0.7371140997062088	24309996.30178486
0.7372369520561599	24225308.02830814
0.7373598248815024	24140605.640119363
0.7374827181856494	24055889.134865746
0.7376056319720137	23971158.51019458
0.7377285662440091	23886413.763752624
0.7378515210050496	23838663.242386542
0.7379744962585505	23802039.44902562
0.738097492007927	23765409.551699143
0.7382205082565949	23728773.549389806
0.738343545007971	23692131.44108009
0.7384666022654723	23655483.225752283
0.7385896800325165	23618828.902388643
0.7387127783125219	23582168.46997107
0.7388358971089073	23521280.579058968
0.7389590364250921	23457953.07879928
0.7390821962644963	23394615.023956176
0.7392053766305403	23331266.412770685
0.7393285775266454	23267907.243483286
0.7394517989562333	23204537.51433428
0.7395750409227259	23141157.22356385
0.7396983034295463	23080854.33819287
0.739821586480118	23089235.56597718
0.7399448900778645	23097618.19063277
0.7400682142262109	23106002.2123925
0.740191558928582	23114387.63148918
0.7403149241884034	23122774.4481557
0.7404383100091014	23131162.662625004
0.7405617163941028	23139552.275130045
0.7406851433468352	23124513.855394576
0.7408085908707264	23002288.919240523
0.7409320589692048	22880043.612263836
0.7410555476456997	22757777.93106922
0.7411790569036406	22635491.872261163
0.7413025867464579	22513185.43244327
0.7414261371775823	22390858.608218703
0.7415497082004452	22268511.396190196
0.7416732998184786	22161879.69310567
0.741796912035115	22088986.8220494
0.7419205448537874	22016081.802181304
0.7420441982779297	21943164.631476562
0.742167872310976	21870235.307909973
0.7422915669563612	21797293.82945612
0.7424152822175206	21724340.194089215
0.7425390180978901	21651374.399783127
0.7426627746009065	21567436.76742728
0.7427865517300065	21470124.51429737
0.7429103494886282	21372796.042458504
0.7430341678802096	21275451.34920774
0.7431580069081896	21178090.43184144
0.7432818665760077	21080713.28765544
0.7434057468871037	20983319.913945492
0.7435296478449182	20885910.308006648
0.7436535694528923	20790359.924109533
0.7437775117144678	20696077.422974605
0.7439014746330868	20601779.20808963
0.7440254582121922	20507465.276835427
0.7441494624552276	20413135.626592644
0.7442734873656368	20318790.254741505
0.7443975329468645	20224429.15866165
0.7445215992023557	20130052.33573246
0.7446456861355559	20031725.19425719
0.7447697937499119	19931932.266780347
0.7448939220488703	19832122.70714895
0.7450180710358784	19732296.512591034
0.7451422407143843	19632453.680334017
0.7452664310878367	19532594.20760486
0.7453906421596846	19432718.091630355
0.7455148739333779	19332825.329636488
0.7456391264123667	19236009.108038545
0.7457633996001021	19139671.33425085
0.7458876935000356	19043317.50416735
0.7460120081156189	18946947.61511235
0.7461363434503048	18850561.66440913
0.7462606995075466	18754159.649380706
0.7463850762907978	18657741.567349922
0.7465094738035127	18561229.772625033
0.7466338920491467	18444390.912116177
0.746758331031155	18327532.57846379
0.7468827907529935	18210654.768422596
0.7470072712181189	18093757.47874639
0.7471317724299886	17976840.706188556
0.7472562943920602	17859904.447502043
0.7473808371077922	17742948.699438974
0.7475054005806435	17624715.761865593
0.7476299848140736	17498716.1992242
0.7477545898115426	17372695.63665567
0.7478792155765113	17246654.070660017
0.7480038621124406	17120591.497736797
0.7481285294227926	16994507.914384786
0.7482532175110298	16868403.317102082
0.7483779263806148	16742277.702386675
0.7485026560350116	16614726.314821802
0.7486274064776842	16483351.760247104
0.748752177712097	16351955.309913548
0.7488769697417158	16220536.960171323
0.749001782570006	16089096.707370969
0.7491266162004343	15957634.54786185
0.7492514706364677	15826150.477992756
0.7493763458815739	15694644.494111884
0.7495012419392209	15557361.859599974
0.7496261588128773	15411783.230219578
0.7497510965060128	15266180.337734183
0.7498760550220971	15120553.178100094
0.7500010343646007	14974901.747272711
0.7501260345369949	14829226.041206785
0.750251055542751	14683526.055856679
0.7503760973853414	14537801.787175592
0.7505011600682389	14386713.78784044
0.750626243594917	14231142.294128306
0.7507513479688495	14075544.871834122
0.7508764731935109	13919921.516636167
0.7510016192723765	13764272.224212307
0.7511267862089218	13608596.990239857
0.7512519740066232	13452895.810395021
0.7513771826689577	13297168.680353455
0.7515024121994025	13140372.750225829
0.7516276626014359	12983064.454236127
0.751752933878536	12825729.940197371
0.7518782260341824	12668369.203739556
0.7520035390718548	12510982.240492258
0.7521288729950334	12353569.046084503
0.7522542278071992	12196129.616144333
0.7523796035118337	12038663.946299098
0.7525050001124189	11873823.514658667
0.7526304176124378	11707357.471398005
0.7527558560153731	11540863.683797013
0.752881315324709	11374342.14723126
0.7530067955439299	11207792.85707602
0.7531322966765205	11041215.808705976
0.7532578187259665	10874610.997494485
0.7533833616957542	10707978.418814465
0.75350892558937	10533719.522130622
0.7536345104103016	10359074.27695165
0.7537601161620366	10184399.924231905
0.7538857428480638	10009696.459119873
0.7540113904718717	9834963.87676388
0.7541370590369503	9660202.172310866
0.7542627485467898	9485411.340907
0.7543884590048808	9311124.0678967
0.7545141904147151	9142119.794029236
0.7546399427797842	8973087.352783065
0.7547657161035808	8804026.73946333
0.754891510389598	8634937.949374715
0.7550173256413296	8465820.977821017
0.7551431618622698	8296675.820105434
0.7552690190559135	8127502.47153027
0.7553948972257561	7958764.095814149
0.7555207963752938	7791552.279037417
0.755646716508023	7624312.593624652
0.755772657627441	7457045.034930928
0.7558986197370455	7289749.598310729
0.756024602840335	7122426.279117803
0.7561506069408084	6955075.072705013
0.7562766320419653	6787695.974424337
0.7564026781473054	6622095.67547585
0.75652874526033	6459647.079158298
0.7566548333845401	6297171.408074608
0.7567809425234375	6134668.657712463
0.7569070726805247	5972138.823558683
0.7570332238593047	5809581.901099233
0.7571593960632813	5646997.885819217
0.7572855892959586	5484386.773203313
0.7574118035608413	5331898.691989843
0.7575380388614347	5189315.402712768
0.7576642952012449	5046708.349554094
0.7577905725837782	4904077.528553431
0.7579168710125422	4761422.935749015
0.7580431904910444	4618744.567179077
0.7581695310227928	4476042.418881225
0.7582958926112967	4333316.486891811
0.7584222752600652	4201264.5360902995
0.7585486789726085	4075336.0365591864
0.7586751037524372	3949386.5489447704
0.7588015496030628	3823416.06974884
0.7589280165279966	3697424.5954732923
0.7590545045307512	3571412.122618699
0.7591810136148396	3445378.647685299
0.7593075437837755	3319324.1671725577
0.7594340950410726	3207973.3456241274
0.7595606673902461	3100876.1303124926
0.7596872608348112	2993761.065464865
0.7598138753782836	2886628.1481065475
0.75994051102418	2779477.3752619037
0.7600671677760173	2672308.743955203
0.7601938456373134	2565122.2512098686
0.7603205446115863	2457917.8940491374
0.7604472647023548	2366904.49689051
0.7605740059131385	2277487.0863391515
0.7607007682474575	2188054.7728859475
0.7608275517088319	2098607.554047366
0.7609543563007835	2009145.4273387801
0.7610811820268336	1919668.3902757964
0.7612080288905045	1830176.4403734743
0.7613348968953197	1741315.43648692
0.7614617860448022	1665691.2710590065
0.7615886963424764	1590054.5016034185
0.7617156277918667	1514405.126019661
0.7618425803964988	1438743.1422065774
0.7619695541598982	1363068.5480628784
0.7620965490855914	1287381.341486878
0.7622235651771058	1211681.5203763605
0.7623506024379685	1139358.5233224127
0.7624776608717082	1081879.7609817835
0.7626047404818536	1024391.4188474282
0.7627318412719337	966893.4953228158
0.762858963245479	909385.9888109133
0.7629861064060198	851868.8977145869
0.7631132707570876	794342.2204363514
0.7632404563022137	736805.9553786211
0.7633676630449308	683468.3681519694
0.7634948909887717	639079.8949879993
0.7636221401372697	594684.0237452266
0.7637494104939593	550280.753190538
0.7638767020623748	505870.0820908211
0.7640040148460518	461452.009212537
0.7641313488485262	417026.5333221082
0.7642587040733344	372593.6531856473
0.7643860805240132	334326.95187809254
0.7645134782041005	303420.8095271055
0.7646408971171346	272509.5161523804
0.764768337266654	241593.0708954375
0.7648957986561985	210671.4728976085
0.7650232812893079	179744.72130011726
