#wavelength	surface flux
0.7	72082.91823176306
0.7001166666666666	72200.97060903387
0.7002333527777778	72235.75827121112
0.700350058336574	72270.55173133203
0.7004667833462966	72305.35099036292
0.7005835278101878	72340.1560492704
0.7007002917314895	72374.966909021
0.7008170751134447	72409.78357058154
0.7009338779592968	72444.60603491898
0.7010507002722901	72479.82253651644
0.7011675420556689	72515.51736190882
0.701284403312678	72551.2181364387
0.7014012840465635	72586.92486109774
0.7015181842605713	72622.63753687753
0.701635103957948	72658.35616476994
0.701752043141941	72694.08074576697
0.701869001815798	72729.8112808609
0.7019859799827672	72841.87916734525
0.7021029776460976	73007.08808558833
0.7022199948090387	73172.32453865133
0.7023370314748403	73337.5885311231
0.7024540876467528	73502.88006759358
0.702571163328027	73668.19915265321
0.7026882585219152	73833.5457908941
0.7028053732316688	73998.91998690781
0.7029225074605406	74209.86733938288
0.7030396612117841	74438.43709240484
0.7031568344886527	74667.04494038566
0.7032740272944008	74895.69088967434
0.7033912396322832	75124.37494662135
0.7035084715055552	75353.09711757762
0.7036257229174727	75581.85740889581
0.7037429938712924	75810.65582692943
0.7038602843702709	75868.88173944342
0.7039775944176659	75898.18054347078
0.7040949240167356	75927.48423063215
0.7042122731707383	75956.79280174138
0.7043296418829335	75986.10625761247
0.7044470301565806	76015.42459905954
0.70456443799494	76044.74782689683
0.7046818654012724	76074.07594193876
0.7047993123788394	76256.3669123844
0.7049167789309024	76438.86379071353
0.7050342650607243	76621.39108518932
0.7051517707715678	76803.94880088077
0.7052692960666963	76986.53694285807
0.705386840949374	77169.1555161923
0.7055044054228656	77351.80452595571
0.7056219894904361	77512.19302499048
0.7057395931553511	77530.95162699805
0.705857216420877	77549.71335543931
0.7059748592902804	77568.4782108353
0.7060925217668288	77587.2461937072
0.70621020385379	77606.01730457623
0.7063279055544321	77624.79154396374
0.7064456268720246	77643.56891239116
0.7065633678098366	77681.16589269527
0.7066811283711383	77770.59007650602
0.7067989085592001	77860.0291643474
0.7069167083772933	77949.48315870337
0.7070345278286895	78038.95206205845
0.707152366916661	78128.43587689745
0.7072702256444803	78217.93460570548
0.7073881040154211	78307.44825096843
0.7075060020327569	78420.04719951024
0.7076239196997625	78566.26340797887
0.7077418570197124	78712.50398581542
0.7078598139958823	78858.7689370816
0.7079777906315483	79005.0582658398
0.7080957869299869	79151.37197615269
0.7082138028944751	79297.71007208388
0.7083318385282908	79444.07255769783
0.7084498938347124	79476.9009863002
0.708567968817018	79413.45771139757
0.7086860634784875	79350.00386261572
0.7088041778224007	79286.53943819234
0.7089223118520377	79223.06443636499
0.7090404655706796	79159.5788553707
0.709158638981608	79096.08269344617
0.709276832088105	79032.57594882797
0.7093950448934531	79079.26505479644
0.7095132774009353	79178.5205800643
0.7096315296138355	79277.79264791976
0.7097498015354378	79377.08126111982
0.7098680931690269	79476.38642242199
0.7099864045178884	79575.7081345845
0.7101047355853081	79675.04640036568
0.7102230863745722	79774.40122252444
0.7103414568889679	79872.97478002911
0.7104598471317828	79971.38348209811
0.7105782571063047	80069.80858561739
0.7106966868158224	80168.25009332056
0.710815136263625	80266.70800794168
0.7109336054530023	80365.18233221529
0.7110520943872445	80463.67306887625
0.7111706030696424	80562.18022066004
0.7112891315034873	80542.0591442241
0.7114076796920712	80516.27383651871
0.7115262476386865	80490.48423126203
0.7116448353466263	80464.69032773784
0.711763442819184	80438.89212522972
0.711882070059654	80413.08962302114
0.7120007170713306	80387.28282039554
0.7121193838575091	80362.04514842348
0.7122380704214853	80342.78401693027
0.7123567767665555	80323.51967524848
0.7124755028960166	80304.25212284309
0.7125942488131658	80284.98135917896
0.7127130145213015	80265.70738372084
0.7128318000237216	80246.43019593354
0.7129506053237256	80227.14979528158
0.7130694304246129	80207.30752241677
0.7131882753296837	80185.5086744922
0.7133071400422386	80163.70619342632
0.7134260245655789	80141.90007861359
0.7135449289030065	80120.09032944839
0.7136638530578235	80098.27694532501
0.7137827970333332	80076.45992563758
0.7139017608328388	80054.63926978021
0.7140207444596443	80024.47591111538
0.7141397479170543	79979.4314590623
0.7142587712083737	79934.3794996006
0.7143778143369084	79889.32003147896
0.7144968773059646	79844.25305344595
0.7146159601188489	79799.17856424996
0.7147350627788687	79754.09656263908
0.7148541852893318	79709.0070473613
0.7149733276535467	79610.35402005591
0.7150924898748222	79457.67988014115
0.715211671956468	79304.98029453636
0.7153308739017941	79152.25525900054
0.715450095714111	78999.5047692922
0.71556933739673	78846.72882116887
0.7156885989529628	78693.92741038755
0.7158078803861218	78541.10053270421
0.7159271816995193	78216.86135540741
0.7160465028964692	77791.97476249732
0.7161658439802853	77367.0173551551
0.7162852049542819	76941.98912157839
0.7164045858217744	76516.89004996249
0.716523986586078	76091.7201285015
0.7166434072505089	75666.47934538715
0.716762847818384	75241.1676888088
0.7168823082930204	74916.22212623755
0.7170017886777359	74620.77053795833
0.7171212889758488	74325.26970774791
0.7172408091906781	74029.71962739904
0.7173603493255433	73734.12028870334
0.7174799093837642	73438.47168345137
0.7175994893686615	73142.77380343173
0.7177190892835562	72847.02664043222
0.7178387091317702	72935.8067612135
0.7179583489166254	73063.2065799115
0.7180780086414448	73190.62763191269
0.7181976883095517	73318.0699207559
0.7183173879242699	73445.53344998058
0.718437107488924	73573.01822312683
0.7185568470068389	73700.52424373532
0.7186766064813399	73820.21741037018
0.7187963859157535	73744.06063653303
0.7189161853134061	73667.89116990023
0.719036004677625	73591.70900835634
0.7191558440117378	73515.51414978555
0.7192757033190732	73439.30659207157
0.7193955826029597	73363.08633309806
0.7195154818667269	73286.853370748
0.7196354011137046	73210.62833596858
0.7197553403472235	73134.48559533291
0.7198752995706147	73058.3301642405
0.7199952787872098	72982.1620405762
0.720115278000341	72905.98122222461
0.7202352972133411	72829.78770706996
0.7203553364295432	72753.58149299624
0.7204753956522815	72677.36257788671
0.7205954748848902	72679.66079881106
0.7207155741307044	72855.08834799733
0.7208356933930594	73030.54513510816
0.7209558326752915	73206.03116501689
0.7210759919807375	73381.5464425975
0.7211961713127342	73557.09097272412
0.7213163706746197	73732.66476027275
0.7214365900697322	73908.2678101191
0.7215568295014103	73929.15328908969
0.721677088972994	73765.40320206778
0.7217973684878227	73601.62582336497
0.7219176680492374	73437.82114843218
0.7220379876605789	73273.98917272034
0.722158327325189	73110.12989167916
0.7222786870464099	72946.24330075788
0.7223990668275843	72782.32939540471
0.7225194666720555	72530.40960169637
0.7226398865831676	72216.09520670821
0.7227603265642646	71901.72842598829
0.722880786618692	71587.30925080425
0.7230012667497951	71272.83767242456
0.7231217669609201	70958.3136821151
0.7232422872554135	70643.73727114087
0.7233628276366229	70329.10843076426
0.7234833881078956	70242.80021083624
0.7236039686725803	70243.18204322572
0.7237245693340255	70243.56393925393
0.7238451900955812	70243.94589893147
0.7239658309605971	70244.32792226897
0.7240864919324239	70244.71000927703
0.7242071730144127	70245.09215996624
0.724327874209915	70245.47437434724
0.7244485955222832	69801.43907256349
0.7245693369548704	69283.8490727238
0.7246900985110294	68766.17280788491
0.7248108801941148	68248.41026366716
0.7249316820074803	67730.56142569378
0.7250525039544815	67212.6262795799
0.7251733460384739	66694.60481094157
0.7252942082628137	66177.25933135969
0.7254150906308574	66101.5434382481
0.7255359931459625	66025.81492582099
0.7256569158114868	65950.07379197511
0.7257778586307888	65874.32003460689
0.7258988216072273	65798.55365161247
0.7260198047441617	65722.77464088763
0.7261408080449525	65646.98300032754
0.72626183151296	65570.13907686614
0.7263828751515454	65486.37326894074
0.7265039389640706	65402.59350004737
0.726625022953898	65318.79976785913
0.7267461271243904	65234.992070048815
0.7268672514789111	65151.170404288925
0.7269883960208241	65067.33476825148
0.7271095607534942	64983.48515960797
0.7272307456802866	64882.12907907199
0.7273519508045666	64733.50464935543
0.7274731761297006	64584.855448900664
0.7275944216590555	64436.18147357916
0.7277156873959987	64287.482719261716
0.7278369733438982	64138.75918181831
0.727958279506122	63990.01085711906
0.7280796058860397	63841.23774103218
0.7282009524870207	63584.81380888163
0.7283223193124353	63169.15626980391
0.7284437063656539	62753.42945447053
0.7285651136500483	62337.63335133392
0.7286865411689898	61921.76794884764
0.7288079889258514	61505.83323545994
0.7289294569240056	61089.82919962097
0.7290509451668262	60673.75582977554
0.7291724536576875	60318.98500097265
0.7292939823999636	60015.00825829501
0.7294155313970303	59710.980852826324
0.7295371006522632	59406.90277612347
0.7296586901690385	59102.7740197414
0.7297802999507332	58798.5945752334
0.7299019300007252	58494.364434150535
0.7300235803223919	58190.083588044974
0.7301452509191123	58006.05175008641
0.7302669417942654	57877.51591641378
0.7303886529512311	57748.95866010217
0.7305103843933897	57620.37997758115
0.7306321361241218	57491.7798652798
0.7307539081468093	57363.15831962618
0.7308757004648336	57234.51533704855
0.7309975130815778	57105.85091397367
0.7311193460004248	57015.88073496595
0.7312411992247582	56934.66029847719
0.7313630727579622	56853.42632524903
0.7314849666034219	56772.178813025246
0.7316068807645224	56690.91775954948
0.7317288152446498	56609.64316256476
0.7318507700471907	56528.35501981384
0.7319727451755319	56447.053329039154
0.732094740633061	56178.7368143849
0.7322167564231665	55901.95672375048
0.7323387925492371	55625.13050310095
0.7324608490146619	55348.25814474805
0.732582925822831	55071.33964100202
0.7327050229771347	54794.374984172355
0.7328271404809642	54517.364166566265
0.7329492783377112	54241.448383457406
0.7330714365507675	53976.70584729329
0.7331936151235259	53711.919187373205
0.7333158140593796	53447.088396343446
0.7334380333617229	53182.2134668481
0.7335602730339499	52917.29439153106
0.7336825330794556	52652.33116303474
0.7338048135016354	52387.32377400085
0.7339271143038857	52154.7019214171
0.734049435489603	52030.703045278126
0.7341717770621846	51906.68350265977
0.7342941390250283	51782.6432901177
0.7344165213815324	51658.58240420693
0.734538924135096	51534.500841481655
0.7346613472891185	51410.39859849609
0.734783790847	51286.27567180332
0.7349062548121412	51077.306724386675
0.7350287391879431	50718.37070739969
0.7351512439778078	50359.37486774248
0.7352737691851374	50000.31919544576
0.735396314813335	49641.203680536666
0.7355188808658037	49282.028313042356
0.7356414673459482	48922.793082986056
0.7357640742571725	48563.497980391665
0.7358867016028818	48242.84181712213
0.7360093493864824	47960.35078759956
0.7361320176113801	47677.81267623911
0.736254706280982	47395.22747519344
0.7363774153986956	47112.59517661389
0.7365001449679286	46829.915772651824
0.7366228949920899	46547.18925545554
0.7367456654745885	46264.41561717305
0.7368684564188344	45982.86202757552
0.7369912678282374	45701.97769446854
0.7371140997062088	45421.046547305945
0.7372369520561599	45140.06857828521
0.7373598248815024	44859.04377960361
0.7374827181856494	44577.97214345509
0.7376056319720137	44296.85366203386
0.7377285662440091	44015.68832753234
0.7378515210050496	43653.1288857628
0.7379744962585505	43266.03410568725
0.738097492007927	42878.87480981512
0.7382205082565949	42491.650987393914
0.738343545007971	42104.36262766905
0.7384666022654723	41717.00971988384
0.7385896800325165	41329.592253281255
0.7387127783125219	40942.11021710041
0.7388358971089073	40808.90022098496
0.7389590364250921	40701.17861751027
0.7390821962644963	40593.439060434925
0.7392053766305403	40485.681546766886
0.7393285775266454	40377.90607351316
0.7394517989562333	40270.11263768045
0.7395750409227259	40162.301236275285
0.7396983034295463	40047.6168893771
0.739821586480118	39780.41936516308
0.7399448900778645	39513.17730802888
0.7400682142262109	39245.890710551015
0.740191558928582	38978.55956530719
0.7403149241884034	38711.18386487269
0.7404383100091014	38443.763601821396
0.7405617163941028	38176.298768726425
0.7406851433468352	37898.33615342313
0.7408085908707264	37572.50631325123
0.7409320589692048	37246.622168106136
0.7410555476456997	36920.68370893658
0.7411790569036406	36594.69092669073
0.7413025867464579	36268.643812314425
0.7414261371775823	35942.54235675229
0.7415497082004452	35616.38655094782
0.7416732998184786	35291.17051862206
0.741796912035115	34968.03289416737
0.7419205448537874	34644.84141344202
0.7420441982779297	34321.59606746989
0.742167872310976	33998.29684727313
0.7422915669563612	33674.94374387302
0.7424152822175206	33351.53674828909
0.7425390180978901	33028.07585153943
0.7426627746009065	32747.782311018105
0.7427865517300065	32520.131873621227
0.7429103494886282	32292.443494484545
0.7430341678802096	32064.717167284853
0.7431580069081896	31836.952885697305
0.7432818665760077	31609.15064339584
0.7434057468871037	31381.31043405418
0.7435296478449182	31153.432251344424
0.7436535694528923	30899.57063885308
0.7437775117144678	30627.906259682815
0.7439014746330868	30356.19660311643
0.7440254582121922	30084.44166160705
0.7441494624552276	29812.64142760731
0.7442734873656368	29540.795893568626
0.7443975329468645	29268.905051940717
0.7445215992023557	28996.968895172573
0.7446456861355559	28723.11235351793
0.7447697937499119	28448.519445979993
0.7448939220488703	28173.88077295753
0.7450180710358784	27899.19632682314
0.7451422407143843	27624.4660999477
0.7452664310878367	27349.690084700847
0.7453906421596846	27074.868273451753
0.7455148739333779	26800.000658567362
0.7456391264123667	26545.169285536744
0.7457633996001021	26293.50644985837
0.7458876935000356	26041.801670373596
0.7460120081156189	25790.054940092723
0.7461363434503048	25538.26625202335
0.7462606995075466	25286.435599172404
0.7463850762907978	25034.562974546367
0.7465094738035127	24782.67015811219
0.7466338920491467	24536.434707732402
0.746758331031155	24290.15821811064
0.7468827907529935	24043.84068240757
0.7470072712181189	23797.48209378187
0.7471317724299886	23551.082445391356
0.7472562943920602	23304.641730392952
0.7473808371077922	23058.159941941823
0.7475054005806435	22811.62459203543
0.7476299848140736	22564.97127387003
0.7477545898115426	22318.276846818208
0.7478792155765113	22071.541304028484
0.7480038621124406	21824.764638648492
0.7481285294227926	21577.946843824328
0.7482532175110298	21331.087912700765
0.7483779263806148	21084.18783842236
0.7485026560350116	20840.78257164304
0.7486274064776842	20606.906673901296
0.748752177712097	20372.99179684369
0.7488769697417158	20139.037933972737
0.749001782570006	19905.04507879159
0.7491266162004343	19671.013224801314
0.7492514706364677	19436.942365501935
0.7493763458815739	19202.832494392438
0.7495012419392209	18970.241741219354
0.7496261588128773	18739.85222946025
0.7497510965060128	18509.42431944903
0.7498760550220971	18278.958004786226
0.7500010343646007	18048.453279070938
0.7501260345369949	17817.910135901253
0.750251055542751	17587.328568874633
0.7503760973853414	17356.708571586703
0.7505011600682389	17133.17744707599
0.750626243594917	16915.560207789218
0.7507513479688495	16697.906698962895
0.7508764731935109	16480.216914551693
0.7510016192723765	16262.490848509702
0.7511267862089218	16044.728494790239
0.7512519740066232	15826.929847345078
0.7513771826689577	15609.09490012522
0.7515024121994025	15405.031397197909
0.7516276626014359	15207.371832744127
0.751752933878536	15009.679325029952
0.7518782260341824	14811.953868564426
0.7520035390718548	14614.195457856065
0.7521288729950334	14416.40408741269
0.7522542278071992	14218.57975174089
0.7523796035118337	14020.722445346384
0.7525050001124189	13827.490596869178
0.7526304176124378	13635.23964832478
0.7527558560153731	13442.95665795587
0.752881315324709	13250.641620421713
0.7530067955439299	13058.294530381232
0.7531322966765205	12865.915382492665
0.7532578187259665	12673.504171412727
0.7533833616957542	12481.060891797615
0.75350892558937	12297.095411068756
0.7536345104103016	12113.499427965138
0.7537601161620366	11929.8728455311
0.7538857428480638	11746.215658666475
0.7540113904718717	11562.527862270943
0.7541370590369503	11378.809451242721
0.7542627485467898	11195.06042047921
0.7543884590048808	11013.018199554017
0.7545141904147151	10848.271533727151
0.7546399427797842	10683.497410122913
0.7547657161035808	10518.695824164715
0.754891510389598	10353.866771275532
0.7550173256413296	10189.010246877468
0.7551431618622698	10024.126246392045
0.7552690190559135	9859.214765239909
0.7553948972257561	9696.32292956483
0.7555207963752938	9540.275392382979
0.755646716508023	9384.201847278353
0.755772657627441	9228.102289916156
0.7558986197370455	9071.976715961042
0.756024602840335	8915.825121076974
0.7561506069408084	8759.647500927096
0.7562766320419653	8603.443851173717
0.7564026781473054	8449.510552569467
0.75652874526033	8299.592623517341
0.7566548333845401	8149.649708143631
0.7567809425234375	7999.681802284078
0.7569070726805247	7849.688901773634
0.7570332238593047	7699.671002446458
0.7571593960632813	7549.628100135918
0.7572855892959586	7399.560190674984
0.7574118035608413	7258.416053524528
0.7575380388614347	7126.003279422349
0.7576642952012449	6993.568436524435
0.7577905725837782	6861.111521152897
0.7579168710125422	6728.63252962856
0.7580431904910444	6596.131458272253
0.7581695310227928	6463.608303404222
0.7582958926112967	6331.063061343545
0.7584222752600652	6204.912192530445
0.7585486789726085	6082.426312331117
0.7586751037524372	5959.920017818375
0.7588015496030628	5837.393305589641
0.7589280165279966	5714.846172242445
0.7590545045307512	5592.278614373026
0.7591810136148396	5469.6906285772975
0.7593075437837755	5347.082211450422
0.7594340950410726	5231.807364359921
0.7595606673902461	5118.646970528387
0.7596872608348112	5005.467716631101
0.7598138753782836	4892.269599524958
0.75994051102418	4779.0526160658565
0.7600671677760173	4665.816763109601
0.7601938456373134	4552.562037511099
0.7603205446115863	4439.288436125062
0.7604472647023548	4332.045055761364
0.7605740059131385	4225.385081313912
0.7607007682474575	4118.707330203948
0.7608275517088319	4012.0117994690363
0.7609543563007835	3905.298486145432
0.7610811820268336	3798.567387269671
0.7612080288905045	3691.818499877636
0.7613348968953197	3585.134320893434
0.7614617860448022	3480.125076778804
0.7615886963424764	3375.0983311233454
0.7617156277918667	3270.0540810103794
0.7618425803964988	3164.9923235223077
0.7619695541598982	3059.913055741349
0.7620965490855914	2954.8162747491715
0.7622235651771058	2849.701977626707
0.7623506024379685	2746.5609229199017
0.7624776608717082	2652.1284028475893
0.7626047404818536	2557.6801440219274
0.7627318412719337	2463.2161438199564
0.762858963245479	2368.736399617893
0.7629861064060198	2274.2409087917868
0.7631132707570876	2179.729668717112
0.7632404563022137	2085.202676769176
0.7633676630449308	1992.6261770184447
0.7634948909887717	1904.2197342344696
0.7636221401372697	1815.7985570434787
0.7637494104939593	1727.3626429895394
0.7638767020623748	1638.9119896167188
0.7640040148460518	1550.4465944682352
0.7641313488485262	1461.9664550872303
0.7642587040733344	1373.471569016228
0.7643860805240132	1286.9124293051564
0.7645134782041005	1202.6663889126091
0.7646408971171346	1118.4063075132947
0.764768337266654	1034.1321827671113
0.7648957986561985	949.8440123334431
0.7650232812893079	865.5417938713803
0.7651507851695227	781.2255250395731
0.7652783103003843	696.8952034963042
0.7654058566854343	620.4244569586459
0.7655334243282153	549.3070500553881
0.7656610132322699	478.1777902510725
0.765788623401142	407.0366755700559
