#wavelength	surface flux
0.8	71997430.59610623
0.8002000000000001	73090859.91344711
0.8004000500000003	74448317.12149405
0.8006001500125003	75808777.87432203
0.8008003000500035	77169578.74233828
0.8010005001250161	78530719.81057219
0.8012007502500472	79892201.16407119
0.8014010504376099	81778141.6094842
0.8016014007002193	83840117.29932036
0.8018018010503944	85902608.48307894
0.8020022515006572	87965615.28963439
0.8022027520635323	90029137.84788972
0.8024033027515483	92009608.55448619
0.8026039035772362	93908681.25798577
0.8028045545531306	95808228.72966133
0.8030052556917691	97708251.08820572
0.803206007005692	99608748.45233807
0.8034068085074435	101193910.82815506
0.8036076602095705	101894207.42432211
0.8038085621246229	102594679.09463765
0.8040095142651542	103295325.8828712
0.8042105166437206	103996147.83280157
0.8044115692728815	104714701.81098634
0.8046126721651998	106188585.30779815
0.8048138253332411	107662837.27548298
0.8050150287895745	109137457.8061611
0.805216282546772	110612446.99197151
0.8054175866174087	112087804.92507757
0.8056189410140631	113929368.12404743
0.8058203457493168	115874947.15008296
0.8060218008357541	117821012.57087253
0.8062233062859632	119767564.50801824
0.8064248621125346	121714603.08314691
0.806626468328063	123557452.43226019
0.8068281249451449	125310858.48511824
0.8070298319763813	127064702.88949165
0.8072315894343755	128818985.75496486
0.8074333973317341	130573707.19115508
0.8076352556810671	132374020.3031333
0.8078371644949874	134283474.29310545
0.8080391237861113	136193405.64657554
0.8082411335670578	138103814.48288283
0.8084431938504498	140014700.9214012
0.8086453046489125	141952097.02946332
0.8088474659750746	144374645.71864408
0.8090496778415686	146797800.04500034
0.809251940261029	149221560.15993646
0.8094542532460944	151645926.21490338
0.8096566168094059	154070898.36138126
0.8098590309636085	156364052.51827848
0.8100614957213493	158626784.9907868
0.8102640110952797	160890083.14641353
0.8104665770980536	163153947.12658006
0.8106691937423283	165418377.0727425
0.8108718610407639	167384525.85110438
0.8110745790060241	169122653.34064966
0.8112773476507757	170861215.36206886
0.8114801669876885	172600212.023993
0.8116830370294355	174339643.43508154
0.8118859577886929	176086870.53744617
0.8120889292781401	177849823.2194785
0.8122919515104597	179613216.63968122
0.8124950244983374	181377050.90823907
0.8126981482544621	183141326.1353638
0.8129013227915257	184941927.5460665
0.8131045481222237	187153869.15753818
0.8133078242592543	189366363.75441295
0.8135111512153191	191579411.47493634
0.813714529003123	193793012.45739013
0.8139179576353739	196007166.84008992
0.8141214371247829	198150324.05660626
0.8143249674840641	200280142.17729834
0.814528548725935	202410492.75251928
0.8147321808631167	204541375.91538692
0.8149358639083326	206672791.7990446
0.8151395978743097	208401639.78693128
0.8153433827737784	209858568.20764273
0.8155472186194719	211315860.86045888
0.8157511054241268	212773517.8364379
0.815955043200483	214231539.22666198
0.8161590319612831	215849638.06511948
0.8163630717192736	217760795.9279208
0.8165671624872033	219672431.58018568
0.8167713042778252	221584545.14136553
0.8169754971038948	223497136.7309366
0.8171797409781707	225047526.3107976
0.8173840359134155	223702915.46447122
0.8175883819223938	222357968.4654348
0.8177927790178745	221012685.22964785
0.8179972272126291	219667065.6730516
0.8182017265194322	218321109.71156758
0.8184062769510622	218581577.2757672
0.8186108785203001	219089366.5418747
0.8188155312399301	219597282.75529808
0.8190202351227402	220105325.94777536
0.819224990181521	220613496.15105042
0.8194297964290664	218601554.4811924
0.8196346538781738	215070040.2899052
0.8198395625416434	211537643.22007155
0.8200445224322789	208004363.05096897
0.820249533562887	204470199.56182516
0.8204545959462778	200910341.42574078
0.8206597095952644	197309660.5197196
0.8208648745226633	193708079.44346914
0.8210700907412941	190105597.9719502
0.8212753582639793	186502215.88006702
0.8214806771035456	183499785.4665779
0.8216860472728215	184204749.25702742
0.8218914687846397	184909889.2884246
0.822096941651836	185615205.60483
0.822302465887249	186320698.2503141
0.8225080415037209	187026367.2689599
0.8227136685140968	188759578.69252506
0.8229193469312254	190609850.93039182
0.8231250767679583	192460585.73631868
0.8233308580371503	194311783.225946
0.8235366907516598	196163443.5149471
0.8237425749243477	198653130.3982227
0.8239485105680789	201481359.66119558
0.824154497695721	204310295.9814824
0.824360536320145	207139939.5358498
0.8245666264542252	209970290.50110567
0.8247727681108388	211579207.4662201
0.8249789613028664	211438189.8840878
0.8251852060431922	211297137.04755986
0.825391502344703	211156048.94782284
0.8255978502202894	211014925.57606077
0.8258042496828445	210242930.71805587
0.8260107007452654	206407042.40384528
0.8262172034204517	202570195.11756003
0.8264237577213068	198732388.61945218
0.8266303636607373	194893622.66971815
0.8268370212516525	191053897.02849856
0.8270437305069654	190149352.23530662
0.8272504914395923	189474021.6254194
0.8274573040624523	188798522.18287957
0.8276641683884679	188122853.86547968
0.8278710844305652	187447016.63099965
0.8280780522016729	186974111.04209974
0.8282850717147234	186593924.13718736
0.8284921429826521	186213642.18554914
0.8286992660183978	185833265.1634227
0.8289064408349024	185452793.047041
0.8291136674451112	184910015.68539256
0.8293209458619727	184162563.78720075
0.8295282760984382	183414925.0260354
0.829735658167463	182667099.3551789
0.8299430920820048	181919086.72790563
0.8301505778550254	181419410.28854555
0.8303581154994891	181911537.76262602
0.8305657050283641	182403788.26857552
0.8307733464546212	182896161.8371511
0.8309810397912352	183388658.49911964
0.8311887850511829	183881278.28525272
0.8313965822474458	185200306.67199683
0.8316044313930077	186558017.09421268
0.8318123325008561	187916066.94403532
0.8320202855839813	189274456.30631977
0.8322282906553774	190633185.26594493
0.8324363477280413	191622744.88472372
0.8326444568149735	192463788.86429062
0.8328526179291771	193305043.10485142
0.8330608310836596	194146507.6589736
0.8332690962914304	194988182.57923323
0.8334774135655034	195280060.50576282
0.833685782918895	194957635.06021482
0.8338942043646247	194635129.00830564
0.834102677915716	194312542.32988325
0.834311203585195	193989875.00479153
0.8345197813860912	193714203.87913573
0.8347284113314379	193596928.96999526
0.8349370934342709	193479624.7421276
0.8351458277076294	193362291.1882031
0.8353546141645565	193244928.30088994
0.8355634528180977	193127536.072855
0.8357723436813022	193994443.56871316
0.8359812867672226	194873721.74740195
0.8361902820889144	195753219.74563497
0.8363993296594368	196632937.6183678
0.8366084294918518	197512875.4205691
0.8368175815992247	197573004.0547236
0.8370267859946247	197350721.25827223
0.8372360426911234	197128382.89112186
0.8374453517017962	196905988.9393797
0.8376547130397217	196683539.38914964
0.8378641267179816	197158147.3621004
0.8380735927496613	198324591.43268803
0.8382831111478488	199491327.11429265
0.8384926819256358	200658354.47981703
0.8387023050961173	201825673.60218382
0.8389119806723914	202508751.87067
0.8391217086675596	201828367.61087313
0.8393314890947265	201147813.25501186
0.8395413219670003	200467088.76056153
0.8397512072974922	199786194.08498713
0.8399611450993165	199140469.3710131
0.8401711353855914	200249564.19640577
0.8403811781694378	201358936.29550448
0.8405912734639802	202468585.73762822
0.8408014212823464	203578512.59211305
0.8410116216376671	204688716.92831132
0.8412218745430766	203333105.4224847
0.8414321800117124	201259616.99964917
0.8416425380567154	199185610.20470694
0.8418529486912297	197111084.90806547
0.8420634119284025	195036040.98010162
0.8422739277813847	194917645.94551215
0.8424844962633302	196523561.9610599
0.842695117387396	198129879.4556095
0.8429057911667428	199736598.5295328
0.8431165176145345	201343719.28322536
0.8433272967439382	199643834.8842327
0.8435381285681244	189875842.86041868
0.8437490131002665	180105408.83860087
0.8439599503535415	170332532.20828372
0.84417094034113	160557212.3588019
0.8443819830762154	151067960.63212094
0.8445930785719846	147388434.54495272
0.8448042268416277	143707988.57626474
0.8450154278983382	140026622.49608502
0.8452266817553128	136344336.07438558
0.8454379884257517	132661129.08108026
0.8456493479228583	132104225.83336331
0.845860760259839	132300256.61521761
0.846072225449904	132496336.40476736
0.8462837435062666	132692465.21426456
0.8464953144421433	132888643.05596423
0.8467069382707537	133684591.87185495
0.8469186150053215	134948204.50064656
0.847130344659073	136212133.0325957
0.8473421272452377	137476377.5466766
0.8475539627770492	138740938.1218873
0.8477658512677435	140159906.08331683
0.8479777927305605	141906421.2567209
0.8481897871787432	143653373.05891788
0.848401834625538	145400761.59906638
0.8486139350841944	147148586.98634884
0.8488260885679657	148831861.57045534
0.8490382950901076	149723379.25535455
0.8492505546638802	150615119.81967545
0.8494628673025462	151507083.31913713
0.8496752330193721	152399269.80947495
0.8498876518276269	153291679.34643418
0.8501001237405839	153798682.37107953
0.8503126487715191	154228833.702637
0.850525226933712	154659092.57202706
0.8507378582404455	155089459.0061345
0.8509505427050057	155519933.03185073
0.8511632803406821	155784176.848152
0.8513760711607672	155934575.77252817
0.8515889151785576	156085012.29663566
0.8518018124073523	156235486.42987403
0.8520147628604541	156385998.18164563
0.8522277665511693	156742114.35013533
0.8524408234928071	157478490.47521845
0.8526539336986805	158215050.69433305
0.8528670971821053	158951795.05350244
0.8530803139564007	159688723.59876078
0.8532935840348901	160418620.53114244
0.8535069074308987	161087758.43930656
0.8537202841577566	161757063.6319483
0.8539337142287962	162426536.15088826
0.8541471976573534	163096176.03795755
0.8543607344567677	163765983.33499873
0.8545743246403821	163075779.8883466
0.8547879682215422	162169392.04732496
0.8550016652135977	161262777.60934317
0.8552154156299011	160355936.51775184
0.8554292194838088	159448868.71588695
0.8556430767886797	158849839.44533637
0.855856987557877	158437830.96480498
0.8560709518047664	158025719.48215374
0.8562849695427177	157613504.97163165
0.8564990407851035	157201187.40748185
0.8567131655452999	156596664.9498794
0.8569273438366862	155677226.12833592
0.8571415756726455	154757557.44708687
0.8573558610665638	153837658.84866714
0.8575702000318304	152917530.27559885
0.8577845925818384	152510102.64783028
0.857999038729984	155306529.01364154
0.8582135384896665	158103654.4860436
0.858428091874289	160901479.23981395
0.8586426988972576	163700003.449772
0.8588573595719821	166499227.29078346
0.8590720739118751	166667354.04957008
0.8592868419303532	166525226.12314782
0.8595016636408359	166383062.66474393
0.8597165390567462	166240863.6654755
0.8599314681915105	166098629.1164572
0.8601464510585584	165608900.718801
0.860361487671323	164934621.45420104
0.8605765780432408	164260173.61978513
0.8607917221877518	163585557.17341006
0.8610069201182988	162910772.0729236
0.8612221718483286	163708311.4698162
0.8614374773912907	166628848.4628724
0.8616528367606385	169550115.59017602
0.8618682499698288	172472113.03426334
0.8620837170323213	175394840.9777112
0.8622992379615795	177770442.83863947
0.8625148127710699	177435505.3666005
0.8627304414742627	177100484.16019353
0.8629461240846313	176765379.1984849
0.8631618606156526	176430190.46053582
0.8633776510808066	176094917.92540228
0.8635934954935769	175676739.54622358
0.8638093938674504	175251667.55119136
0.8640253462159173	174826489.28816035
0.8642413525524714	174401204.73056364
0.8644574128906095	173975813.8518276
0.8646735272438323	172024163.12247074
0.8648896956256433	169362320.8138772
0.8651059180495498	166699813.04470637
0.8653221945290621	164036639.6485958
0.8655385250776946	161372800.45913246
0.8657549097089641	160873844.21608213
0.8659713484363913	163147141.87650895
0.8661878412735006	165421007.8613519
0.866404388233819	167695442.3126908
0.8666209893308775	169970445.37264147
0.8668376445782103	171997305.474266
0.8670543539893549	173009553.54998338
0.8672711175778525	174022054.68772042
0.8674879353572469	175034808.95074075
0.8677048073410862	176047816.4023272
0.8679217335429217	177061077.1057772
0.8681387139763074	175003244.95732728
0.8683557486548015	172792321.69820416
0.8685728375919655	170580845.70826355
0.8687899808013633	168368816.84933025
0.8690071782965637	166156234.98317936
0.869224430091138	166289709.13871017
0.8694417361986609	167378048.9664402
0.8696590966327107	168466660.87912694
0.869876511406869	169555544.94479188
0.8700939805347206	170644701.23147273
0.8703115040298544	172242992.7286787
0.870529081905862	174423461.326542
0.8707467141763385	176604475.041554
0.8709644008548827	178786034.00999466
0.8711821419550964	180968138.3681761
0.8713999374905854	183009654.2118779
0.871617787474958	184564577.8925029
0.8718356919218269	186119890.30404943
0.8720536508448075	187675591.543699
0.8722716642575187	189231681.70865753
0.8724897321735832	190788160.896158
0.8727078546066265	192666551.16853124
0.8729260315702784	194550302.44228122
0.873144263078171	196434524.65384758
0.8733625491439405	198319217.920967
0.8735808897812266	200204382.361404
0.8737992850036719	200989151.72208494
0.874017734824923	201384208.50784028
0.8742362392586293	201779364.0577919
0.874454798318444	202174618.39663097
0.8746734120180236	202569971.5490547
0.8748920803710283	202838124.39878228
0.875110803391121	202978420.7799513
0.8753295810919689	203118752.2352157
0.875548413487242	203259118.77334392
0.8757673005906139	203399520.4031067
0.8759862424157616	203951833.19183633
0.8762052389763657	205696066.87175417
0.8764242902861098	207440736.61009076
0.8766433963586814	209185842.5158624
0.8768625572077712	210931384.69811103
0.8770817728470732	212672064.76203254
0.8773010432902849	213999486.18297228
0.8775203685511077	215327239.45926917
0.8777397486432454	216655324.67388347
0.8779591835804065	217983741.90980303
0.8781786733763015	219312491.2500298
0.8783982180446457	220868632.6557195
0.878617817599157	222492709.16642955
0.8788374720535569	224117191.69626653
0.8790571814215703	225742080.34673557
0.8792769457169257	227367375.21936724
0.879496764953355	228616897.9560032
0.8797166391445934	229528523.9301944
0.8799365683043796	230440377.81087923
0.8801565524464557	231352459.6550342
0.8803765915845676	232264769.51965111
0.8805966857324639	232778103.77936593
0.880816834903897	232288886.3989002
0.881037039112623	231799546.71408918
0.8812572983724012	231310084.69435698
0.8814776126969944	230820500.30911964
0.8816979821001687	230431954.48867756
0.8819184065956938	232424657.57848147
0.8821388861973429	234417858.84405985
0.8823594209188923	236411558.40995273
0.882580010774122	238405756.40073615
0.8828006557768155	240400452.9410184
0.8830213559407598	242952368.3275539
0.8832421112797452	245644942.46733364
0.8834629218075651	248338189.75064668
0.8836837875380171	251032110.3457814
0.8839047084849018	253726704.42106527
0.884125684662023	254984098.07068387
0.8843467160831886	255089533.63590953
0.8845678027622095	255194995.56002653
0.8847889447129001	255300483.84962454
0.8850101419490785	255405998.51129496
0.8852313944845657	251147380.1876217
0.885452702333187	237335087.62860525
0.8856740655087704	223519341.99645105
0.8858954840251476	209700142.42789254
0.8861169578961539	195877488.0594483
0.886338487135628	182763222.87558892
0.886560071757412	179118488.1172697
0.8867817117753515	175472842.175261
0.8870034072032955	171826284.82176515
0.8872251580550963	168178815.82893518
0.8874469643446101	164530434.96885478
0.8876688260856963	164977319.72691676
0.8878907432922178	166272072.67953023
0.8881127159780409	167567149.32038105
0.8883347441570356	168862549.73039362
0.8885568278430749	170158273.99050736
0.8887789670500358	171657065.24715415
0.8890011617917983	173300051.7888863
0.8892234120822464	174943449.07725465
0.8894457179352669	176587257.21494374
0.8896680793647509	178231476.30466855
0.8898904963845921	180367382.2411114
0.8901129690086883	183441189.2968754
0.8903354972509405	186515764.80440256
0.8905580811252535	189591108.95580903
0.8907807206455347	192667221.94324917
0.8910034158256963	195598613.22961235
0.8912261666796527	197230491.9727604
0.8914489732213227	198862778.6855947
0.8916718354646282	200495473.4701088
0.8918947534234944	202128576.4283175
0.8921177271118502	203762087.66226467
0.8923407565436284	203369386.23554045
0.8925638417327644	202645989.63566244
0.8927869826931977	201922412.18663418
0.8930101794388711	201198653.84324375
0.8932334319837308	200474714.5602676
0.8934567403417267	200205102.64616495
0.8936801045268123	200217846.76843512
0.8939035245529441	200230594.07673585
0.8941270004340824	200243344.57186365
0.894350532184191	200256098.25461522
0.8945741198172371	200971643.14856112
0.8947977633471915	202852857.0333307
0.8950214627880284	204734541.22157142
0.8952452181537254	206616695.83085808
0.8954690294582639	208499320.97879818
0.8956928967156286	210405299.44855776
0.8959168199398075	212460254.760785
0.8961407991447926	214515723.81184086
0.8963648343445789	216571706.7301594
0.896588925553165	218628203.64420635
0.8968130727845534	220685214.68248206
0.8970372760527496	222793398.33058065
0.8972615353717629	224908447.40522483
0.8974858507556059	227024025.24213794
0.8977102222182949	229140131.9735097
0.8979346497738496	231256767.73156548
0.8981591334362931	233780403.39866024
0.8983836732196523	236526959.27033573
0.8986082691379572	239274201.7809773
0.8988329212052417	242022131.10224655
0.8990576294355432	244770747.4058485
0.8992823938429022	247468345.2440467
0.8995072144413631	250089737.79631862
0.8997320912449734	252711785.6967277
0.8999570242677847	255334489.10911125
0.9001820135238516	257957848.1973481
0.9004070590272328	260487892.0655193
0.9006321607919896	262525940.08950418
0.9008573188321878	264564497.62549713
0.9010825331618959	266603564.8008731
0.9013078037951865	268643141.74304324
0.9015331307461353	270683228.5794478
0.9017585140288219	271603105.03519464
0.9019839536573292	272426680.9068955
0.9022094496457435	273250462.6725638
0.9024350020081551	274074450.3836743
0.9026606107586572	274898644.0917124
0.902886275911347	275692856.15194684
0.9031119974803249	276472714.1943553
0.9033377754796951	277252767.20127434
0.903563609923565	278033015.2214447
0.903789500826046	278813458.3036207
0.9040154482012526	280080361.5094078
0.904241452063303	281977495.307048
0.9044675124263188	283875103.38813716
0.9046936293044254	285773185.87124634
0.9049198027117517	287671742.8749772
0.9051460326624297	289506431.88050205
0.9053723191705955	291067593.63957804
0.9055986622503881	292629145.68909234
0.9058250619159507	294191088.12661904
0.9060515181814298	295753421.04975617
0.9062780310609752	297316144.55612296
0.9065046005687405	298567098.3611961
0.906731226718883	299800950.3999078
0.9069579095255627	301035110.90162766
0.907184649002944	302269579.943473
0.907411445165195	303504357.6025801
0.9076382980264862	306123731.3419581
0.907865207600993	309318651.91229945
0.9080921739028933	312514371.21278244
0.9083191969463691	315710889.44309
0.9085462767456058	318908206.80295676
0.9087734133147922	320952343.434434
0.9090006066681211	321664129.8295411
0.909227856819788	322376094.171246
0.9094551637839932	323088236.5040373
0.9096825275749393	323800556.87241167
0.9099099482068329	324703771.51099104
0.9101374256938848	326285020.599842
0.9103649600503083	327866665.0009644
0.9105925512903209	329448704.8131868
0.9108201994281437	331031140.13536394
0.9110479044780008	332613971.0663698
0.9112756664541204	334814469.9497807
0.911503485370734	337029648.21077025
0.9117313612420768	339245380.26632506
0.9119592940823873	341461666.25489306
0.912187283905908	343678506.31495893
0.9124153307268845	345227901.2294909
0.9126434345595664	346535238.7722986
0.9128715954182063	347842903.1494908
0.9130998133170609	349150894.44277793
0.9133280882703902	350459212.73388827
0.913556420292458	352780097.4170406
0.9137848093975312	356145499.6704274
