#wavelength	surface flux
0.8	10407447.102217648
0.8002000000000001	10542017.366860775
0.8004000500000003	10687226.93391593
0.8006001500125003	10832579.930969553
0.8008003000500035	10977969.266272452
0.8010005001250161	11123394.948909244
0.8012007502500472	11268856.987966483
0.8014010504376099	11409155.532701034
0.8016014007002193	11547747.357889285
0.8018018010503944	11686373.831033833
0.8020022515006572	11825034.960796729
0.8022027520635323	11963730.755841948
0.8024033027515483	12103716.60287897
0.8026039035772362	12244967.667934109
0.8028045545531306	12386254.045755519
0.8030052556917691	12527575.745171452
0.803206007005692	12668932.775012115
0.8034068085074435	12810175.75816362
0.8036076602095705	12951035.301339839
0.8038085621246229	13091930.05940174
0.8040095142651542	13232860.041153243
0.8042105166437206	13373825.255400136
0.8044115692728815	13514661.402460653
0.8046126721651998	13648465.560916863
0.8048138253332411	13782303.170412581
0.8050150287895745	13916174.239310797
0.805216282546772	14050078.775976202
0.8054175866174087	14184016.788775701
0.8056189410140631	14328023.192013172
0.8058203457493168	14474906.12608
0.8060218008357541	14621825.780880159
0.8062233062859632	14768782.16559409
0.8064248621125346	14915775.289404098
0.806626468328063	15066486.616935259
0.8068281249451449	15220397.54715994
0.8070298319763813	15374346.955117367
0.8072315894343755	15528334.850426668
0.8074333973317341	15682361.242709855
0.8076352556810671	15829450.843306553
0.8078371644949874	15959786.508586666
0.8080391237861113	16090154.757783128
0.8082411335670578	16220555.59904181
0.8084431938504498	16350989.040510943
0.8086453046489125	16481301.667608256
0.8088474659750746	16608790.416460915
0.8090496778415686	16736311.037500957
0.809251940261029	16863863.53869617
0.8094542532460944	16991447.928016786
0.8096566168094059	17119064.21343459
0.8098590309636085	17264462.072794493
0.8100614957213493	17414050.736783396
0.8102640110952797	17563676.797938313
0.8104665770980536	17713340.265608575
0.8106691937423283	17863041.149145816
0.8108718610407639	18013073.395846143
0.8110745790060241	18163367.909524802
0.8112773476507757	18313699.99683201
0.8114801669876885	18464069.66716101
0.8116830370294355	18614476.9299075
0.8118859577886929	18758733.941469785
0.8120889292781401	18890174.576022565
0.8122919515104597	19021648.07073398
0.8124950244983374	19153154.433819074
0.8126981482544621	19284693.673494924
0.8129013227915257	19419567.145317733
0.8131045481222237	19592275.267243184
0.8133078242592543	19765026.56619914
0.8135111512153191	19937821.052979786
0.813714529003123	20110658.738382146
0.8139179576353739	20283539.633205887
0.8141214371247829	20514197.40219523
0.8143249674840641	20756108.362195652
0.814528548725935	20998079.79993593
0.8147321808631167	21240111.73053597
0.8149358639083326	21482204.169118583
0.8151395978743097	21687037.793522496
0.8153433827737784	21866708.116276417
0.8155472186194719	22046423.35661096
0.8157511054241268	22226183.525755554
0.815955043200483	22405988.63494256
0.8161590319612831	22517962.846069753
0.8163630717192736	22505590.830564857
0.8165671624872033	22493215.7220561
0.8167713042778252	22480837.5197702
0.8169754971038948	22468456.222933725
0.8171797409781707	22369312.584314782
0.8173840359134155	21577518.22516197
0.8175883819223938	20785525.917420283
0.8177927790178745	19993335.611601207
0.8179972272126291	19200947.25820547
0.8182017265194322	18408360.80772218
0.8184062769510622	18209823.27804954
0.8186108785203001	18102681.942372836
0.8188155312399301	17995513.82136236
0.8190202351227402	17888318.90832151
0.819224990181521	17781097.19655247
0.8194297964290664	18632444.955072567
0.8196346538781738	20061797.755356204
0.8198395625416434	21491507.893839344
0.8200445224322789	22921575.459857706
0.820249533562887	24352000.542767152
0.8204545959462778	25440400.71107457
0.8206597095952644	25978017.55519266
0.8208648745226633	26515768.8035222
0.8210700907412941	27053654.489663735
0.8212753582639793	27591674.64722626
0.8214806771035456	28084858.151265826
0.8216860472728215	28301087.82403359
0.8218914687846397	28517371.55421955
0.822096941651836	28733709.35533817
0.822302465887249	28950101.24090695
0.8225080415037209	29166547.22444723
0.8227136685140968	29369295.344664134
0.8229193469312254	29570533.0153544
0.8231250767679583	29771820.99546241
0.8233308580371503	29973159.297565334
0.8235366907516598	30174547.934243932
0.8237425749243477	30493326.83439426
0.8239485105680789	30874377.64768261
0.824154497695721	31255523.72367404
0.824360536320145	31636765.08618454
0.8245666264542252	32018101.759035643
0.8247727681108388	32353814.34875339
0.8249789613028664	32624132.056065015
0.8251852060431922	32894517.3428037
0.825391502344703	33164970.225863952
0.8255978502202894	33435490.72214521
0.8258042496828445	33707316.1484944
0.8260107007452654	33985218.56551458
0.8262172034204517	34263190.45813872
0.8264237577213068	34541231.8437361
0.8266303636607373	34819342.73967999
0.8268370212516525	35097523.163347736
0.8270437305069654	35304960.9941934
0.8272504914395923	35506917.17613622
0.8274573040624523	35708923.84712457
0.8276641683884679	35910981.019780494
0.8278710844305652	36113088.706729814
0.8280780522016729	36354786.30311997
0.8282850717147234	36614617.70243853
0.8284921429826521	36874514.05960665
0.8286992660183978	37134475.39086427
0.8289064408349024	37394501.71245452
0.8291136674451112	37657490.451529846
0.8293209458619727	37924198.42775348
0.8295282760984382	38190973.08097081
0.829735658167463	38457814.42785176
0.8299430920820048	38724722.48506908
0.8301505778550254	38991684.13988769
0.8303581154994891	39258660.131786495
0.8305657050283641	39525702.867683545
0.8307733464546212	39792812.36426436
0.8309810397912352	40059988.63821976
0.8311887850511829	40327231.70624311
0.8313965822474458	40670607.751653954
0.8316044313930077	41017600.27423962
0.8318123325008561	41364679.54495626
0.8320202855839813	41711845.585490406
0.8322282906553774	42059098.41753472
0.8324363477280413	42363576.30962228
0.8326444568149735	42650874.33056926
0.8328526179291771	42938244.176021144
0.8330608310836596	43225685.86393482
0.8332690962914304	43513199.41227011
0.8334774135655034	43760489.86434973
0.833685782918895	43962831.329108685
0.8338942043646247	44165223.3792337
0.834102677915716	44367666.02737139
0.834311203585195	44570159.28617096
0.8345197813860912	44790747.01441082
0.8347284113314379	45072127.16303115
0.8349370934342709	45353577.656688474
0.8351458277076294	45635098.51296887
0.8353546141645565	45916689.749463804
0.8355634528180977	46198351.38376775
0.8357723436813022	46399368.35121883
0.8359812867672226	46599438.94730912
0.8361902820889144	46799559.561048344
0.8363993296594368	46999730.204941064
0.8366084294918518	47199950.89149482
0.8368175815992247	47549877.766880155
0.8370267859946247	47951435.233558156
0.8372360426911234	48353093.08960271
0.8374453517017962	48754851.36011123
0.8376547130397217	49156710.07018733
0.8378641267179816	49489699.55513795
0.8380735927496613	49754336.42644558
0.8382831111478488	50019039.456970885
0.8384926819256358	50283808.66325369
0.8387023050961173	50548644.061838284
0.8389119806723914	50813264.6190141
0.8391217086675596	51077160.36406662
0.8393314890947265	51341122.08305521
0.8395413219670003	51605149.79247358
0.8397512072974922	51869243.508819476
0.8399611450993165	52131105.60108037
0.8401711353855914	52278932.804463275
0.8403811781694378	52426796.96464698
0.8405912734639802	52574698.090870775
0.8408014212823464	52722636.19237619
0.8410116216376671	52870611.27840696
0.8412218745430766	53130766.35074647
0.8414321800117124	53423615.74523341
0.8416425380567154	53716538.35206911
0.8418529486912297	54009534.1895566
0.8420634119284025	54302603.276003204
0.8422739277813847	54786877.34110007
0.8424844962633302	55439666.92906158
0.842695117387396	56092619.714419246
0.8429057911667428	56745735.73797329
0.8431165176145345	57399015.04053353
0.8433272967439382	57859753.85639063
0.8435381285681244	57850549.836033426
0.8437490131002665	57841343.51467113
0.8439599503535415	57832134.891728505
0.84417094034113	57822923.96663013
0.8443819830762154	57828854.519394554
0.8445930785719846	58139859.30946573
0.8448042268416277	58450941.850734256
0.8450154278983382	58762102.16263805
0.8452266817553128	59073340.264619805
0.8454379884257517	59384656.17612709
0.8456493479228583	59905480.143771335
0.845860760259839	60476867.6331332
0.846072225449904	61048397.9693674
0.8462837435062666	61620071.18818578
0.8464953144421433	62191887.325309195
0.8467069382707537	62641338.35789961
0.8469186150053215	62995410.484037
0.847130344659073	63349571.128206015
0.8473421272452377	63703820.312535726
0.8475539627770492	64058158.05916188
0.8477658512677435	64356486.63960302
0.8479777927305605	64535773.6158138
0.8481897871787432	64715105.41376858
0.848401834625538	64894482.04467296
0.8486139350841944	65073903.51973495
0.8488260885679657	65207504.39910886
0.8490382950901076	64782055.11262757
0.8492505546638802	64356499.46382445
0.8494628673025462	63930837.42610928
0.8496752330193721	63505068.97288405
0.8498876518276269	63079194.07754609
0.8501001237405839	60149412.39941545
0.8503126487715191	56719095.75933548
0.850525226933712	53287921.5400974
0.8507378582404455	49855889.52730454
0.8509505427050057	46422999.50650649
0.8511632803406821	43679309.28435246
0.8513760711607672	41407496.522931784
0.8515889151785576	39135115.80831722
0.8518018124073523	36862166.99852591
0.8520147628604541	34588649.9515335
0.8522277665511693	33794383.07634932
0.8524408234928071	35736663.16862191
0.8526539336986805	37679428.83091809
0.8528670971821053	39622680.18462997
0.8530803139564007	41566417.35117799
0.8532935840348901	43680808.5847734
0.8535069074308987	47232885.25334386
0.8537202841577566	50785849.941084445
0.8539337142287962	54339702.86999736
0.8541471976573534	57894444.26214029
0.8543607344567677	61450074.3396319
0.8545743246403821	61911739.70395215
0.8547879682215422	61882022.35723817
0.8550016652135977	61852297.58118753
0.8552154156299011	61822565.373942874
0.8554292194838088	61792825.73364638
0.8556430767886797	61765012.807859786
0.855856987557877	61738367.2932856
0.8560709518047664	61711715.11733279
0.8562849695427177	61685056.27833597
0.8564990407851035	61658390.77462941
0.8567131655452999	61529936.33144803
0.8569273438366862	61234676.123417966
0.8571415756726455	60939342.10033584
0.8573558610665638	60643934.24374783
0.8575702000318304	60348452.53519601
0.8577845925818384	60215176.16705363
0.857999038729984	61095522.21487387
0.8582135384896665	61976088.349205874
0.858428091874289	62856874.6250715
0.8586426988972576	63737881.09750587
0.8588573595719821	64619107.82155864
0.8590720739118751	64413622.71242127
0.8592868419303532	64079933.68497388
0.8595016636408359	63746161.23526962
0.8597165390567462	63412305.34245305
0.8599314681915105	63078365.98566319
0.8601464510585584	61974919.62327117
0.860361487671323	60462792.76555117
0.8605765780432408	58950287.87611718
0.8607917221877518	57437404.86045959
0.8610069201182988	55924143.624048494
0.8612221718483286	52939444.13317327
0.8614374773912907	47833266.486437574
0.8616528367606385	42725812.29529159
0.8618682499698288	37617081.24059458
0.8620837170323213	32507073.003134742
0.8622992379615795	28240903.839307033
0.8625148127710699	28155826.286423963
0.8627304414742627	28070727.46415266
0.8629461240846313	27985607.367175777
0.8631618606156526	27900465.990174644
0.8633776510808066	27815303.327829275
0.8635934954935769	29466274.284506187
0.8638093938674504	31259973.741941337
0.8640253462159173	33054121.624240782
0.8642413525524714	34848718.043510765
0.8644574128906095	36643763.11188519
0.8646735272438323	37456609.350621514
0.8648896956256433	37812700.443274155
0.8651059180495498	38168880.55869998
0.8653221945290621	38525149.71915432
0.8655385250776946	38881507.94689927
0.8657549097089641	39763890.64372961
0.8659713484363913	41319806.83597028
0.8661878412735006	42876112.00725974
0.866404388233819	44432806.25484181
0.8666209893308775	45989889.67598505
0.8668376445782103	47165042.60963144
0.8670543539893549	46780048.31669474
0.8672711175778525	46394957.77518453
0.8674879353572469	46009770.96103937
0.8677048073410862	45624487.85019053
0.8679217335429217	45239108.41856374
0.8681387139763074	45693688.50759028
0.8683557486548015	46190114.076806635
0.8685728375919655	46686663.75241591
0.8687899808013633	47183337.565443
0.8690071782965637	47680135.546923995
0.869224430091138	47440215.96727078
0.8694417361986609	46900416.42679679
0.8696590966327107	46360481.936437786
0.869876511406869	45820412.462456174
0.8700939805347206	45280207.97110633
0.8703115040298544	44948290.92906081
0.870529081905862	44854578.12012694
0.8707467141763385	44760841.882990874
0.8709644008548827	44667082.211795524
0.8711821419550964	44573299.10068243
0.8713999374905854	44479029.359417655
0.871617787474958	44383137.440736935
0.8718356919218269	44287221.54907645
0.8720536508448075	44191281.67844305
0.8722716642575187	44095317.82284205
0.8724897321735832	43999329.976277106
0.8727078546066265	44819762.46539005
0.8729260315702784	45654342.187219545
0.873144263078171	46489130.5539786
0.8733625491439405	47324127.61782943
0.8735808897812266	48159333.43094654
0.8737992850036719	48157774.82298254
0.874017734824923	47859773.672104254
0.8742362392586293	47561698.02093836
0.874454798318444	47263547.850859694
0.8746734120180236	46965323.14323854
0.8748920803710283	46721814.43467119
0.875110803391121	46533304.13612118
0.8753295810919689	46344746.709996425
0.875548413487242	46156142.14451514
0.8757673005906139	45967490.42789248
0.8759862424157616	46391974.75438415
0.8762052389763657	48590839.74642371
0.8764242902861098	50790254.454709746
0.8766433963586814	52990219.016673446
0.8768625572077712	55190733.56977831
0.8770817728470732	57363774.963362716
0.8773010432902849	57349371.98723229
0.8775203685511077	57334965.41035782
0.8777397486432454	57320555.23183914
0.8779591835804065	57306141.45077582
0.8781786733763015	57291724.066267245
0.8783982180446457	55779625.4057056
0.878617817599157	53821617.60688612
0.8788374720535569	51863120.30611786
0.8790571814215703	49904133.3810249
0.8792769457169257	47944656.70920061
0.879496764953355	47164653.41411386
0.8797166391445934	47445319.57765184
0.8799365683043796	47726055.907730736
0.8801565524464557	48006862.421892144
0.8803765915845676	48287739.137682356
0.8805966857324639	48583294.72334698
0.880816834903897	48915616.74896116
0.881037039112623	49248021.85508187
0.8812572983724012	49580510.06247908
0.8814776126969944	49913081.391928285
0.8816979821001687	50252239.20964157
0.8819184065956938	50744571.66291324
0.8821388861973429	51237027.19929873
0.8823594209188923	51729605.84956785
0.882580010774122	52222307.64449931
0.8828006557768155	52715132.61487978
0.8830213559407598	53764024.1931121
0.8832421112797452	54953003.40296809
0.8834629218075651	56142279.85762583
0.8836837875380171	57331853.63139759
0.8839047084849018	58521724.79861298
0.884125684662023	58393869.84816112
0.8843467160831886	57209755.361209616
0.8845678027622095	56025344.84563637
0.8847889447129001	54840638.227434
0.8850101419490785	53655635.43257731
0.8852313944845657	54382032.934982024
0.885452702333187	59293081.30938925
0.8856740655087704	64205357.445889354
0.8858954840251476	69118861.65142226
0.8861169578961539	74033594.23300429
0.886338487135628	78394601.2271835
0.886560071757412	75371696.22504178
0.8867817117753515	72348035.49664958
0.8870034072032955	69323618.85307392
0.8872251580550963	66298446.10534091
0.8874469643446101	63272517.06441911
0.8876688260856963	62593586.31034074
0.8878907432922178	62400383.76127371
0.8881127159780409	62207132.91156955
0.8883347441570356	62013833.74915273
0.8885568278430749	61820486.2619455
0.8887789670500358	60794191.23959523
0.8890011617917983	59176802.903611414
0.8892234120822464	57559010.220542885
0.8894457179352669	55940813.089304894
0.8896680793647509	54322211.40878282
0.8898904963845921	53188363.60027963
0.8901129690086883	52979927.561412126
0.8903354972509405	52771439.413534954
0.8905580811252535	52562899.143620655
0.8907807206455347	52354306.73863915
0.8910034158256963	52203864.32296889
0.8912261666796527	52573534.69575318
0.8914489732213227	52943297.48613077
0.8916718354646282	53313152.71720631
0.8918947534234944	53683100.412089266
0.8921177271118502	54053140.59389571
0.8923407565436284	53732231.34645709
0.8925638417327644	53298514.141093366
0.8927869826931977	52864688.50642816
0.8930101794388711	52430754.41535432
0.8932334319837308	51996711.84075778
0.8934567403417267	51918190.70410274
0.8936801045268123	52060632.08721523
0.8939035245529441	52203109.080673404
0.8941270004340824	52345621.69338
0.894350532184191	52488169.93423974
0.8945741198172371	54237881.630985446
0.8947977633471915	58653260.538992845
0.8950214627880284	63069743.291727066
0.8952452181537254	67487330.16514684
0.8954690294582639	71906021.43528762
0.8956928967156286	76052379.1942709
0.8959168199398075	78425257.13512932
0.8961407991447926	80798728.29547356
0.8963648343445789	83172792.82360783
0.896588925553165	85547450.86787279
0.8968130727845534	87922702.57664911
0.8970372760527496	87234271.33536293
0.8972615353717629	86162265.25434355
0.8974858507556059	85089991.1718038
0.8977102222182949	84017449.02074371
0.8979346497738496	82944638.73414525
0.8981591334362931	82363255.73751822
0.8983836732196523	82050624.09850825
0.8986082691379572	81737914.30158874
0.8988329212052417	81425126.32722
0.8990576294355432	81112260.15585738
0.8992823938429022	80775723.08692347
0.8995072144413631	80404022.56520312
0.8997320912449734	80032229.11835249
0.8999570242677847	79660342.72314021
0.9001820135238516	79288363.35632911
0.9004070590272328	79468787.77356036
0.9006321607919896	82545633.90337259
0.9008573188321878	85623249.24472038
0.9010825331618959	88701633.98990205
0.9013078037951865	91780788.33127052
0.9015331307461353	94860712.46122268
0.9017585140288219	98535973.31382339
0.9019839536573292	102263364.55620782
0.9022094496457435	105991687.64640015
0.9024350020081551	109720942.81736927
0.9026606107586572	113451130.30212991
0.902886275911347	114839054.2775959
0.9031119974803249	115097741.63345085
0.9033377754796951	115356493.66114475
0.903563609923565	115615310.37684545
0.903789500826046	115874191.79672526
0.9040154482012526	114630797.4073494
0.904241452063303	111440941.18967983
0.9044675124263188	108250287.5079566
0.9046936293044254	105058836.16281341
0.9049198027117517	101866586.95483238
0.9051460326624297	99199330.08526964
0.9053723191705955	98770344.24550961
0.9055986622503881	98341251.15929003
0.9058250619159507	97912050.79979889
0.9060515181814298	97482743.14021762
0.9062780310609752	97053328.15372173
0.9065046005687405	100738201.56606525
0.906731226718883	104653526.17151777
0.9069579095255627	108569829.60811654
0.907184649002944	112487112.12057474
0.907411445165195	116405373.95366505
0.9076382980264862	118802005.87590483
0.907865207600993	120566900.0606248
0.9080921739028933	122332235.46889041
0.9083191969463691	124098012.2110078
0.9085462767456058	125864230.3973116
0.9087734133147922	125516592.47234692
0.9090006066681211	122726827.62666732
0.909227856819788	119936365.33977999
0.9094551637839932	117145205.43731707
0.9096825275749393	114353347.74487944
0.9099099482068329	112571868.2773068
0.9101374256938848	114383325.74826431
0.9103649600503083	116195236.08358873
0.9105925512903209	118007599.39649662
0.9108201994281437	119820415.80023463
0.9110479044780008	121633685.40807152
0.9112756664541204	125041428.36501192
0.911503485370734	128486510.09519802
0.9117313612420768	131932453.0958167
0.9119592940823873	135379257.5821845
0.912187283905908	138826923.76967496
0.9124153307268845	139684379.34653977
0.9126434345595664	139601641.412191
0.9128715954182063	139518882.7933587
0.9130998133170609	139436103.48487166
0.9133280882703902	139353303.48155752
0.913556420292458	138507297.81681085
0.9137848093975312	136873996.73119482
0.9140132555998806	135240287.3203076
0.9142417589137806	133606169.48206756
0.9144703193535092	131971643.1143669
0.9146989369333476	130570643.93727145
