#wavelength	surface flux
0.8	2982265.740816997
0.8002000000000001	3029261.8815077827
0.8004000500000003	3077573.5910896882
0.8006001500125003	3125910.548463255
0.8008003000500035	3174259.5900761685
0.8010005001250161	3222620.718949508
0.8012007502500472	3270993.9381049955
0.8014010504376099	3318584.825643994
0.8016014007002193	3365921.5028267684
0.8018018010503944	3413270.0141788386
0.8020022515006572	3460630.3626587675
0.8022027520635323	3508002.5512257763
0.8024033027515483	3557503.6887320555
0.8026039035772362	3609091.8827871475
0.8028045545531306	3660692.9738907563
0.8030052556917691	3712306.965267165
0.803206007005692	3763933.860141373
0.8034068085074435	3815620.6662921435
0.8036076602095705	3867452.1548008816
0.8038085621246229	3919296.6011817064
0.8040095142651542	3971154.008674158
0.8042105166437206	4023024.3805184653
0.8044115692728815	4074916.1784352628
0.8046126721651998	4127184.763409649
0.8048138253332411	4179466.4155302364
0.8050150287895745	4231761.138063903
0.805216282546772	4284068.934278188
0.8054175866174087	4336389.8074415
0.8056189410140631	4389288.389029475
0.8058203457493168	4442360.021666243
0.8060218008357541	4495444.922211102
0.8062233062859632	4548543.093981124
0.8064248621125346	4601654.540294052
0.806626468328063	4656680.075601689
0.8068281249451449	4713351.934107272
0.8070298319763813	4770037.960577551
0.8072315894343755	4826738.158554406
0.8074333973317341	4883452.531580776
0.8076352556810671	4938524.849793613
0.8078371644949874	4989624.105715537
0.8080391237861113	5040736.136451455
0.8082411335670578	5091860.945195024
0.8084431938504498	5142998.535140833
0.8086453046489125	5194025.280029557
0.8088474659750746	5242763.022653901
0.8090496778415686	5291512.949713967
0.809251940261029	5340275.064255763
0.8094542532460944	5389049.369326235
0.8096566168094059	5437835.86797292
0.8098590309636085	5491840.430958428
0.8100614957213493	5547076.970930503
0.8102640110952797	5602327.320037577
0.8104665770980536	5657591.48173195
0.8106691937423283	5712869.459466768
0.8108718610407639	5769288.1861966755
0.8110745790060241	5826582.721449
0.8112773476507757	5883891.580335187
0.8114801669876885	5941214.766436081
0.8116830370294355	5998552.283333467
0.8118859577886929	6054285.934970286
0.8120889292781401	6106672.448607732
0.8122919515104597	6159072.0588735845
0.8124950244983374	6211484.769042006
0.8126981482544621	6263910.582387961
0.8129013227915257	6317281.090162948
0.8131045481222237	6381331.765312165
0.8133078242592543	6445398.453130177
0.8135111512153191	6509481.157620126
0.813714529003123	6573579.882786206
0.8139179576353739	6637694.632633587
0.8141214371247829	6718921.986636455
0.8143249674840641	6803484.961022337
0.814528548725935	6888069.076151764
0.8147321808631167	6972674.337310087
0.8149358639083326	7057300.749783674
0.8151395978743097	7133638.086934848
0.8153433827737784	7204379.767064256
0.8155472186194719	7275139.132613671
0.8157511054241268	7345916.18800446
0.815955043200483	7416710.937659145
0.8161590319612831	7484959.916934855
0.8163630717192736	7548528.713865305
0.8165671624872033	7612113.402994917
0.8167713042778252	7675713.988296874
0.8169754971038948	7739330.473745189
0.8171797409781707	7788457.829453635
0.8173840359134155	7721799.289343391
0.8175883819223938	7655124.084598196
0.8177927790178745	7588432.211051776
0.8179972272126291	7521723.664536953
0.8182017265194322	7454998.440885568
0.8184062769510622	7459600.26983001
0.8186108785203001	7475181.993938915
0.8188155312399301	7490767.613478828
0.8190202351227402	7506357.1294236425
0.819224990181521	7521950.542747433
0.8194297964290664	7686281.844109147
0.8196346538781738	7940303.376753222
0.8198395625416434	8194388.414780358
0.8200445224322789	8448536.974067107
0.820249533562887	8702749.070493601
0.8204545959462778	8908274.010723673
0.8206597095952644	9035387.381794507
0.8208648745226633	9162532.531208206
0.8210700907412941	9289709.466909237
0.8212753582639793	9416918.196844066
0.8214806771035456	9535844.963231334
0.8216860472728215	9603578.535374701
0.8218914687846397	9671329.040911108
0.822096941651836	9739096.484073933
0.822302465887249	9806880.86909751
0.8225080415037209	9874682.20021738
0.8227136685140968	9940215.698988914
0.8229193469312254	10005506.210549166
0.8231250767679583	10070813.044737332
0.8233308580371503	10136136.205634007
0.8235366907516598	10201475.697320955
0.8237425749243477	10306167.301887907
0.8239485105680789	10431733.733199798
0.824154497695721	10557331.556119435
0.824360536320145	10682960.778494826
0.8245666264542252	10808621.408175806
0.8247727681108388	10922242.495166298
0.8249789613028664	11018604.103882046
0.8251852060431922	11114989.803000059
0.825391502344703	11211399.598542806
0.8255978502202894	11307833.496534528
0.8258042496828445	11403839.120897977
0.8260107007452654	11497671.721127434
0.8262172034204517	11591527.779506851
0.8264237577213068	11685407.301900888
0.8266303636607373	11779310.294175565
0.8268370212516525	11873236.762198266
0.8270437305069654	11948641.96001795
0.8272504914395923	12022616.857307432
0.8274573040624523	12096610.248321254
0.8276641683884679	12170622.137682766
0.8278710844305652	12244652.530016705
0.8280780522016729	12332884.327238558
0.8282850717147234	12427621.158496598
0.8284921429826521	12522381.673962355
0.8286992660183978	12617165.879557053
0.8289064408349024	12711973.781203084
0.8291136674451112	12804582.857453572
0.8293209458619727	12894412.59032779
0.8295282760984382	12984264.780635105
0.829735658167463	13074139.433990102
0.8299430920820048	13164036.556008324
0.8301505778550254	13254933.959274556
0.8303581154994891	13349756.800837317
0.8305657050283641	13444603.348110562
0.8307733464546212	13539473.607020551
0.8309810397912352	13634367.583495425
0.8311887850511829	13729285.283464227
0.8313965822474458	13851083.02306245
0.8316044313930077	13974157.755515192
0.8318123325008561	14097263.256651161
0.8320202855839813	14220399.534162354
0.8322282906553774	14343566.595742933
0.8324363477280413	14445571.335974973
0.8326444568149735	14539069.304818852
0.8328526179291771	14632590.648154832
0.8330608310836596	14726135.371826788
0.8332690962914304	14819703.481679538
0.8334774135655034	14901896.169320548
0.833685782918895	14971376.555299465
0.8338942043646247	15040874.311374832
0.834102677915716	15110389.44188927
0.834311203585195	15179921.95118628
0.8345197813860912	15257297.741626862
0.8347284113314379	15361035.580584943
0.8349370934342709	15464799.354002705
0.8351458277076294	15568589.068363696
0.8353546141645565	15672404.73015345
0.8355634528180977	15776246.345858607
0.8357723436813022	15856872.58343364
0.8359812867672226	15937232.006256487
0.8361902820889144	16017611.518935
0.8363993296594368	16098011.126491707
0.8366084294918518	16178430.83395033
0.8368175815992247	16298237.478803672
0.8370267859946247	16431632.416763024
0.8372360426911234	16565060.703456827
0.8374453517017962	16698522.347222287
0.8376547130397217	16832017.356398672
0.8378641267179816	16949726.559209593
0.8380735927496613	17051768.45043511
0.8382831111478488	17153835.852133375
0.8384926819256358	17255928.77068201
0.8387023050961173	17358047.21246037
0.8389119806723914	17459408.225938253
0.8391217086675596	17558591.080268893
0.8393314890947265	17657798.73031304
0.8395413219670003	17757031.182269707
0.8397512072974922	17856288.442339435
0.8399611450993165	17955361.778416276
0.8401711353855914	18044094.01306116
0.8403811781694378	18132848.430764675
0.8405912734639802	18221625.037072644
0.8408014212823464	18310423.83753223
0.8410116216376671	18399244.837691918
0.8412218745430766	18491383.34453867
0.8414321800117124	18584503.691568952
0.8416425380567154	18677647.318686035
0.8418529486912297	18770814.23170992
0.8420634119284025	18864004.43646198
0.8422739277813847	19011710.68169334
0.8424844962633302	19207464.074527495
0.842695117387396	19403266.40570961
0.8429057911667428	19599117.687474523
0.8431165176145345	19795017.932059977
0.8433272967439382	19945828.61359649
0.8435381285681244	19986571.586429495
0.8437490131002665	20027324.7450057
0.8439599503535415	20068088.091871522
0.84417094034113	20108861.629574087
0.8443819830762154	20153300.8414307
0.8445930785719846	20271391.13569187
0.8448042268416277	20389510.952526536
0.8450154278983382	20507660.2993154
0.8452266817553128	20625839.18344095
0.8454379884257517	20744047.612287544
0.8456493479228583	20895338.099565122
0.845860760259839	21054625.85022698
0.846072225449904	21213953.422826502
0.8462837435062666	21373320.82731921
0.8464953144421433	21532728.07366313
0.8467069382707537	21663323.041682012
0.8469186150053215	21771461.30910208
0.847130344659073	21879626.611089032
0.8473421272452377	21987818.954401378
0.8475539627770492	22096038.34579966
0.8477658512677435	22191315.175822586
0.8479777927305605	22259076.552869383
0.8481897871787432	22326854.87026043
0.848401834625538	22394650.13223086
0.8486139350841944	22462462.34301674
0.8488260885679657	22516146.756606445
0.8490382950901076	22397425.10717437
0.8492505546638802	22278673.777329877
0.8494628673025462	22159892.75965296
0.8496752330193721	22041082.046721455
0.8498876518276269	21922241.631111875
0.8501001237405839	20976071.106069885
0.8503126487715191	19864520.348947007
0.850525226933712	18752691.704135466
0.8507378582404455	17640585.102162734
0.8509505427050057	16528200.473538863
0.8511632803406821	15631997.803449837
0.8513760711607672	14883806.582690565
0.8515889151785576	14135428.314124942
0.8518018124073523	13386862.950992802
0.8520147628604541	12638110.446520323
0.8522277665511693	12412608.877832059
0.8524408234928071	13155086.47229312
0.8526539336986805	13897749.686152996
0.8528670971821053	14640598.565816384
0.8530803139564007	15383633.157698814
0.8532935840348901	16213402.2554394
0.8535069074308987	17774327.19212363
0.8537202841577566	19335642.36004334
0.8539337142287962	20897347.85675521
0.8541471976573534	22459443.779840276
0.8543607344567677	24021930.226906404
0.8545743246403821	24559841.53339396
0.8547879682215422	24935111.039898783
0.8550016652135977	25310474.36378018
0.8552154156299011	25685931.528492574
0.8554292194838088	26061482.557496414
0.8556430767886797	26321616.691991985
0.855856987557877	26511680.763850372
0.8560709518047664	26701792.351726603
0.8562849695427177	26891951.467499875
0.8564990407851035	27082158.123052143
0.8567131655452999	27249870.788935322
0.8569273438366862	27380690.315235335
0.8571415756726455	27511542.54641695
0.8573558610665638	27642427.490656406
0.8575702000318304	27773345.156131778
0.8577845925818384	27907514.849074297
0.857999038729984	28061827.00606432
0.8582135384896665	28216177.741093557
0.858428091874289	28370567.06380656
0.8586426988972576	28524994.9838502
0.8588573595719821	28679461.510873903
0.8590720739118751	28731978.204335783
0.8592868419303532	28772483.28395279
0.8595016636408359	28812998.489839707
0.8597165390567462	28853523.82452808
0.8599314681915105	28894059.290550135
0.8601464510585584	28698212.561981235
0.860361487671323	28376841.47395935
0.8605765780432408	28055390.043165553
0.8607917221877518	27733858.249513794
0.8610069201182988	27412246.072913706
0.8612221718483286	26786291.94054173
0.8614374773912907	25721547.1156318
0.8616528367606385	24656536.104515933
0.8618682499698288	23591258.840646613
0.8620837170323213	22525715.2574615
0.8622992379615795	21645659.212325085
0.8625148127710699	21684608.156999305
0.8627304414742627	21723566.8389097
0.8629461240846313	21762535.260490574
0.8631618606156526	21801513.42417685
0.8633776510808066	21840501.33240404
0.8635934954935769	22251258.752812557
0.8638093938674504	22692592.682907984
0.8640253462159173	23134036.946485918
0.8642413525524714	23575591.57112974
0.8644574128906095	24017256.58442963
0.8646735272438323	24420045.468471736
0.8648896956256433	24804805.225806143
0.8651059180495498	25189661.17307991
0.8653221945290621	25574613.33434013
0.8655385250776946	25959661.7336412
0.8657549097089641	26308518.864957623
0.8659713484363913	26611007.195129223
0.8661878412735006	26913571.147383507
0.866404388233819	27216210.74062581
0.8666209893308775	27518925.993766285
0.8668376445782103	27783222.546307083
0.8670543539893549	27890470.069296535
0.8672711175778525	27997744.40416681
0.8674879353572469	28105045.55762068
0.8677048073410862	28212373.53636296
0.8679217335429217	28319728.34709999
0.8681387139763074	28514389.215561874
0.8683557486548015	28713434.558478523
0.8685728375919655	28912529.662731145
0.8687899808013633	29111674.540759396
0.8690071782965637	29310869.205007415
0.869224430091138	29352027.918674946
0.8694417361986609	29328872.030495632
0.8696590966327107	29305710.35334428
0.869876511406869	29282542.88577364
0.8700939805347206	29259369.626336116
0.8703115040298544	29279144.54615567
0.870529081905862	29348033.22647643
0.8707467141763385	29416939.12896725
0.8709644008548827	29485862.257933687
0.8711821419550964	29554802.617682327
0.8713999374905854	29628161.265185073
0.871617787474958	29716727.8120872
0.8718356919218269	29805316.500626136
0.8720536508448075	29893927.336337212
0.8722716642575187	29982560.324757166
0.8724897321735832	30071215.471424263
0.8727078546066265	30281114.870902855
0.8729260315702784	30492910.93086126
0.873144263078171	30704759.939834435
0.8733625491439405	30916661.911059868
0.8735808897812266	31128616.85777819
0.8737992850036719	31211523.86259272
0.874017734824923	31248726.16730278
0.8742362392586293	31285937.772589006
0.874454798318444	31323158.68077655
0.8746734120180236	31360388.894191142
0.8748920803710283	31420340.049456395
0.875110803391121	31503129.220861875
0.8753295810919689	31585939.08956025
0.875548413487242	31668769.660725802
0.8757673005906139	31751620.939534146
0.8759862424157616	31934396.4103925
0.8762052389763657	32406293.00698789
0.8764242902861098	32878307.5777321
0.8766433963586814	33350440.152119122
0.8768625572077712	33822690.75964989
0.8770817728470732	34290576.12021207
0.8773010432902849	34408532.94939746
0.8775203685511077	34526519.267790325
0.8777397486432454	34644535.08276263
0.8779591835804065	34762580.40168883
0.8781786733763015	34880655.2319446
0.8783982180446457	34766552.965651505
0.878617817599157	34583345.04602718
0.8788374720535569	34400091.324423045
0.8790571814215703	34216791.789388545
0.8792769457169257	34033446.42947029
0.879496764953355	34063571.90416842
0.8797166391445934	34285670.421452
0.8799365683043796	34507824.463364914
0.8801565524464557	34730034.04378831
0.8803765915845676	34952299.176607005
0.8805966857324639	35146149.626212336
0.880816834903897	35268539.80672609
0.881037039112623	35390960.58478503
0.8812572983724012	35513411.96803846
0.8814776126969944	35635893.96413777
0.8816979821001687	35754518.25405093
0.8819184065956938	35781640.33538976
0.8821388861973429	35808769.19724896
0.8823594209188923	35835904.84132359
0.882580010774122	35863047.26930923
0.8828006557768155	35890196.482901886
0.8830213559407598	36201195.613646634
0.8832421112797452	36583661.922542326
0.8834629218075651	36966223.84801502
0.8836837875380171	37348881.41396918
0.8839047084849018	37731634.6443149
0.884125684662023	37817183.68467583
0.8843467160831886	37664506.22940957
0.8845678027622095	37511790.60477949
0.8847889447129001	37359036.80124323
0.8850101419490785	37206244.809256114
0.8852313944845657	37367488.02683499
0.885452702333187	38216239.72306283
0.8856740655087704	39065203.60721459
0.8858954840251476	39914379.73233717
0.8861169578961539	40763768.151490636
0.886338487135628	41520372.600930855
0.886560071757412	41039626.38025615
0.8867817117753515	40558759.9730263
0.8870034072032955	40077773.349194415
0.8872251580550963	39596666.47870714
0.8874469643446101	39115439.331501946
0.8876688260856963	39183581.535205774
0.8878907432922178	39365464.70124185
0.8881127159780409	39547393.33806932
0.8883347441570356	39729367.45705622
0.8885568278430749	39911387.069572665
0.8887789670500358	39876395.280506805
0.8890011617917983	39687420.294650175
0.8892234120822464	39498398.06504699
0.8894457179352669	39309328.57988656
0.8896680793647509	39120211.82735469
0.8898904963845921	38964584.710745774
0.8901129690086883	38872908.00417799
0.8903354972509405	38781208.378433585
0.8905580811252535	38689485.827782676
0.8907807206455347	38597740.34649422
0.8910034158256963	38492221.529962435
0.8912261666796527	38263789.515838474
0.8914489732213227	38035300.39371091
0.8916718354646282	37806754.1493026
0.8918947534234944	37578150.768333405
0.8921177271118502	37349490.236519106
0.8923407565436284	36008109.45278328
0.8925638417327644	34484887.71966362
0.8927869826931977	32961285.181110173
0.8930101794388711	31437301.741922192
0.8932334319837308	29912937.306874655
0.8934567403417267	28880149.76310311
0.8936801045268123	28152797.997642476
0.8939035245529441	27425264.39424097
0.8941270004340824	26697548.907438334
0.894350532184191	25969651.49176418
0.8945741198172371	26258388.555516284
0.8947977633471915	28233466.60247901
0.8950214627880284	30209038.4189534
0.8952452181537254	32185104.12838073
0.8954690294582639	34161663.85423661
0.8956928967156286	36094599.7103185
0.8959168199398075	37741708.63346105
0.8961407991447926	39389229.333834805
0.8963648343445789	41037161.914383605
0.896588925553165	42685506.47807662
0.8968130727845534	44334263.12791076
0.8970372760527496	44644195.7669416
0.8972615353717629	44786640.4707734
0.8974858507556059	44929120.78578117
0.8977102222182949	45071636.72086765
0.8979346497738496	45214188.284937985
0.8981591334362931	45534985.12266464
0.8983836732196523	45953320.819060646
0.8986082691379572	46371761.099380486
0.8988329212052417	46790305.9897704
0.8990576294355432	47208955.516383275
0.8992823938429022	47493511.44522902
0.8995072144413631	47578602.75420253
0.8997320912449734	47663715.336003244
0.8999570242677847	47748849.19594939
0.9001820135238516	47834004.33936053
0.9004070590272328	47982901.21930427
0.9006321607919896	48465879.649627164
0.9008573188321878	48948978.82455813
0.9010825331618959	49432198.7742826
0.9013078037951865	49915539.52899457
0.9015331307461353	50399001.118894964
0.9017585140288219	51103411.777105264
0.9019839536573292	51827019.043483004
0.9022094496457435	52550807.21167682
0.9024350020081551	53274776.3269135
0.9026606107586572	53998926.43442875
0.902886275911347	54295192.83348912
0.9031119974803249	54385176.29552349
0.9033377754796951	54475182.25342336
0.903563609923565	54565210.71281267
0.903789500826046	54655261.679316886
0.9040154482012526	54622247.02794471
0.904241452063303	54429774.19709742
0.9044675124263188	54237253.24804247
0.9046936293044254	54044684.168750286
0.9049198027117517	53852066.94718819
0.9051460326624297	53725250.09153607
0.9053723191705955	53878799.84948092
0.9055986622503881	54032387.99486512
0.9058250619159507	54186014.53728566
0.9060515181814298	54339679.486341916
0.9062780310609752	54493382.85163532
0.9065046005687405	54738492.534556024
0.906731226718883	54988760.6394496
0.9069579095255627	55239091.31136906
0.907184649002944	55489484.56595653
0.907411445165195	55739940.4188579
0.9076382980264862	56197938.30281774
0.907865207600993	56742216.50389886
0.9080921739028933	57286630.77453009
0.9083191969463691	57831181.148728885
0.9085462767456058	58375867.66052151
0.9087734133147922	58564283.89976736
0.9090006066681211	58341093.38230992
0.909227856819788	58117847.06722341
0.9094551637839932	57894544.94055781
0.9096825275749393	57671186.98836062
0.9099099482068329	57493855.827325165
0.9101374256938848	57480258.80188319
0.9103649600503083	57466658.37718486
0.9105925512903209	57453054.55238035
0.9108201994281437	57439447.32661963
0.9110479044780008	57425836.69905249
0.9112756664541204	58067978.75654892
0.911503485370734	58725291.4908007
0.9117313612420768	59382768.553236045
0.9119592940823873	60040409.9849368
0.912187283905908	60698215.82699569
0.9124153307268845	60745004.035087846
0.9126434345595664	60569980.567773975
0.9128715954182063	60394913.34459344
0.9130998133170609	60219802.35460702
0.9133280882703902	60044647.58687312
0.913556420292458	60019086.481114
0.9137848093975312	60147842.29740748
0.9140132555998806	60276630.30265502
0.9142417589137806	60405450.50490387
0.9144703193535092	60534302.91220337
