#wavelength	surface flux
0.8	112424959.78820601
0.8002000000000001	114274822.11369857
0.8004000500000003	116487720.75217958
0.8006001500125003	118704834.96816796
0.8008003000500035	120922503.46271051
0.8010005001250161	123140726.37437773
0.8012007502500472	125359503.84176967
0.8014010504376099	128170346.23147948
0.8016014007002193	131180029.18684728
0.8018018010503944	134190464.56295389
0.8020022515006572	137201652.5479059
0.8022027520635323	140213593.3298515
0.8024033027515483	143333055.48251703
0.8026039035772362	146557926.357456
0.8028045545531306	149783603.45011386
0.8030052556917691	153010086.96204644
0.803206007005692	156237377.09485415
0.8034068085074435	158980223.04006553
0.8036076602095705	160363524.936538
0.8038085621246229	161747172.65848354
0.8040095142651542	163131166.2923604
0.8042105166437206	164515505.92464527
0.8044115692728815	165921765.0715285
0.8046126721651998	168256287.0038721
0.8048138253332411	170591392.56669688
0.8050150287895745	172927081.90591457
0.805216282546772	175263355.16746643
0.8054175866174087	177600212.49733245
0.8056189410140631	180306872.07208174
0.8058203457493168	183118720.96129757
0.8060218008357541	185931272.8127321
0.8062233062859632	188744527.80213088
0.8064248621125346	191558486.10527506
0.806626468328063	194189741.19334906
0.8068281249451449	196664129.92337644
0.8070298319763813	199139137.25058937
0.8072315894343755	201614763.32963225
0.8074333973317341	204091008.3151958
0.8076352556810671	206713026.96289855
0.8078371644949874	209685112.47775272
0.8080391237861113	212657941.0139863
0.8082411335670578	215631512.75735208
0.8084431938504498	218605827.89365682
0.8086453046489125	221618621.84627822
0.8088474659750746	225334731.51436967
0.8090496778415686	229051770.2098831
0.809251940261029	232769738.16506773
0.8094542532460944	236488635.61224434
0.8096566168094059	240208462.7837785
0.8098590309636085	243474494.99253923
0.8100614957213493	246634911.62896612
0.8102640110952797	249796118.36955258
0.8104665770980536	252958115.4118254
0.8106691937423283	256120902.95336
0.8108718610407639	258814415.48487347
0.8110745790060241	261149166.82047886
0.8112773476507757	263484501.84392017
0.8114801669876885	265820420.70111677
0.8116830370294355	268156923.53802627
0.8118859577886929	270615758.0912587
0.8120889292781401	273328082.42259216
0.8122919515104597	276041084.83500826
0.8124950244983374	278754765.4980276
0.8126981482544621	281469124.5812123
0.8129013227915257	284239148.61650634
0.8131045481222237	287639467.4131607
0.8133078242592543	291040636.28951454
0.8135111512153191	294442655.4580866
0.813714529003123	297845525.13145125
0.8139179576353739	301249245.5222348
0.8141214371247829	303967104.13585097
0.8143249674840641	306552477.06979525
0.814528548725935	309138496.3469715
0.8147321808631167	311725162.1289705
0.8149358639083326	314312474.5774142
0.8151395978743097	315855545.8794849
0.8153433827737784	316693032.794103
0.8155472186194719	317530729.08044946
0.8157511054241268	318368634.7908674
0.815955043200483	319206749.97771347
0.8161590319612831	318804022.941509
0.8163630717192736	316127119.16626287
0.8165671624872033	313449546.16507584
0.8167713042778252	310771303.7706359
0.8169754971038948	308092391.81559604
0.8171797409781707	304525452.4039863
0.8173840359134155	293873569.6872599
0.8175883819223938	283219023.99986666
0.8177927790178745	272561814.6760454
0.8179972272126291	261901941.0498905
0.8182017265194322	251239402.45533976
0.8184062769510622	248573639.58341736
0.8186108785203001	247138205.8979868
0.8188155312399301	245702413.35413682
0.8190202351227402	244266261.86214927
0.819224990181521	242829751.33228964
0.8194297964290664	245283969.4800436
0.8196346538781738	250084147.45490897
0.8198395625416434	254885525.47426614
0.8200445224322789	259688103.83813018
0.820249533562887	264491882.84658375
0.8204545959462778	266133280.89514616
0.8206597095952644	262683389.6231898
0.8208648745226633	259232635.87841278
0.8210700907412941	255781019.44520015
0.8212753582639793	252328540.1078827
0.8214806771035456	249576188.30791494
0.8216860472728215	251142104.91693878
0.8218914687846397	252708413.00511494
0.822096941651836	254275112.67031398
0.822302465887249	255842204.0104284
0.8225080415037209	257409687.1233787
0.8227136685140968	260314122.88824508
0.8229193469312254	263371012.34469825
0.8231250767679583	266428666.0235166
0.8233308580371503	269487084.11575294
0.8235366907516598	272546266.8125146
0.8237425749243477	276840339.071334
0.8239485105680789	281789592.6695971
0.824154497695721	286740083.58125657
0.824360536320145	291691812.11564493
0.8245666264542252	296644778.5821666
0.8247727681108388	299256652.04392886
0.8249789613028664	298514519.27262014
0.8251852060431922	297772200.96811795
0.825391502344703	297029697.08404
0.8255978502202894	296287007.57399035
0.8258042496828445	294482369.3657005
0.8260107007452654	287520753.0892251
0.8262172034204517	280557396.4086877
0.8264237577213068	273592298.88897836
0.8266303636607373	266625460.094886
0.8268370212516525	259656879.59109858
0.8270437305069654	257869534.7407149
0.8272504914395923	256486759.08414
0.8274573040624523	255103637.7336506
0.8276641683884679	253720170.60282478
0.8278710844305652	252336357.60521463
0.8280780522016729	251332260.05523413
0.8282850717147234	250501636.84339485
0.8284921429826521	249670805.97575343
0.8286992660183978	248839767.40039444
0.8289064408349024	248008521.06539223
0.8291136674451112	246964303.4730163
0.8293209458619727	245651540.78253862
0.8295282760984382	244338449.90139008
0.829735658167463	243025030.74751973
0.8299430920820048	241711283.2388626
0.8301505778550254	240815255.4563138
0.8303581154994891	241587556.3056084
0.8305657050283641	242360050.2301161
0.8307733464546212	243132737.27810434
0.8309810397912352	243905617.4978558
0.8311887850511829	244678690.93766072
0.8313965822474458	246762188.19617334
0.8316044313930077	248907021.0596316
0.8318123325008561	251052390.1313077
0.8320202855839813	253198295.54525065
0.8322282906553774	255344737.4355473
0.8324363477280413	256860460.3849754
0.8326444568149735	258122421.00715512
0.8328526179291771	259384697.11948895
0.8330608310836596	260647288.80085275
0.8332690962914304	261910196.1301352
0.8334774135655034	262228552.918298
0.833685782918895	261491542.6456383
0.8338942043646247	260754348.12041083
0.834102677915716	260016969.2965516
0.834311203585195	259279406.12798694
0.8345197813860912	258618109.61915433
0.8347284113314379	258213989.1716567
0.8349370934342709	257809767.69404742
0.8351458277076294	257405445.1610692
0.8353546141645565	257001021.5474571
0.8355634528180977	256596496.82794175
0.8357723436813022	257904162.319615
0.8359812867672226	259233297.1628009
0.8361902820889144	260562764.28969693
0.8363993296594368	261892563.78337508
0.8366084294918518	263222695.7269271
0.8368175815992247	263043085.98463738
0.8370267859946247	262343346.2687453
0.8372360426911234	261643431.61792448
0.8374453517017962	260943341.98844105
0.8376547130397217	260243077.33655033
0.8378641267179816	260822087.90143207
0.8380735927496613	262670790.49382934
0.8382831111478488	264519955.2618736
0.8384926819256358	266369582.3211089
0.8387023050961173	268219671.7871106
0.8389119806723914	269256002.2115434
0.8391217086675596	268001106.1824146
0.8393314890947265	266745896.42927945
0.8395413219670003	265490372.8737059
0.8397512072974922	264234535.4372426
0.8399611450993165	263036299.98243535
0.8401711353855914	264713849.901487
0.8403811781694378	266391819.20801792
0.8405912734639802	268070208.00687593
0.8408014212823464	269749016.40293443
0.8410116216376671	271428244.5010917
0.8412218745430766	269054546.9893756
0.8414321800117124	265500888.95016995
0.8416425380567154	261946342.4964528
0.8418529486912297	258390907.4061214
0.8420634119284025	254834583.4570204
0.8422739277813847	254437606.37313834
0.8424844962633302	256824820.54253957
0.842695117387396	259212631.5154801
0.8429057911667428	261601039.441164
0.8431165176145345	263990044.46883044
0.8433272967439382	261350253.342043
0.8435381285681244	246441717.09939307
0.8437490131002665	231529453.72268575
0.8439599503535415	216613462.2801436
0.84417094034113	201693741.83973
0.8443819830762154	187227020.35831574
0.8445930785719846	181957524.7120411
0.8448042268416277	176686711.6918578
0.8450154278983382	171414580.96842018
0.8452266817553128	166141132.21230206
0.8454379884257517	160866365.09399432
0.8456493479228583	159995732.6375398
0.845860760259839	160185768.63723657
0.846072225449904	160375852.14593324
0.8462837435062666	160565983.17550713
0.8464953144421433	160756161.7378385
0.8467069382707537	161779934.46839014
0.8469186150053215	163453687.1355038
0.847130344659073	165127858.2407847
0.8473421272452377	166802447.88884032
0.8475539627770492	168477456.18430963
0.8477658512677435	170383476.63649678
0.8479777927305605	172779608.32353845
0.8481897871787432	175176339.0435013
0.848401834625538	177573668.94614547
0.8486139350841944	179971598.18126383
0.8488260885679657	182283814.68820673
0.8490382950901076	183544494.04440585
0.8492505546638802	184805488.57044464
0.8494628673025462	186066798.3451145
0.8496752330193721	187328423.4472299
0.8498876518276269	188590363.95561913
0.8501001237405839	189234770.39978558
0.8503126487715191	189756004.32432142
0.850525226933712	190277368.5573381
0.8507378582404455	190798863.131413
0.8509505427050057	191320488.07913178
0.8511632803406821	191821902.9651717
0.8513760711607672	192309513.7090911
0.8515889151785576	192797246.35569724
0.8518018124073523	193285100.93546462
0.8520147628604541	193773077.47887668
0.8522277665511693	194577944.15641728
0.8524408234928071	195968836.43555975
0.8526539336986805	197360076.43777236
0.8528670971821053	198751664.2499856
0.8530803139564007	200143599.95915028
0.8532935840348901	201548853.96427584
0.8535069074308987	203064000.19584543
0.8537202841577566	204579525.21397418
0.8539337142287962	206095429.1133576
0.8541471976573534	207611711.98871496
0.8543607344567677	209128373.93479142
0.8545743246403821	209254453.39826396
0.8547879682215422	209159663.77398828
0.8550016652135977	209064850.45230654
0.8552154156299011	208970013.42729437
0.8554292194838088	208875152.6930259
0.8556430767886797	208794254.2420587
0.855856987557877	208721827.49536654
0.8560709518047664	208649382.64198777
0.8562849695427177	208576919.6773956
0.8564990407851035	208504438.5970623
0.8567131655452999	208285672.5101309
0.8569273438366862	207827188.55708528
0.8571415756726455	207368589.9830513
0.8573558610665638	206909876.75937364
0.8575702000318304	206451048.85739058
0.8577845925818384	206462656.0701572
0.857999038729984	209413493.72324872
0.8582135384896665	212365069.08575287
0.858428091874289	215317382.34209782
0.8586426988972576	218270433.67675605
0.8588573595719821	221224223.27424896
0.8590720739118751	222218785.43887782
0.8592868419303532	222982510.41040742
0.8595016636408359	223746426.3131799
0.8597165390567462	224510533.19492784
0.8599314681915105	225274831.10339642
0.8601464510585584	225708632.5453006
0.860361487671323	225967015.7991977
0.8605765780432408	226225463.6489082
0.8607917221877518	226483976.11058134
0.8610069201182988	226742553.20036983
0.8612221718483286	227693327.90552798
0.8614374773912907	229642143.64862737
0.8616528367606385	231591446.595662
0.8618682499698288	233541236.8684346
0.8620837170323213	235491514.5887751
0.8622992379615795	237118869.78037307
0.8625148127710699	237146199.13932994
0.8627304414742627	237173535.33062658
0.8629461240846313	237200878.35597104
0.8631618606156526	237228228.21707183
0.8633776510808066	237255584.9156379
0.8635934954935769	238892419.40275088
0.8638093938674504	240661594.34315246
0.8640253462159173	242431211.57728907
0.8642413525524714	244201271.21573418
0.8644574128906095	245971773.36908853
0.8646735272438323	244802335.6073168
0.8648896956256433	242265246.13056368
0.8651059180495498	239727522.38144124
0.8653221945290621	237189164.20138395
0.8655385250776946	234650171.43177807
0.8657549097089641	234836596.85866404
0.8659713484363913	238513015.91669902
0.8661878412735006	242190354.07950026
0.866404388233819	245868611.57684165
0.8666209893308775	249547788.6385557
0.8668376445782103	252724936.80452654
0.8670543539893549	253850090.33650094
0.8672711175778525	254975525.1568591
0.8674879353572469	256101241.33592108
0.8677048073410862	257227238.94402826
0.8679217335429217	258353518.05153817
0.8681387139763074	256218986.08587644
0.8683557486548015	253921917.7130876
0.8685728375919655	251624275.07320276
0.8687899808013633	249326058.02266294
0.8690071782965637	247027266.4178575
0.869224430091138	246875718.07151526
0.8694417361986609	247598076.24937963
0.8696590966327107	248320615.01678833
0.869876511406869	249043334.41888893
0.8700939805347206	249766234.50083968
0.8703115040298544	250990232.5595299
0.870529081905862	252787229.9464145
0.8707467141763385	254584676.5826452
0.8709644008548827	256382572.58053488
0.8711821419550964	258180918.05242294
0.8713999374905854	260202709.97132647
0.871617787474958	262994646.87552115
0.8718356919218269	265787281.76394442
0.8720536508448075	268580614.81109
0.8722716642575187	271374646.19149566
0.8724897321735832	274169376.07974774
0.8727078546066265	277024957.28763634
0.8729260315702784	279882167.5097666
0.873144263078171	282740092.0344492
0.8733625491439405	285598731.0402633
0.8735808897812266	288458084.70583
0.8737992850036719	289306217.0110037
0.874017734824923	289441966.62944335
0.8742362392586293	289577750.18528754
0.874454798318444	289713567.6870207
0.8746734120180236	289849419.14312935
0.8748920803710283	290407282.88256514
0.875110803391121	291389334.09106714
0.8753295810919689	292371630.8123718
0.875548413487242	293354173.1078568
0.8757673005906139	294336961.0389157
0.8759862424157616	296188679.19405955
0.8762052389763657	300554439.9534939
0.8764242902861098	304921292.15311503
0.8766433963586814	309289236.0657873
0.8768625572077712	313658271.96443903
0.8770817728470732	318006644.73889875
0.8773010432902849	320657499.18287563
0.8775203685511077	323309016.34046733
0.8777397486432454	325961196.3773451
0.8779591835804065	328614039.4592353
0.8781786733763015	331267545.7518925
0.8783982180446457	331424837.7363321
0.878617817599157	330839394.60276204
0.8788374720535569	330253805.10840887
0.8790571814215703	329668069.21668226
0.8792769457169257	329082186.8909827
0.879496764953355	328987636.7582277
0.8797166391445934	329334934.5873483
0.8799365683043796	329682319.24092615
0.8801565524464557	330029790.7406674
0.8803765915845676	330377349.10828394
0.8805966857324639	331006416.6770957
0.880816834903897	332342489.9925938
0.881037039112623	333678897.32642126
0.8812572983724012	335015638.7620821
0.8814776126969944	336352714.3831024
0.8816979821001687	337710311.2188399
0.8819184065956938	339543451.5560636
0.8821388861973429	341377050.17837346
0.8823594209188923	343211107.2003372
0.882580010774122	345045622.7365555
0.8828006557768155	346880596.90165895
0.8830213559407598	351646972.09562266
0.8832421112797452	357151700.6193092
0.8834629218075651	362657805.3251233
0.8836837875380171	368165286.55711555
0.8839047084849018	373674144.6594167
0.884125684662023	373632111.77127385
0.8843467160831886	369140634.51488
0.8845678027622095	364648034.389172
0.8847889447129001	360154311.1134318
0.8850101419490785	355659464.40687346
0.8852313944845657	345958867.3961341
0.885452702333187	324863555.9760585
0.8856740655087704	303762970.728131
0.8858954840251476	282657110.3338972
0.8861169578961539	261545973.47457457
0.886338487135628	241458899.00316966
0.886560071757412	235064651.1962913
0.8867817117753515	228668804.82746136
0.8870034072032955	222271359.49703634
0.8872251580550963	215872314.80528623
0.8874469643446101	209471670.3523592
0.8876688260856963	209841722.3966045
0.8878907432922178	211613480.53934252
0.8881127159780409	213385681.62161505
0.8883347441570356	215158325.7541603
0.8885568278430749	216931413.04773682
0.8887789670500358	218971507.60318714
0.8890011617917983	221201205.6514211
0.8892234120822464	223431461.12416813
0.8894457179352669	225662274.16078153
0.8896680793647509	227893644.90065587
0.8898904963845921	230936964.56334
0.8901129690086883	235529200.59498557
0.8903354972509405	240122584.68563795
0.8905580811252535	244717117.12231657
0.8907807206455347	249312798.1920981
0.8910034158256963	253704504.10747722
0.8912261666796527	256264121.5056338
0.8914489732213227	258824378.8081406
0.8916718354646282	261385276.17497557
0.8918947534234944	263946813.76614976
0.8921177271118502	266508991.74172014
0.8923407565436284	265836287.00856033
0.8925638417327644	264635612.27859625
0.8927869826931977	263434637.3799493
0.8930101794388711	262233362.23757774
0.8932334319837308	261031786.7764208
0.8934567403417267	260385476.9514489
0.8936801045268123	260084224.43821836
0.8939035245529441	259782896.6118597
0.8941270004340824	259481493.45354438
0.894350532184191	259180014.94443953
0.8945741198172371	259994635.74264407
0.8947977633471915	262660502.7562796
0.8950214627880284	265327036.2366684
0.8952452181537254	267994236.35042575
0.8954690294582639	270662103.26421314
0.8956928967156286	273397133.1439978
0.8959168199398075	276564382.1287442
0.8961407991447926	279732422.92573756
0.8963648343445789	282901255.7329301
0.896588925553165	286070880.74832267
0.8968130727845534	289241298.1699695
0.8970372760527496	292562021.3223412
0.8972615353717629	295902281.7585268
0.8974858507556059	299243377.25982183
0.8977102222182949	302585308.03499126
0.8979346497738496	305928074.29285634
0.8981591334362931	309684991.6066319
0.8983836732196523	313668880.6039917
0.8986082691379572	317653765.5735982
0.8988329212052417	321639646.7644471
0.8990576294355432	325626524.4255972
0.8992823938429022	329466532.8419563
0.8995072144413631	333087643.3625343
0.8997320912449734	336709659.16074115
0.8999570242677847	340332580.4628967
0.9001820135238516	343956407.4953781
0.9004070590272328	347553672.1833941
0.9006321607919896	351007837.9813708
0.9008573188321878	354462867.32080054
0.9010825331618959	357918760.4175635
0.9013078037951865	361375517.4876012
0.9015331307461353	364833138.7469046
0.9017585140288219	365928499.3271368
0.9019839536573292	366820591.6587826
0.9022094496457435	367712907.01351064
0.9024350020081551	368605445.44707835
0.9026606107586572	369498207.0152542
0.902886275911347	371028776.11038107
0.9031119974803249	372867087.8779786
0.9033377754796951	374705859.22351813
0.903563609923565	376545090.2618932
0.903789500826046	378384781.1080291
0.9040154482012526	380736239.28545004
0.904241452063303	383750639.4305708
0.9044675124263188	386765793.1757271
0.9046936293044254	389781700.70931923
0.9049198027117517	392798362.2197963
0.9051460326624297	395290641.88558316
0.9053723191705955	395547393.3248993
0.9055986622503881	395804208.95207506
0.9058250619159507	396061088.78315765
0.9060515181814298	396318032.8341981
0.9062780310609752	396575041.1212512
0.9065046005687405	398169330.1707548
0.906731226718883	399838617.1481317
0.9069579095255627	401508321.44725084
0.907184649002944	403178443.1724448
0.907411445165195	404848982.42807186
0.9076382980264862	408200778.6570416
0.907865207600993	412251462.2993029
0.9080921739028933	416303158.61247355
0.9083191969463691	420355867.84972185
0.9085462767456058	424409590.26428145
0.9087734133147922	427731434.9905899
0.9090006066681211	430207611.8514509
0.909227856819788	432684407.7565239
0.9094551637839932	435161822.86057657
0.9096825275749393	437639857.31840444
0.9099099482068329	440141473.66283625
0.9101374256938848	442725324.1008997
0.9103649600503083	445309820.5015714
0.9105925512903209	447894963.02634287
0.9108201994281437	450480751.8367482
0.9110479044780008	453067187.09435314
0.9112756664541204	457319501.9887182
0.911503485370734	461610996.85224265
0.9117313612420768	465903564.589483
0.9119592940823873	470197205.4686564
0.912187283905908	474491919.7580509
0.9124153307268845	477034863.9670367
0.9126434345595664	478942264.0840344
0.9128715954182063	480850141.0510595
0.9130998133170609	482758494.9873273
0.9133280882703902	484667326.01207906
0.913556420292458	488348032.511754
0.9137848093975312	493856528.37637997
0.9140132555998806	499366401.3649714
