#wavelength	surface flux
0.676892	1173693.3220194029
0.678297	1239753.142908259
0.679702	1300754.2014675396
0.681109	1358849.5551206013
0.682517	1415214.9660615013
0.683926	1470348.9720937628
0.685337	1522916.3901303413
0.686749	1573561.8404117376
0.688164	1624410.6894540843
0.689581	1670347.5881780542
0.691	1705911.1308908754
0.692422	1737201.093168223
0.693847	1782857.199865572
0.695274	1835977.6928789944
0.696705	1884243.59624543
0.698139	1922447.040414072
0.699576	1954512.3059953798
0.701017	1979887.2604797399
0.702461	2000881.9220451517
0.70391	2025248.2494792594
0.705362	2043511.2010488356
0.706819	2055489.3212312586
0.70828	2063307.3429558475
0.709745	2063786.6193688384
0.711216	2061721.936503196
0.71269	2049397.3316465719
0.71417	2030263.4700990585
0.715655	1996207.651677838
0.717145	1946632.3169675155
0.71864	1912647.7307997674
0.72014	1877725.6452009373
0.721647	1841350.1678510103
0.723158	1789409.2649998064
0.724676	1725994.1035300565
0.726199	1659099.9688603794
0.727728	1595543.2361176852
0.729264	1514601.360756078
0.730805	1436364.6058541108
0.732353	1359946.5965061537
0.733907	1276037.0680723
0.735468	1188259.4911070003
0.737035	1094053.1046503722
0.738609	999297.4377757502
0.74019	910267.6167844713
0.741777	815606.2852614656
0.743372	721209.6908822967
0.744973	630193.7859890732
0.746582	541223.8161062178
0.748197	456370.98431442346
0.74982	375804.6233948765
0.751451	300901.4655273263
0.753088	234169.8696168341
0.754734	174796.8481502334
0.756386	123984.04583182537
0.758047	82820.14151104115
0.759715	51368.343128972054
0.76139	28431.897921817963
0.763074	13690.770414623836
0.764765	5109.796004308247
0.766464	1227.518627591107
0.768172	1713.3107407229145
0.769887	1684.2641171734222
0.77161	7906.870657780008
0.773341	22541.018350639046
0.775081	47823.51379154519
0.776829	84545.78142777595
0.778585	115240.7455203601
0.780349	141694.66773217855
0.782121	268437.3715221102
0.783902	399393.93652928877
0.785691	529660.2863455801
0.787489	676379.6763192429
0.789295	837590.374383491
0.79111	985299.3023966613
0.792933	815874.9475768334
0.794764	420923.7251859712
0.796604	1296355.8085365049
0.798453	1889151.696716401
0.80031	2229744.8309346815
0.802176	2551445.8944939207
0.804051	2889278.8826656155
0.805934	3237231.713607174
0.807826	3590251.5778871053
0.809727	3925717.1508472865
0.811636	4279448.316617386
0.813554	4669986.377035255
0.81548	5154124.474943496
0.817416	5500244.675867497
0.81936	5811383.554082355
0.821313	6645544.647077999
0.823274	7192189.1640395215
0.825244	7853394.186575824
0.827223	8476653.439540738
0.829211	9070937.561572537
0.831208	9737974.266230796
0.833213	10450689.884838382
0.835227	11069275.782442486
0.837249	11799245.25812451
0.83928	12582167.43057326
0.841321	13317711.684883855
0.843369	14250037.844845062
0.845427	15071275.794514952
0.847493	16011642.76382339
0.849567	15302871.66721615
0.851651	11299700.124515155
0.853742	14360988.431511512
0.855843	19522013.952087913
0.857952	21090039.605627656
0.86007	21346294.925507925
0.862196	18384127.87723794
0.864331	18829977.216006268
0.866474	21098876.70480348
0.868626	22479269.352923986
0.870786	23192626.843187276
0.872955	24111403.934993383
0.875132	25186094.71224081
0.877317	26933172.42866147
0.879511	27671000.630473185
0.881713	28701953.89884683
0.883923	30068630.704116113
0.886142	32133893.1217056
0.888369	32313428.803366225
0.890604	31453846.055328574
0.892847	25858351.05846572
0.895099	25716340.40905388
0.897358	36385127.18753754
0.899626	40727545.96203686
0.901901	45501732.90383901
0.904185	48694834.93614889
0.906476	49731306.15602312
0.908776	53487251.81478611
0.911083	54850942.175116375
0.913398	57747177.59560195
0.915721	58594119.72465862
0.918051	58524142.90957464
0.92039	62768460.998815365
0.922736	65629667.65524116
0.925089	61783632.82584841
0.927451	42490988.57160233
0.929819	34025974.72516036
0.932195	44994000.21276447
0.934579	46255185.11994696
0.93697	54060115.26547314
0.939369	61782110.82512346
0.941774	60568655.050189614
0.944187	46518442.40912547
0.946607	49398433.903217494
0.949035	49483941.230595976
0.951469	55006695.158709235
0.953911	59491171.283765115
0.956359	65795487.193284534
0.958814	58764529.642319374
0.961277	52557302.77635391
0.963746	51767046.599410795
0.966222	54886933.56838296
0.968705	56709861.60570803
0.971194	71516555.8469534
0.97369	82948224.79799217
0.976193	82829841.91259946
0.978702	86020183.77537249
0.981217	84525444.92548424
0.983739	92666493.16600615
0.986268	98096356.78245224
0.988802	96233802.26355368
0.991343	92201010.82498704
0.99389	94198391.27083758
0.996444	91556585.64879377
0.999003	77980212.0178393
1.00157	76874640.30273695
1.00414	81059062.99072626
1.00672	86295456.88735355
1.0093	92441992.25329676
1.01189	100231849.87412457
1.01448	106628832.16716193
1.01708	110965946.17552444
1.01969	116243558.23215558
1.0223	117254423.76803362
1.02492	116789615.4603004
1.02754	120057691.2560854
1.03017	126959600.10318142
1.0328	135892003.72558206
1.03544	141840439.9765907
1.03808	146388353.46136355
1.04073	147698400.1923207
1.04339	149298773.03909904
1.04604	149708639.85289878
1.04871	146892806.51999277
1.05138	143661688.74089405
1.05405	144272128.79669142
1.05673	147081680.15063572
1.05941	147964648.82487613
1.0621	152921898.50133258
1.06479	156650807.45077807
1.06749	161698548.5804979
1.07019	165835185.37095237
1.07289	173347735.62816644
1.0756	180379294.93225238
1.07832	186146761.2835774
1.08104	192065046.13492957
1.08376	196106461.2296109
1.08649	194310874.8993172
1.08922	185291654.28159338
1.09195	164571059.406522
1.09469	143604540.9214416
1.09743	139901494.24641043
1.10018	110344420.17279516
1.10293	78469286.91104671
1.10568	62127493.43719044
1.10844	85827804.32063508
1.1112	59292050.075874284
1.11396	54561298.958114
1.11673	58274366.93902324
1.1195	57746915.160893984
1.12228	40230914.304355435
1.12505	40437909.76019028
1.12783	69114464.24631429
1.13062	58519404.56131002
1.13341	29149524.914022706
1.1362	42929931.7085279
1.13899	66085508.17227399
1.14178	60489249.48007653
1.14458	57728863.29813692
1.14738	80656374.20636366
1.15019	80418382.55648518
1.153	46200769.04684289
1.1558	48423158.840368725
1.15862	51950871.64258307
1.16143	48371886.0677316
1.16425	54740086.18257319
1.16707	50032203.277804606
1.16989	42602487.687871836
1.17271	49378795.703846425
1.17554	51661353.86060599
1.17837	56742630.763534345
1.1812	78342480.67157224
1.18403	106260226.52244788
1.18686	113515424.66168188
1.1897	108098329.76266
1.19253	130124896.53536129
1.19537	149121486.4397873
1.19822	142640821.13832083
1.20106	153524615.20147964
1.2039	165325656.40597603
1.20675	173291261.05078542
1.2096	169098317.03197816
1.21245	171204387.076783
1.2153	187863549.65114343
1.21815	197295066.05408612
1.221	205993676.82122183
1.22385	215647151.57257313
1.22671	221930352.6619531
1.22957	222624298.18404856
1.23242	226404926.5530232
1.23528	230018038.41389683
1.23814	226954475.44051558
1.241	198127133.4215551
1.24387	179683672.52331161
1.24673	209113831.029621
1.24959	192481526.6287217
1.25245	157575363.30985674
1.25532	207893678.133165
1.25818	247375361.38969675
1.26105	256409805.08445707
1.26392	256863383.84185103
1.26678	261539449.69159082
1.26965	266410631.52015808
1.27252	265388716.37198925
1.27538	270113454.7619903
1.27825	268521421.38165563
1.28112	258738237.7722155
1.28399	252582553.00359234
1.28686	252987565.02452624
1.28973	235222271.54059455
1.2926	228422138.25432372
1.29546	233133454.2347807
1.29833	234039098.181076
1.3012	219316948.77236167
1.30407	231156442.12006366
1.30694	223804551.73362178
1.30981	229530113.76537088
1.31267	212271382.6027099
1.31554	205233805.60313374
1.31841	203057232.8940548
1.32128	191215481.9729136
1.32414	151068836.6492198
1.32701	120336118.60558368
1.32987	91488874.23119561
1.33274	35525376.501971714
1.3356	16739154.444566626
1.33847	6097139.454845671
1.34133	3019889.0731831174
1.34419	5384118.786636287
1.34705	5794693.065736124
1.34991	2271500.669082285
1.35277	974417.5677354526
1.35563	2688157.3083499144
1.35849	4030685.998963717
1.36135	2778460.8990588365
1.3642	4061495.6383268265
1.36706	4075913.6381321535
1.36991	3944090.490452072
1.37277	6012486.401110508
1.37562	6684057.77501794
1.37847	5080059.915209587
1.38132	1768844.8306219734
1.38417	738343.5222243519
1.38701	1710667.1306164581
1.38986	2314527.6858076802
1.39271	3106056.3130410705
1.39555	4071504.7649598066
1.39839	2805494.9059930574
1.40123	4778355.523056133
1.40407	7564374.463401965
1.40691	9012731.958097655
1.40974	5231008.982369899
1.41258	2195437.1481402777
1.41541	2866872.4122537407
1.41824	3329681.3196014506
1.42107	3622369.304455256
1.4239	3086907.6009396166
1.42673	5179584.4566740785
1.42955	7025094.083550468
1.43237	4468245.576448876
1.43519	5225655.624516035
1.43801	4883095.154719277
1.44083	6502841.725193504
1.44365	9934971.589619474
1.44646	8381847.439238004
1.44927	11654764.885349084
1.45208	12896316.38605767
1.45489	12969799.603349665
1.45769	15738673.640265575
1.4605	20089121.914863028
1.4633	18166403.774899233
1.4661	19321309.49344187
1.4689	17821129.030721694
1.47169	20282656.751372725
1.47449	20533441.058683798
1.47728	21655751.277209282
1.48007	19534974.598371346
1.48286	21766141.48947467
1.48564	25051031.492630184
1.48842	22915910.232771873
1.4912	23618775.679250505
1.49398	25934516.151907634
1.49676	27398952.51532525
1.49953	34578175.87961176
1.5023	39564110.323025495
1.50507	41354996.480225295
1.50784	38435292.568871684
1.51061	37731683.64735304
1.51337	44278531.05527636
1.51613	49448962.115426235
1.51888	50368574.237671904
1.52164	61450211.83591168
1.52439	66336667.08047267
1.52714	61304979.37344953
1.52989	62661197.75344123
1.53263	69527587.66087575
1.53538	74647629.24306108
1.53812	73252288.4335432
1.54086	74233373.80268191
1.54359	77029343.02722248
1.54632	84457128.34384699
1.54905	87678751.42343986
1.55178	86735827.65024179
1.5545	88369949.70025346
1.55723	89564721.67404984
1.55995	95024440.06310576
1.56266	99540922.45551832
1.56538	100597900.5373228
1.56809	103653235.87226513
1.5708	104827492.09472696
1.57351	103709824.88895674
1.57621	106185632.70234163
1.57891	107774801.30712861
1.58161	110067101.47165166
1.5843	113015967.3610884
1.587	114648726.14257719
1.58969	113443187.1981374
1.59238	111774906.37771466
1.59506	111703060.37661523
1.59774	111594421.43168335
1.60042	111255589.67877075
1.6031	108389532.83991432
1.60577	105243469.84807272
1.60844	103975520.97956173
1.61111	103426424.24791564
1.61378	101817131.68300219
1.61644	98739444.99147987
1.6191	95070847.0200409
1.62176	91565023.64447322
1.62441	88583527.43276142
1.62707	86731087.0020866
1.62971	83730133.3899266
1.63236	82904427.81246434
1.635	88657233.58453067
1.63764	95949856.08688512
1.64028	98116176.72863714
1.64292	93342552.32276596
1.64555	82827302.36653477
1.64818	78201327.49205367
1.65081	83006825.32553346
1.65343	88973437.52085142
1.65605	88897142.34245074
1.65867	87382907.05120653
1.66128	85443463.73000537
1.6639	75099489.81250581
1.66651	53441794.35411633
1.66911	47835780.85548954
1.67172	62806549.55134213
1.67432	72686077.33247899
1.67692	72245623.64681041
1.67951	69461800.6699532
1.68211	70070533.18293652
1.6847	67903564.61224067
1.68728	62598897.69173311
1.68987	60181027.2196921
1.69245	55020823.387869515
1.69503	46730671.97838355
1.6976	45420072.38748134
1.70018	48839996.409489736
1.70275	47885163.50815432
1.70531	49513144.88696581
1.70788	53242014.34808746
1.71044	53116341.63405121
1.713	55248146.58568549
1.71556	56495384.02712519
1.71811	55697658.19111204
1.72066	55721500.62970365
1.72321	53112720.71767072
1.72575	50076412.291559696
1.7283	48211402.82303961
1.73084	45614868.077775985
1.73337	43099835.592908524
1.73591	41556330.87672945
1.73844	39139725.714790724
1.74097	36396872.39515859
1.74349	34003334.78550668
1.74602	32681210.103628952
1.74854	32219555.361450482
1.75105	29488301.84546588
1.75357	23336816.941801935
1.75608	19682554.235374447
1.75859	20401459.763857063
1.7611	21710968.933466885
1.7636	22180149.44613453
1.7661	19402922.062273085
1.7686	15714474.093980404
1.7711	14707203.512706347
1.77359	13120751.5357596
1.77608	10180967.311920812
1.77857	8677266.06469272
1.78105	8857102.425889451
1.78354	8861959.868490053
1.78602	7430878.181540508
1.78849	6138073.676294654
1.79097	5722259.001163515
1.79344	5485665.210337142
1.79591	5790071.954144233
1.79837	6385721.179142033
1.80084	4660477.830332236
1.8033	3199624.358600138
1.80576	2698647.643935179
1.80821	2514058.3722411823
1.81067	2258554.1763052093
1.81312	2032441.9869464042
1.81557	2021711.8338965557
1.81801	2116915.2733393973
1.82046	2096700.3976991777
1.8229	2177944.6000637934
1.82533	2078710.704019555
1.82777	1957980.2012217653
1.8302	2126524.606339229
1.83263	2387891.0968528558
1.83506	2322782.1150464704
1.83749	2305099.11437016
1.83991	3492159.1649581175
1.84233	5257505.391941146
1.84475	6300679.981663022
1.84716	5836566.0466856435
1.84957	4418097.935920994
1.85198	3390042.703002549
1.85439	2694363.3131685215
1.8568	2965592.6417972073
1.8592	3361888.0870118863
1.8616	2788615.696952619
1.864	2599316.819306382
1.86639	3450266.3077743826
1.86878	3827963.3427553945
1.87118	3170241.575871915
1.87356	3344674.3239829415
1.87595	4848782.030924142
1.87833	6971420.712922785
1.88071	8640241.110967055
1.88309	7854611.215850553
1.88547	6953343.356571924
1.88784	7416932.777800685
1.89021	7194460.888627979
1.89258	9071656.873548336
1.89494	11970517.840233685
1.89731	10142749.415809212
1.89967	5973110.036605759
1.90203	3713436.5230692537
1.90439	4435771.36598098
1.90674	6832202.481796072
1.90909	7398433.593257313
1.91144	5347494.9311421905
1.91379	3321098.6461164476
1.91613	2728712.7111474406
1.91848	2448978.273279011
1.92082	1897016.9683251781
1.92315	1750388.429915516
1.92549	2151011.216760095
1.92782	2394821.975620342
1.93015	2547217.0815317165
1.93248	2970888.673744616
1.93481	3559364.2056738106
1.93713	4010122.2668589917
1.93945	4272657.21713994
1.94177	4667411.262055366
1.94409	4675996.8856957825
1.94641	4158164.4460013895
1.94872	4452280.102515677
1.95103	5091349.768270155
1.95334	3984620.031591123
1.95564	3100919.6849767594
1.95795	3295751.16158322
1.96025	3803106.6050859317
1.96255	4581655.702029904
1.96484	5988522.280834213
1.96714	8032800.592600212
1.96943	9743926.049067404
1.97172	9742775.978584923
1.97401	8399008.884988591
1.97629	8320832.309325121
1.97858	8783084.53249204
1.98086	9594876.957627539
1.98314	11910366.958887912
1.98541	14037066.448027035
1.98769	13969777.706498928
1.98996	12130017.976566529
1.99223	11872285.23608459
1.9945	13524639.940341225
1.99677	13781064.791828433
1.99903	13753863.13259299
2.00129	14794863.931797199
2.00355	16481840.61671047
2.00581	17632062.17060162
2.00806	17901621.77755778
2.01031	19029576.783119407
2.01256	20265423.266213775
2.01481	19977628.997332197
2.01706	19458066.543826114
2.0193	20287664.023270383
2.02154	22781982.279238533
2.02378	25039417.091304697
2.02602	24912077.514729176
2.02825	24295083.42686533
2.03049	24273252.799781535
2.03272	25059642.46129872
2.03494	26184636.70370573
2.03717	26829491.960469387
2.03939	27089772.92716256
2.04162	27492373.655608337
2.04384	28720775.576615732
2.04605	30659321.763961863
2.04827	32330330.20796643
2.05048	32024158.31911185
2.05269	30748942.617102057
2.0549	31427178.966891963
2.05711	33019490.9984035
2.05931	34282294.101163074
2.06151	34398757.67107804
2.06371	33935136.01734945
2.06591	34455477.85962638
2.06811	35254750.01450366
2.0703	35705034.05721055
2.07249	35495407.62106282
2.07468	34752627.83763594
2.07686	34483763.923830196
2.07905	34635803.11172567
2.08123	34852407.197770804
2.08341	34971304.45798494
2.08559	35052999.54362229
2.08776	35230344.22717388
2.08994	35436784.45760688
2.09211	35531585.47915606
2.09428	35502337.65776663
2.09645	35531172.93213544
2.09861	35363597.03332619
2.10077	35029886.62220074
2.10293	34589083.57310994
2.10509	34114271.2743019
2.10725	33743523.36487734
2.1094	33766591.1282166
2.11155	33915676.47936498
2.1137	34024753.64845578
2.11585	33904059.35856395
2.11799	33720640.32748843
2.12013	33634890.86989583
2.12227	33605855.840439536
2.12441	33576192.99382815
2.12655	33360995.43455402
2.12868	33115347.439635552
2.13081	32911905.12808715
2.13294	32729141.521154054
2.13507	32336600.91452254
2.13719	31835395.257308856
2.13931	31342978.241574574
2.14143	30832088.32495947
2.14355	30134216.683842756
2.14567	29829284.87789491
2.14778	29607843.986700285
2.14989	29344988.992768545
2.152	28852453.174811002
2.1541	28849767.874888357
2.15621	28841613.355100527
2.15831	28676416.864555616
2.16041	28117554.76764047
2.16251	27856318.693602726
2.1646	27602084.74620398
2.1667	27282361.94015455
2.16879	26882659.443063095
2.17087	26336531.339297455
2.17296	25749416.359792583
2.17504	25171944.228717968
2.17713	24615457.044851635
2.1792	24076514.95083403
2.18128	23531519.3692133
2.18336	22965058.662002936
2.18543	22329968.94173214
2.1875	21633034.342709597
2.18957	20797549.297360055
2.19163	19489539.311768156
2.1937	17804433.182510473
2.19576	16013799.850328816
2.19782	14219338.385476781
2.19987	12621968.99327687
2.20193	11220314.783773167
2.20398	10129024.203534657
2.20603	9795643.691993974
2.20808	10420489.113916852
2.21012	11400888.574860705
2.21217	12499761.705079518
2.21421	13061706.2619804
2.21625	13248682.91585637
2.21828	13097188.016707085
2.22032	12828790.647056967
2.22235	12619309.853206905
2.22438	12358088.696818868
2.22641	11797937.906071609
2.22843	11283217.084843213
2.23046	10848923.0427551
2.23248	10556405.49157459
2.2345	10251852.297971062
2.23651	9964979.599072274
2.23853	9699439.272872623
2.24054	9286939.603088237
2.24255	8767216.215516943
2.24456	8182601.997966874
2.24657	8087628.075367594
2.24857	8288812.399962826
2.25057	8644078.301482337
2.25257	8653331.820646947
2.25457	8572611.027770977
2.25656	8455258.598649193
2.25856	8399186.160080673
2.26055	8133130.7612212775
2.26254	7774233.119981006
2.26453	7434039.682441508
2.26651	7454892.735375401
2.2685	7680373.051581532
2.27048	8101140.769866281
2.27246	8472284.352672422
2.27443	8728338.042506328
2.27641	8610029.700310089
2.27838	8313596.95879537
2.28036	7937655.733066735
2.28233	7584430.180448374
2.28429	7297794.074394782
2.28626	7045884.893917241
2.28823	6808858.234122908
2.29019	6652111.885522487
2.29215	6562416.345324908
2.29411	6663617.847129025
2.29607	6816683.748741413
2.29802	7012959.564490016
2.29998	7419162.322611693
2.30193	7992672.856629883
2.30388	8759760.806588743
2.30583	9787239.93425249
2.30778	10798169.776791865
2.30972	11736230.776605831
2.31167	11721443.372483512
2.31361	11060958.524918944
2.31555	9149757.981703095
2.31749	7350317.8394132685
2.31943	5780511.224169555
2.32137	5482811.46734324
2.32331	5348013.595633522
2.32524	5342960.075742706
2.32718	5233318.453646134
2.32911	5155449.924891938
2.33104	5124973.358525804
2.33297	5118332.993845173
2.3349	5115243.401457044
2.33683	5107350.480128915
2.33876	5050598.898399762
2.34068	4964821.885136469
2.34261	4817382.037233036
2.34453	4751101.745124088
2.34646	4776065.835225455
2.34838	5065675.639338477
2.3503	5450569.097194607
2.35223	5992969.270401816
2.35415	6501265.836759168
2.35607	6993525.144904845
2.35799	7474466.7804888785
2.35991	7949474.061111326
2.36183	8417319.189193826
2.36375	8266903.341303156
2.36566	7775591.955255077
2.36758	6493607.997562608
2.3695	5300727.704274894
2.37142	4164965.1445801575
2.37334	4186142.2743859715
2.37526	4349858.449465295
2.37718	4741044.240231741
2.3791	4961398.174951518
2.38101	5126347.013871704
2.38293	5309707.8824967295
2.38485	5599469.162035904
2.38677	5997870.861139974
2.3887	6306098.116632516
2.39062	6550524.901512958
2.39254	6645179.123833638
2.39446	6748258.967762769
2.39639	6857304.855785618
2.39831	7059018.5025555985
2.40024	7173892.740568304
2.40216	7120012.01001026
2.40409	7041928.04779142
2.40602	6987126.445803814
2.40795	7324648.027206505
2.40989	7703393.801308769
2.41182	8128487.194316394
2.41376	8200115.352214758
2.4157	8157466.775912637
2.41764	7968938.102169424
2.41958	7897646.064619518
2.42152	7921677.27332025
2.42347	8001378.352146687
2.42542	8134713.071163102
2.42737	8388850.294389576
