#wavelength	surface flux
0.7	37220595.56423296
0.7001166666666666	37402504.77456937
0.7002333527777778	37637943.49752779
0.700350058336574	37873421.46027326
0.7004667833462966	38108938.66934554
0.7005835278101878	38344495.13128665
0.7007002917314895	38580090.85263771
0.7008170751134447	38815725.839942284
0.7009338779592968	39051400.09974464
0.7010507002722901	39170658.37093249
0.7011675420556689	39148218.200043246
0.701284403312678	39125774.28912555
0.7014012840465635	39103326.637556
0.7015181842605713	39080875.2447112
0.701635103957948	39058420.109967604
0.701752043141941	39035961.23270156
0.701869001815798	39013498.612289265
0.7019859799827672	38906660.73023972
0.7021029776460976	38741087.21620999
0.7022199948090387	38575486.10659439
0.7023370314748403	38409857.396793924
0.7024540876467528	38244201.082208514
0.702571163328027	38078517.15823762
0.7026882585219152	37912805.62027895
0.7028053732316688	37747066.46373086
0.7029225074605406	37690757.573620215
0.7030396612117841	37676706.00974774
0.7031568344886527	37662652.10394796
0.7032740272944008	37648595.85583055
0.7033912396322832	37634537.26500511
0.7035084715055552	37620476.33108122
0.7036257229174727	37606413.05366833
0.7037429938712924	37592347.43237586
0.7038602843702709	37840152.80951711
0.7039775944176659	38132415.12282309
0.7040949240167356	38424726.14651473
0.7042122731707383	38717085.88871016
0.7043296418829335	39009494.35752947
0.7044470301565806	39301951.561093524
0.70456443799494	39594457.50752462
0.7046818654012724	39887012.20494695
0.7047993123788394	38548822.87784892
0.7049167789309024	37208539.11210962
0.7050342650607243	35868031.96574061
0.7051517707715678	34527301.40151451
0.7052692960666963	33186347.382195033
0.705386840949374	31845169.87053957
0.7055044054228656	30503768.82929665
0.7056219894904361	29376974.918521848
0.7057395931553511	29615219.42039249
0.705857216420877	29853503.629680302
0.7059748592902804	30091827.55300286
0.7060925217668288	30330191.196979545
0.70621020385379	30568594.568230186
0.7063279055544321	30807037.673375737
0.7064456268720246	31045520.519039173
0.7065633678098366	31270832.960378148
0.7066811283711383	31459801.95441414
0.7067989085592001	31648802.443282474
0.7069167083772933	31837834.43223216
0.7070345278286895	32026897.926513467
0.707152366916661	32215992.931377187
0.7072702256444803	32405119.452074837
0.7073881040154211	32594277.493859522
0.7075060020327569	32719637.861340135
0.7076239196997625	32752061.634060953
0.7077418570197124	32784490.810743857
0.7078598139958823	32816925.39228954
0.7079777906315483	32849365.37959885
0.7080957869299869	32881810.77357268
0.7082138028944751	32914261.57511216
0.7083318385282908	32946717.785118584
0.7084498938347124	32859434.519511152
0.708567968817018	32670614.54644084
0.7086860634784875	32481763.1033748
0.7088041778224007	32292880.185068093
0.7089223118520377	32103965.786275253
0.7090404655706796	31915019.901749387
0.709158638981608	31726042.52624255
0.709276832088105	31537033.654506423
0.7093950448934531	31509966.82906945
0.7095132774009353	31560142.42480403
0.7096315296138355	31610326.383137923
0.7097498015354378	31660518.705464855
0.7098680931690269	31710719.39317879
0.7099864045178884	31760928.447674077
0.7101047355853081	31811145.870345104
0.7102230863745722	31861371.66258654
0.7103414568889679	31828574.744270395
0.7104598471317828	31776905.74186605
0.7105782571063047	31725228.12796134
0.7106966868158224	31673541.901120983
0.710815136263625	31621847.059909496
0.7109336054530023	31570143.60289111
0.7110520943872445	31518431.528629903
0.7111706030696424	31466710.835689623
0.7112891315034873	31624152.294646483
0.7114076796920712	31791600.133783597
0.7115262476386865	31959075.880893905
0.7116448353466263	32126579.540628616
0.711763442819184	32294111.117640037
0.711882070059654	32461670.61658111
0.7120007170713306	32629258.04210523
0.7121193838575091	32785834.805983685
0.7122380704214853	32827307.967809558
0.7123567767665555	32868788.041829024
0.7124755028960166	32910275.02919418
0.7125942488131658	32951768.931057204
0.7127130145213015	32993269.748570647
0.7128318000237216	33034777.48288688
0.7129506053237256	33076292.135158896
0.7130694304246129	33076274.47773531
0.7131882753296837	32931021.039981727
0.7133071400422386	32785743.393321812
0.7134260245655789	32640441.53372089
0.7135449289030065	32495115.457143318
0.7136638530578235	32349765.159553062
0.7137827970333332	32204390.636912998
0.7139017608328388	32058991.885185864
0.7140207444596443	32010200.337195348
0.7141397479170543	32133781.550132755
0.7142587712083737	32257383.35993881
0.7143778143369084	32381005.770046603
0.7144968773059646	32504648.783889435
0.7146159601188489	32628312.404901203
0.7147350627788687	32751996.63651648
0.7148541852893318	32875701.482170317
0.7149733276535467	33048205.0346767
0.7150924898748222	33269924.07285049
0.715211671956468	33491680.064197358
0.7153308739017941	33713473.01487629
0.715450095714111	33935302.931046896
0.71556933739673	34157169.818870224
0.7156885989529628	34379073.68450817
0.7158078803861218	34601014.53412404
0.7159271816995193	34687778.00199632
0.7160465028964692	34695193.52996687
0.7161658439802853	34702610.293858744
0.7162852049542819	34710028.29387793
0.7164045858217744	34717447.53023046
0.716523986586078	34724868.00312238
0.7166434072505089	34732289.71275978
0.716762847818384	34739712.659348786
0.7168823082930204	34873201.2405109
0.7170017886777359	35043799.679010265
0.7171212889758488	35214426.550582595
0.7172408091906781	35385081.859966904
0.7173603493255433	35555765.61190283
0.7174799093837642	35726477.81113065
0.7175994893686615	35897218.46239175
0.7177190892835562	36067987.57042798
0.7178387091317702	36324617.677110925
0.7179583489166254	36589906.672095075
0.7180780086414448	36855239.88191192
0.7181976883095517	37120617.3139304
0.7183173879242699	37386038.9755209
0.718437107488924	37651504.874055065
0.7185568470068389	37917015.016905755
0.7186766064813399	38178758.50615276
0.7187963859157535	38345264.58844276
0.7189161853134061	38511798.42174647
0.719036004677625	38678360.01068908
0.7191558440117378	38844949.35989641
0.7192757033190732	39011566.47399551
0.7193955826029597	39178211.35761342
0.7195154818667269	39344884.01537874
0.7196354011137046	39468188.45352351
0.7197553403472235	39391710.5087207
0.7198752995706147	39315219.81759379
0.7199952787872098	39238716.37801831
0.720115278000341	39162200.18786957
0.7202352972133411	39085671.24502245
0.7203553364295432	39009129.54735165
0.7204753956522815	38932575.09273113
0.7205954748848902	38866760.284372404
0.7207155741307044	38824639.541984156
0.7208356933930594	38782511.77947225
0.7209558326752915	38740376.99566658
0.7210759919807375	38698235.18939688
0.7211961713127342	38656086.35949287
0.7213163706746197	38613930.504783794
0.7214365900697322	38571767.62409899
0.7215568295014103	38715970.875584245
0.721677088972994	39082572.73698528
0.7217973684878227	39449235.69869594
0.7219176680492374	39815959.77090066
0.7220379876605789	40182744.96378385
0.722158327325189	40549591.287532665
0.7222786870464099	40916498.752335235
0.7223990668275843	41283467.368382104
0.7225194666720555	41465705.22870784
0.7226398865831676	41517006.80407576
0.7227603265642646	41568316.92970611
0.722880786618692	41619635.60702418
0.7230012667497951	41670962.837455094
0.7231217669609201	41722298.62242442
0.7232422872554135	41773642.96335787
0.7233628276366229	41824995.861681566
0.7234833881078956	41804323.06589418
0.7236039686725803	41756298.19873505
0.7237245693340255	41708265.32743147
0.7238451900955812	41660224.450649254
0.7239658309605971	41612175.567054294
0.7240864919324239	41564118.675312005
0.7242071730144127	41516053.77408776
0.724327874209915	41467980.86204673
0.7244485955222832	41741832.3228947
0.7245693369548704	42068958.22567585
0.7246900985110294	42396138.64944032
0.7248108801941148	42723373.60327628
0.7249316820074803	43050663.09627013
0.7250525039544815	43378007.13751334
0.7251733460384739	43705405.73609681
0.7252942082628137	44032393.520618476
0.7254150906308574	44089779.60450257
0.7255359931459625	44147175.252734
0.7256569158114868	44204580.4669068
0.7257778586307888	44261995.24861534
0.7258988216072273	44319419.599454135
0.7260198047441617	44376853.52101801
0.7261408080449525	44434297.01490225
0.72626183151296	44472745.75294273
0.7263828751515454	44384906.22401317
0.7265039389640706	44297052.05516215
0.726625022953898	44209183.243949585
0.7267461271243904	44121299.787935115
0.7268672514789111	44033401.68467803
0.7269883960208241	43945488.931737155
0.7271095607534942	43857561.526670724
0.7272307456802866	43757130.40318136
0.7273519508045666	43622946.56517433
0.7274731761297006	43488740.363194354
0.7275944216590555	43354511.79351405
0.7277156873959987	43220260.85240543
0.7278369733438982	43085987.53613973
0.727958279506122	42951691.840988345
0.7280796058860397	42817373.76322094
0.7282009524870207	42738008.17559075
0.7283223193124353	42739943.3246766
0.7284437063656539	42741878.7962873
0.7285651136500483	42743814.590476595
0.7286865411689898	42745750.70729826
0.7288079889258514	42747687.146806054
0.7289294569240056	42749623.909053765
0.7290509451668262	42751560.99409519
0.7291724536576875	42929840.47720176
0.7292939823999636	43254268.06569646
0.7294155313970303	43578749.725456566
0.7295371006522632	43903285.4654932
0.7296586901690385	44227875.29481959
0.7297802999507332	44552519.22245073
0.7299019300007252	44877217.25740398
0.7300235803223919	45201969.40869551
0.7301452509191123	45413513.91257578
0.7302669417942654	45572815.49978995
0.7303886529512311	45732143.63726871
0.7305103843933897	45891498.32943708
0.7306321361241218	46050879.580720685
0.7307539081468093	46210287.395546466
0.7308757004648336	46369721.77834103
0.7309975130815778	46529182.733532935
0.7311193460004248	46722023.09166595
0.7312411992247582	46922446.243907586
0.7313630727579622	47122902.80000788
0.7314849666034219	47323392.76553439
0.7316068807645224	47523916.14605504
0.7317288152446498	47724472.947139196
0.7318507700471907	47925063.174356975
0.7319727451755319	48125686.83327921
0.732094740633061	48383651.673159964
0.7322167564231665	48644239.51995096
0.7323387925492371	48904870.79804978
0.7324608490146619	49165545.51469487
0.732582925822831	49426263.67712613
0.7327050229771347	49687025.292584166
0.7328271404809642	49947830.36831171
0.7329492783377112	50181576.648911476
0.7330714365507675	50148917.96300611
0.7331936151235259	50116253.833986424
0.7333158140593796	50083584.26094528
0.7334380333617229	50050909.24297525
0.7335602730339499	50018228.77916887
0.7336825330794556	49985542.86861852
0.7338048135016354	49952851.51041647
0.7339271143038857	49803802.27693507
0.734049435489603	49264867.789052814
0.7341717770621846	48725843.47875581
0.7342941390250283	48186729.33107403
0.7344165213815324	47647525.33103451
0.734538924135096	47108231.463660866
0.7346613472891185	46568847.713976696
0.734783790847	46029374.067000724
0.7349062548121412	45394621.2433087
0.7350287391879431	44591511.714981526
0.7351512439778078	43788268.33506466
0.7352737691851374	42984891.08125209
0.735396314813335	42181379.93122985
0.7355188808658037	41377734.862683944
0.7356414673459482	40573955.85329163
0.7357640742571725	39770042.88073164
0.7358867016028818	39390353.57390188
0.7360093493864824	39429692.43482603
0.7361320176113801	39469037.85222696
0.736254706280982	39508389.82719745
0.7363774153986956	39547748.360830486
0.7365001449679286	39587113.45421905
0.7366228949920899	39626485.108456545
0.7367456654745885	39665863.32463641
0.7368684564188344	39450380.760569595
0.7369912678282374	39090816.63150933
0.7371140997062088	38731192.57509407
0.7372369520561599	38371508.58133573
0.7373598248815024	38011764.640245914
0.7374827181856494	37651960.74183197
0.7376056319720137	37292096.876101606
0.7377285662440091	36932173.03306023
0.7378515210050496	36915884.26282538
0.7379744962585505	37003000.16567022
0.738097492007927	37090130.587832175
0.7382205082565949	37177275.531731114
0.738343545007971	37264434.99978734
0.7384666022654723	37351608.99442167
0.7385896800325165	37438797.51805497
0.7387127783125219	37526000.573108986
0.7388358971089073	37334987.45624363
0.7389590364250921	37116035.273483925
0.7390821962644963	36897046.5986936
0.7392053766305403	36678021.42579113
0.7393285775266454	36458959.74869302
0.7394517989562333	36239861.56131518
0.7395750409227259	36020726.85757313
0.7396983034295463	35835716.3289967
0.739821586480118	36410605.10652863
0.7399448900778645	36985589.698855676
0.7400682142262109	37560670.12194986
0.740191558928582	38135846.391780615
0.7403149241884034	38711118.524322554
0.7404383100091014	39286486.535553396
0.7405617163941028	39861950.44145241
0.7406851433468352	40235159.02284773
0.7408085908707264	39682721.56846669
0.7409320589692048	39130192.041176856
0.7410555476456997	38577570.42563202
0.7411790569036406	38024856.706485
0.7413025867464579	37472050.86838463
0.7414261371775823	36919152.895977765
0.7415497082004452	36366162.77390925
0.7416732998184786	35975369.60011172
0.741796912035115	35932653.39444911
0.7419205448537874	35889930.0694189
0.7420441982779297	35847199.62383451
0.742167872310976	35804462.05650917
0.7422915669563612	35761717.366255924
0.7424152822175206	35718965.551887654
0.7425390180978901	35676206.61221702
0.7426627746009065	35510433.56785424
0.7427865517300065	35194678.579907276
0.7429103494886282	34878870.966128655
0.7430341678802096	34563010.71774799
0.7431580069081896	34247097.8259926
0.7432818665760077	33931132.282088146
0.7434057468871037	33615114.07725997
0.7435296478449182	33299043.202731177
0.7436535694528923	33059353.528391782
0.7437775117144678	32871945.24018569
0.7439014746330868	32684505.717265178
0.7440254582121922	32497034.954424016
0.7441494624552276	32309532.946455643
0.7442734873656368	32121999.688152645
0.7443975329468645	31934435.17430645
0.7445215992023557	31746839.399707966
0.7446456861355559	31573205.195771344
0.7447697937499119	31404696.642275345
0.7448939220488703	31236160.004020467
0.7450180710358784	31067595.276326027
0.7451422407143843	30899002.45451029
0.7452664310878367	30730381.533890754
0.7453906421596846	30561732.50978463
0.7455148739333779	30393055.37750777
0.7456391264123667	30400218.216065567
0.7457633996001021	30435502.582523916
0.7458876935000356	30470792.829710066
0.7460120081156189	30506088.958604015
0.7461363434503048	30541390.970186133
0.7462606995075466	30576698.865436874
0.7463850762907978	30612012.645336773
0.7465094738035127	30646703.493955046
0.7466338920491467	30516905.11843633
0.746758331031155	30387085.109854896
0.7468827907529935	30257243.46460552
0.7470072712181189	30127380.179081935
0.7471317724299886	29997495.249677405
0.7472562943920602	29867588.672784727
0.7473808371077922	29737660.444795787
0.7475054005806435	29609843.589922722
0.7476299848140736	29495144.0470944
0.7477545898115426	29380425.387675583
0.7478792155765113	29265687.608480167
0.7480038621124406	29150930.70632164
0.7481285294227926	29036154.67801278
0.7482532175110298	28921359.520365752
0.7483779263806148	28806545.23019261
0.7485026560350116	28693758.727402024
0.7486274064776842	28586493.34756658
0.748752177712097	28479210.09016802
0.7488769697417158	28371908.952226337
0.749001782570006	28264589.93076179
0.7491266162004343	28157253.022793703
0.7492514706364677	28049898.225340903
0.7493763458815739	27942525.53542175
0.7495012419392209	27806060.73563956
0.7496261588128773	27627775.543739967
0.7497510965060128	27449460.637641598
0.7498760550220971	27271116.01239228
0.7500010343646007	27092741.66303872
0.7501260345369949	26914337.58462685
0.750251055542751	26735903.77220211
0.7503760973853414	26557440.22080853
0.7505011600682389	26359373.93166538
0.750626243594917	26144931.629187375
0.7507513479688495	25930453.586325947
0.7508764731935109	25715939.79712397
0.7510016192723765	25501390.25562374
0.7511267862089218	25286804.95586679
0.7512519740066232	25072183.891893137
0.7513771826689577	24857527.057742037
0.7515024121994025	24665832.404656842
0.7516276626014359	24484828.742525883
0.751752933878536	24303794.913118217
0.7518782260341824	24122730.91140559
0.7520035390718548	23941636.732359264
0.7521288729950334	23760512.370949857
0.7522542278071992	23579357.822146866
0.7523796035118337	23398173.080918986
0.7525050001124189	23207727.223007686
0.7526304176124378	23015242.105632015
0.7527558560153731	22822724.907403693
0.752881315324709	22630175.62297548
0.7530067955439299	22437594.246999793
0.7531322966765205	22244980.77412837
0.7532578187259665	22052335.199011408
0.7533833616957542	21859657.5162986
0.75350892558937	21590769.947007485
0.7536345104103016	21318255.46648657
0.7537601161620366	21045695.566885706
0.7538857428480638	20773090.240634643
0.7540113904718717	20500439.480162892
0.7541370590369503	20227743.27789779
0.7542627485467898	19955001.62626547
0.7543884590048808	19680995.14649195
0.7545141904147151	19394783.29120103
0.7546399427797842	19108523.73393469
0.7547657161035808	18822216.466742095
0.754891510389598	18535861.48167165
0.7550173256413296	18249458.770770244
0.7551431618622698	17963008.326083757
0.7552690190559135	17676510.13965655
0.7553948972257561	17383358.56653666
0.7555207963752938	17067985.498333294
0.755646716508023	16752559.86795207
0.755772657627441	16437081.666632341
0.7558986197370455	16121550.885612346
0.756024602840335	15805967.516128927
0.7561506069408084	15490331.549417267
0.7562766320419653	15174642.976710869
0.7564026781473054	14857024.385211997
0.75652874526033	14536049.127062667
0.7566548333845401	14215020.373036815
0.7567809425234375	13893938.114218736
0.7569070726805247	13572802.34169104
0.7570332238593047	13251613.046534631
0.7571593960632813	12930370.219828725
0.7572855892959586	12609073.852651682
0.7574118035608413	12295962.990732884
0.7575380388614347	11990860.4797222
0.7576642952012449	11685707.1182929
0.7577905725837782	11380502.897970466
0.7579168710125422	11075247.810277438
0.7580431904910444	10769941.846736344
0.7581695310227928	10464584.99886838
0.7582958926112967	10159177.258192053
0.7584222752600652	9858064.734621093
0.7585486789726085	9559398.704781711
0.7586751037524372	9260682.897270577
0.7588015496030628	8961917.30379094
0.7589280165279966	8663101.916046316
0.7590545045307512	8364236.725737067
0.7591810136148396	8065321.724562773
0.7593075437837755	7766356.904221176
0.7594340950410726	7497885.550144447
0.7595606673902461	7238231.177377202
0.7596872608348112	6978533.528880903
0.7598138753782836	6718792.597443473
0.75994051102418	6459008.375850561
0.7600671677760173	6199180.856887586
0.7601938456373134	5939310.033337919
0.7603205446115863	5679395.897984474
0.7604472647023548	5451611.078266923
0.7605740059131385	5226986.250454523
0.7607007682474575	5002323.985170602
0.7608275517088319	4777624.276176298
0.7609543563007835	4552887.117229998
0.7610811820268336	4328112.502090675
0.7612080288905045	4103300.4245159267
0.7613348968953197	3880399.531298016
0.7614617860448022	3697443.545536689
0.7615886963424764	3514457.0671108193
0.7617156277918667	3331440.090938722
0.7618425803964988	3148392.611937112
0.7619695541598982	2965314.625022384
0.7620965490855914	2782206.1251099715
0.7622235651771058	2599067.107114029
0.7623506024379685	2426064.1330048004
0.7624776608717082	2297593.4982441487
0.7626047404818536	2169101.4517110307
0.7627318412719337	2040587.9898370448
0.762858963245479	1912053.109052666
0.7629861064060198	1783496.8057881445
0.7631132707570876	1654919.0764729457
0.7632404563022137	1526319.91753631
0.7633676630449308	1409448.1556115395
0.7634948909887717	1317566.273726213
0.7636221401372697	1225669.0781940254
0.7637494104939593	1133756.5664624956
0.7638767020623748	1041828.7359791433
0.7640040148460518	949885.5841906057
0.7641313488485262	857927.10854344
0.7642587040733344	765953.3064835622
0.7643860805240132	687164.1174743762
0.7645134782041005	624113.2847164078
0.7646408971171346	561051.9434862868
0.764768337266654	497980.0920326505
0.7648957986561985	434897.7286037516
0.7650232812893079	371804.8514476229
0.7651507851695227	308701.4588119675
0.7652783103003843	245587.54894421407
