#wavelength	surface flux
0.6450077295303345	52211.712626526656
0.6472567915916443	59109.56250441958
0.6494921445846558	67025.79249567866
0.6517150402069092	75420.02602561408
0.6539263725280762	84392.22219853236
0.6561272740364075	93904.95277643162
0.6583186388015747	103863.54832377016
0.6605015397071838	114703.03522949462
0.6626768708229065	126000.11561852643
0.6648455858230591	137794.0786769091
0.6670085787773132	148795.65123314477
0.6691668033599854	139985.9397759463
0.6713210344314575	121756.62309837615
0.6734722256660461	183316.71321339477
0.6756211519241333	204713.58372922352
0.6777685880661011	220809.97395956778
0.6799154281616211	236552.2588534624
0.6820623278617859	252341.95599439286
0.6842101216316223	268140.1264945212
0.6863595843315125	283752.77988522366
0.688511312007904	299147.08999317704
0.6906660795211792	311932.4076416736
0.6928245425224304	319794.36800362647
0.6949873566627502	338228.99648769054
0.6971551775932312	355780.2944207553
0.6993286609649658	368476.9289609927
0.7015084028244019	377259.8435141786
0.7036949396133423	388555.8150939668
0.7058889269828796	397894.0057560344
0.7080909013748169	405152.66842897935
0.710301399230957	410054.1958890845
0.712520956993103	412695.9863046562
0.7147500514984131	410511.87156243075
0.7169892191886902	395412.66584114556
0.7192389369010925	389405.87134077767
0.7214996814727783	387283.717908225
0.723771870136261	375488.8945863189
0.7260559797286987	358196.5558975179
0.7283523678779602	343385.80773899256
0.7306615710258484	321162.6013735906
0.7329838871955872	303035.87477342703
0.7353196740150452	280719.2880694749
0.7376693487167358	252824.9609988439
0.7400332689285278	227324.01243211812
0.7424117922782898	198263.20933315222
0.7448052167892456	169802.3024023244
0.7472138404846191	141377.6754743132
0.7496379613876343	113777.56023650874
0.7520779371261597	87930.88631364275
0.7545340061187744	64786.94693788858
0.7570064663887024	44851.6414766026
0.7594954967498779	28433.56074095019
0.7620013952255249	15370.365307136455
0.7645244002342224	5484.642918422879
0.7670646905899048	1385.8849249877062
0.7696225643157959	1552.5699291133942
0.7721980810165405	9936.835681190325
0.7747915983200073	26114.20327275683
0.7774031162261963	47243.64707696364
0.7800329327583313	59694.53743478249
0.7826811671257019	111982.20230999727
0.7853479981422424	164283.19516136
0.7880334854125977	222881.17786684123
0.7907378077507019	286407.6062972017
0.7934610247612	190324.84693999926
0.7962033748626709	317299.2922082626
0.7989648580551147	548803.0184451538
0.801745593547821	671182.5121270597
0.8045456409454346	796996.0409175878
0.8073651194572449	926472.9250561484
0.8102040886878967	1034524.5898848146
0.8130625486373901	1147481.4830770048
0.8159406185150146	1343612.041898213
0.8188382983207703	1507286.3967209049
0.8217556476593018	1729608.187265503
0.8246926665306091	1931936.4474190483
0.8276493549346924	2169284.387228356
0.8306257724761963	2385693.538638525
0.8336219191551208	2641234.1858431245
0.8366377949714661	2852877.660804712
0.8396733403205872	3141700.2120537264
0.8427285552024841	3450645.3336477033
0.8458034992218018	3796959.6557640466
0.8488980531692505	4111836.6461425107
0.8520121574401855	3153528.4521650085
0.8551458716392517	4784781.696562758
0.8582990765571594	5495821.107204203
0.8614717125892639	5890755.400489059
0.8646637797355652	6338109.26841817
0.8678751587867737	6880530.36536516
0.8711057901382446	7451053.619707816
0.8743556141853333	7984025.88040077
0.87762451171875	8561384.970528416
0.8809124231338501	9023656.182634607
0.8842192888259888	9505096.012170553
0.8875449895858765	9864658.11618135
0.8908893465995789	9631904.127044117
0.894252359867096	6697502.052850325
0.8976338505744934	10313505.92426598
0.9010337591171265	12431884.381268822
0.9044519662857056	14091085.435159475
0.9078882932662964	14621751.857125292
0.9113426208496094	15270928.919488467
0.914814829826355	16003452.11377196
0.9183048605918884	15094012.555084022
0.9218124747276306	17457707.654947292
0.925337553024292	14771114.024450557
0.9288799166679382	5012136.785558604
0.9324395060539246	7954533.612216312
0.9360161423683167	9362204.345693815
0.9396095871925354	13346731.578714559
0.943219780921936	9166955.739444226
0.9468464851379395	8055133.998000112
0.9504896402359009	8810870.042652981
0.9541489481925964	12247512.175987367
0.9578243494033813	13572075.618380522
0.9615156054496765	9413746.289460288
0.9652225375175476	10093540.93759131
0.9689450263977051	11214266.982472148
0.9726828336715698	20685770.67949773
0.9764357805252075	20343197.643429056
0.9802037477493286	20351829.97657968
0.983986496925354	23536677.612760965
0.9877838492393494	26188435.204277173
0.9915955662727356	29811898.926245946
0.9954215884208679	31857341.39740001
0.9992615580558777	31706784.703777682
1.0031154155731201	33138238.75347868
1.0069829225540161	37232873.248833634
1.0108637809753418	41148641.75789024
1.0147579908370972	46391762.036101535
1.018665075302124	49440201.56064263
1.022585153579712	51513843.98691268
1.0265177488327026	53089836.66791975
1.0304628610610962	57130445.68480306
1.0344202518463135	63277870.83698278
1.0383895635604858	67359510.6107249
1.0423706769943237	70455736.20304628
1.0463634729385376	74421270.83801146
1.0503677129745483	76770861.2067304
1.0543830394744873	81836312.82443878
1.058409333229065	86353867.91205989
1.0624464750289917	91281248.62433851
1.0664942264556885	93711010.6298027
1.0705522298812866	94695336.78650753
1.0746204853057861	101788369.799875
1.0786986351013184	104992931.4298209
1.0827864408493042	108949708.89728689
1.086883783340454	102009610.18320492
1.0909905433654785	76023115.31504977
1.0951062440872192	49917070.27272468
1.0992310047149658	40210187.90360423
1.10336434841156	15342075.036882209
1.1075061559677124	18689898.213029712
1.1116561889648438	9719173.99089408
1.115814208984375	10383958.459643524
1.1199802160263062	8918220.368198806
1.124153733253479	4212401.707616974
1.1283347606658936	12203924.233756656
1.1325229406356812	5151259.791747854
1.1367181539535522	12017789.310546277
1.1409201622009277	14817886.589338785
1.145128846168518	11443941.195272055
1.1493438482284546	17178372.7992725
1.1535650491714478	5328125.241283069
1.1577922105789185	7803002.587807634
1.1620250940322876	7786539.433123484
1.1662636995315552	10636426.827918597
1.170507550239563	9360180.733223164
1.174756646156311	14147826.475534521
1.1790107488632202	20406136.360170417
1.1832695007324219	33611700.522509135
1.1875330209732056	38611778.68376848
1.191800832748413	44154104.44001852
1.1960728168487549	61914011.57745424
1.2003488540649414	62845988.98454623
1.2046287059783936	77425683.05572303
1.2089121341705322	76748419.12378399
1.2131990194320679	80478074.6426475
1.2174891233444214	96178184.44811697
1.2217823266983032	108582837.90971965
1.2260783910751343	119864750.23497811
1.230377197265625	121631415.31306857
1.2346785068511963	129049366.62982067
1.238982081413269	127004823.272831
1.2432878017425537	99379887.6890242
1.2475954294204712	123712842.54950564
1.2519049644470215	91651714.9062024
1.256216049194336	133933085.49440391
1.2605286836624146	151386682.41475475
1.2648425102233887	147300352.32025173
1.2691574096679688	152022855.32553482
1.2734732627868652	148464044.93015957
1.2777899503707886	150633434.43226352
1.2821072340011597	130315465.22548205
1.2864248752593994	127568359.91512339
1.2907428741455078	101293587.04557678
1.2950609922409058	101609298.60465677
1.2993791103363037	97590073.16126655
1.303696870803833	98553257.4761329
1.3080145120620728	95412011.24137154
1.3123314380645752	84254872.51537551
1.3166478872299194	79733067.96263358
1.3209635019302368	73752215.35881634
1.3252781629562378	41616558.78053532
1.3295916318893433	27884072.67208487
1.3339040279388428	6312255.1270386595
1.3382149934768677	1468255.5019396432
1.3425244092941284	614491.2554706358
1.3468321561813354	1144662.8851616806
1.3511382341384888	179601.8154552795
1.3554422855377197	362970.4729966986
1.3597444295883179	419396.03534958087
1.3640443086624146	438390.13085339824
1.3683418035507202	358496.1693882692
1.3726370334625244	755677.4135451342
1.3769296407699585	729555.2296985288
1.381219506263733	154677.9211573458
1.3855066299438477	95553.82325334076
1.3897908926010132	250271.62872170197
1.3940720558166504	554602.3080378812
1.3983501195907593	420297.3996064343
1.4026249647140503	1120000.6727205822
1.4068963527679443	1665975.473602057
1.4111642837524414	443098.1331123022
1.4154287576675415	375714.88320349285
1.419689416885376	483286.0695546158
1.4239463806152344	447106.62075689976
1.4281994104385376	1250900.4717331778
1.4324485063552856	784968.983457951
1.436693549156189	938489.368197688
1.440934419631958	1404872.787368595
1.4451709985733032	1870269.4756490057
1.449403166770935	2778278.7558240118
1.453631043434143	3058963.170163961
1.4578542709350586	4195395.022773399
1.4620729684829712	4801812.333438879
1.4662868976593018	4850243.252688891
1.4704961776733398	4901386.315875148
1.4747005701065063	5531048.4832487
1.4788999557495117	5202401.058416222
1.4830944538116455	5941075.14194547
1.4872838258743286	6441411.8887546975
1.491468071937561	6433737.872874356
1.4956470727920532	7406350.7397382045
1.4998208284378052	10776115.22148934
1.5039892196655273	13423979.85039795
1.5081522464752197	12030582.200427806
1.5123097896575928	13746769.810638953
1.5164618492126465	17860606.760550138
1.5206083059310913	21075735.764102727
1.5247491598129272	26637873.39981241
1.5288842916488647	23652575.38709069
1.5330137014389038	29142082.595300954
1.5371372699737549	30624112.672889195
1.541254997253418	31237002.833206184
1.545366883277893	35389428.325967506
1.5494728088378906	39594872.42619323
1.5535727739334106	40162801.36731471
1.5576666593551636	41388424.54526898
1.561754584312439	47367636.20569932
1.5658363103866577	51197864.76486954
1.5699119567871094	55087921.72955249
1.5739814043045044	53969850.24068813
1.5780447721481323	56448333.97367381
1.582101821899414	60022567.61175182
1.5861525535583496	64746454.407858334
1.5901970863342285	63262958.93103411
1.5942351818084717	62118917.55357574
1.5982669591903687	62977423.0058512
1.6022924184799194	61186319.687433526
1.606311559677124	57062379.20595306
1.6103241443634033	56705619.59785273
1.6143304109573364	54631511.02420923
1.6183301210403442	49647851.84734354
1.6223233938217163	44466856.29512304
1.6263102293014526	41160184.1125663
1.6302905082702637	37517278.87850124
1.634264349937439	42622080.050757475
1.638231635093689	57417388.13446777
1.6421923637390137	54754473.167285696
1.646146535873413	36613756.90884149
1.6500942707061768	36805916.16094289
1.6540353298187256	49446256.33916975
1.6579699516296387	47832754.638278596
1.661897897720337	45840869.67641801
1.6658192873001099	26154597.56297113
1.6697341203689575	16914263.53890677
1.6736423969268799	32817696.872980077
1.677544116973877	31547777.155009065
1.6814392805099487	31333820.72790667
1.6853278875350952	29248161.109394543
1.6892099380493164	23833643.13974889
1.6930854320526123	18582691.19311391
1.696954369544983	13429396.3714839
1.7008168697357178	16003273.248882053
1.7046726942062378	16071435.879883079
1.708522081375122	20863761.160115834
1.712364912033081	22578584.53065272
1.7162011861801147	25136878.032179944
1.7200311422348022	26164647.58829241
1.723854422569275	23291968.066176645
1.7276713848114014	20931274.689941455
1.731481909751892	18690795.88549249
1.7352858781814575	17040157.214705814
1.7390835285186768	15347763.69896155
1.7428747415542603	13464059.787666982
1.7466596364974976	12477691.383881485
1.7504380941390991	11772513.129742153
1.7542102336883545	7582914.942018075
1.7579760551452637	6888787.250955708
1.7617355585098267	7485154.263887662
1.7654887437820435	6563633.2666831855
1.7692357301712036	4717493.191117491
1.7729763984680176	4144201.939867551
1.776710867881775	2605305.21538659
1.7804391384124756	2337338.313163488
1.7841613292694092	2441585.9315199847
1.7878772020339966	1600290.6319202136
1.7915871143341064	1289449.1215430384
1.7952908277511597	1347299.4254361438
1.7989884614944458	1595240.9493528246
1.8026801347732544	743236.9664163012
1.806365728378296	472841.98986578285
1.8100452423095703	394497.5197539212
1.8137187957763672	315617.0173302625
1.817386507987976	325485.63634269167
1.8210482597351074	326062.1207141397
1.8247040510177612	320770.0663831436
1.828354001045227	264370.40275954315
1.8319982290267944	312930.31893248286
1.8356364965438843	291290.34505895636
1.8392690420150757	433052.2323929983
1.8428958654403687	1122960.6848167689
1.8465168476104736	1492717.874630627
1.8501322269439697	876471.5785297597
1.8537418842315674	489423.2120553188
1.8573459386825562	695576.0846461784
1.860944390296936	655554.799146602
1.864537239074707	505511.36427596956
1.8681244850158691	697459.1515341862
1.871706247329712	481519.8762308166
1.8752825260162354	799847.8025920172
1.8788533210754395	1934298.514156962
1.8824186325073242	2158236.453340742
1.8859784603118896	1583478.5990706787
1.8895330429077148	1550351.979610589
1.8930821418762207	2770935.228659592
1.8966259956359863	3356395.089793219
1.9001644849777222	1021533.5574838375
1.9036977291107178	659607.6219914136
1.9072256088256836	1619356.3124633785
1.9107483625411987	1235174.4567697695
1.9142658710479736	476899.61593344127
1.9177782535552979	375770.3976306824
1.9212853908538818	259668.62636654096
1.9247875213623047	311905.152831574
1.9282845258712769	393744.4532510457
1.9317764043807983	494849.93647302163
1.9352631568908691	698530.8521433009
1.9387450218200684	896055.6930100685
1.942221760749817	1192497.7820896206
1.9456936120986938	994937.5044456206
1.9491604566574097	1155741.5307767622
1.952622413635254	1085519.0121320756
1.956079363822937	693572.95951011
1.959531545639038	879164.321376272
1.962978720664978	1259323.4801977768
1.966421127319336	2296267.52180581
1.9698586463928223	3410041.177582604
1.9732913970947266	3005987.15985977
1.9767193794250488	2799768.739571964
1.9801424741744995	3292045.7195777893
1.9835609197616577	5023218.851084465
1.9869745969772339	6107624.142707198
1.990383505821228	4711728.548510067
1.9937876462936401	5155296.142532677
1.9971871376037598	5623339.5737740835
2.000581979751587	5946570.735332213
2.003972291946411	7184394.115151609
2.007357597351074	8030263.1588602085
2.0107386112213135	9576286.643727459
2.0141148567199707	10167821.30129047
2.017486572265625	9594619.939354803
2.0208535194396973	11816832.640434325
2.0242159366607666	14057051.193589166
2.027573823928833	13515576.036509171
2.0309269428253174	13475833.285220915
2.034275770187378	15043714.496255323
2.0376198291778564	15982245.279501792
2.040959596633911	16497834.567353025
2.044294595718384	18583126.99091603
2.0476250648498535	22500069.8466793
2.0509510040283203	21523562.32389963
2.054272413253784	20697962.81678735
2.057589530944824	23769475.886946972
2.0609018802642822	25220428.31146206
2.0642096996307373	24850989.660793576
2.0675129890441895	26533838.357073408
2.0708119869232178	27672864.246571466
2.074106216430664	26681751.19931614
2.0773961544036865	25868446.68614195
2.080681324005127	26428677.688817967
2.0839622020721436	26712191.86983904
2.087238311767578	27148429.06512583
2.090510129928589	27732935.29710387
2.0937774181365967	27726291.795503147
2.0970399379730225	27808084.69742665
2.1002981662750244	27284771.19526001
2.1035518646240234	26272056.48640266
2.1068007946014404	25333393.718614046
2.1100454330444336	25414230.40201118
2.1132853031158447	25960074.449959114
2.116520881652832	25679374.128191143
2.1197516918182373	25354053.19257735
2.1229779720306396	25370683.8030685
2.12619948387146	25180509.06889357
2.1294167041778564	24740776.10647079
2.132629156112671	24563700.81445329
2.1358368396759033	23670397.785687495
2.139039993286133	22482625.79900672
2.1422386169433594	21108829.53327053
2.145432472229004	19906533.546175186
2.1486217975616455	19455523.178644355
2.151806354522705	18514310.9729235
2.1549863815307617	18515274.417196296
2.1581614017486572	18373053.03319978
2.16133189201355	17343890.72098701
2.1644976139068604	16972071.575243562
2.167658567428589	16415516.648504613
2.1708147525787354	15598170.92006187
2.173966407775879	14651713.56766433
2.1771130561828613	13799819.476313634
2.1802549362182617	12981295.993823968
2.183391809463501	12112954.49539244
2.1865241527557373	11143738.081947861
2.1896514892578125	10034455.827546744
2.1927738189697266	8157400.0087414645
2.1958916187286377	5937320.045646993
2.1990041732788086	4139084.641946622
2.2021119594573975	3017661.880742073
2.2052149772644043	2696979.5764118303
2.208312749862671	3214353.492043596
2.2114057540893555	4027511.2900750567
2.214493751525879	4463762.569617586
2.217576742172241	4335864.085421312
2.2206547260284424	4027909.7059258125
2.2237277030944824	3843476.35896551
2.2267956733703613	3435750.564816784
2.2298583984375	3058641.188250978
2.2329163551330566	2833546.349011905
2.235969066619873	2617005.0842207973
2.2390167713165283	2437315.1302822423
2.2420592308044434	2163827.770269223
2.2450966835021973	1853318.980190137
2.248128890991211	1881573.405261121
2.2511560916900635	2084594.4037505041
2.254178285598755	2069836.275098969
2.257194995880127	2003188.2475402171
2.260206699371338	1909508.5763653994
2.2632133960723877	1716888.3664228157
2.266214609146118	1660178.735265854
2.2692108154296875	1840653.5500046215
2.2722020149230957	2107751.1751448885
2.2751877307891846	2237891.452082036
2.278168201446533	2127923.310610267
2.2811436653137207	1926916.9077506848
2.284113883972168	1760806.655017864
2.287078857421875	1632951.822226921
2.290038824081421	1523724.0754918735
2.2929933071136475	1493594.4579947577
2.295942783355713	1547655.5283997017
2.298887014389038	1653904.2150537693
2.301826238632202	1918096.2085172015
2.304760217666626	2482424.4005172034
2.3076889514923096	3327709.0351967677
2.310612440109253	4041869.85194927
2.3135311603546143	3778345.1924327854
2.3164443969726562	2413721.8499275153
2.319352865219116	1336070.719497159
2.322256088256836	1208602.3849657797
2.3251543045043945	1278061.58634669
2.328047275543213	1256225.9099880832
2.330935478210449	1231097.8925132123
2.3338186740875244	1199450.3558623847
2.3366971015930176	1156275.5507965535
2.3395702838897705	1091214.4408444192
2.3424389362335205	1009504.1789698984
2.3453025817871094	968160.3012982357
2.348161458969116	1031461.9097932872
2.351015567779541	1214744.435640635
2.353865146636963	1468336.0291974011
2.3567099571228027	1739857.093252538
2.3595502376556396	2039574.4415239003
2.3623859882354736	2290423.9998669145
2.3652172088623047	2128730.453493224
2.368043899536133	1454753.169171235
2.370866537094116	918106.7512943328
2.3736846446990967	835739.1053383561
2.3764986991882324	996681.1755228497
2.3793084621429443	1166476.6570997664
2.3821144104003906	1281289.4998731702
2.384916305541992	1397110.9664231236
2.387714147567749	1544900.0632526958
2.3905084133148193	1654956.2927174561
2.393299102783203	1688640.0576996068
2.3960859775543213	1722720.187002449
2.398869514465332	1820057.076929692
2.4016497135162354	1837070.0132415392
2.4044265747070312	1814160.1023927953
2.407200336456299	1911800.4359548907
2.409970998764038	2170114.953916124
2.4127390384674072	2413636.76620156
2.415503978729248	2416371.5605120654
2.418266534805298	2318372.819418002
2.4210267066955566	2349528.6179644405
2.4237842559814453	2408296.7380827074
2.426539897918701	2575505.308709276
2.429293394088745	2887523.4514357923
2.4320452213287354	3159280.970419435
2.4347951412200928	3108374.770082261
2.4375438690185547	2997201.900592141
2.440291166305542	3278955.1694374615
2.443037271499634	3174048.2990136435
2.445782423019409	2772528.897837052
2.4485268592834473	2441515.017171972
2.451270818710327	2409966.2547915913
2.454014539718628	2613178.9904055623
2.4567582607269287	2849386.0741648646
2.4595019817352295	2798463.188367586
2.4622461795806885	2758376.843745255
2.4649908542633057	2599472.737837917
2.4677364826202393	2311298.3174732937
2.4704833030700684	1970370.188769773
2.473231554031372	1675701.348437851
2.4759814739227295	1454279.6610999138
2.4787333011627197	1424678.9819977717
2.481487512588501	1521809.5142080823
