#wavelength	surface flux
0.676892	23770.959375394385
0.678297	24975.96771743644
0.679702	26201.68293939157
0.681109	27447.790244760046
0.682517	28717.920321457284
0.683926	29995.280357776282
0.685337	31278.014262798944
0.686749	32564.677424137146
0.688164	33848.4288110988
0.689581	35088.94364266696
0.691	36079.03346108582
0.692422	36741.139618404486
0.693847	38023.283127968985
0.695274	39537.288653431075
0.696705	41077.176066723274
0.698139	42335.84348391077
0.699576	43350.30403263795
0.701017	44135.50812609147
0.702461	44992.84397465082
0.70391	46107.893485850545
0.705362	46954.485284088645
0.706819	47654.18299300136
0.70828	48333.18396009721
0.709745	48772.1392463376
0.711216	49265.13665286876
0.71269	49397.950927501
0.71417	49335.97552947158
0.715655	48676.53854591679
0.717145	47222.40593531105
0.71864	46612.308459909815
0.72014	46464.235408378125
0.721647	46410.41418353769
0.723158	45423.93381774776
0.724676	43980.58217299305
0.726199	42573.496406705344
0.727728	41559.363821372324
0.729264	39725.26097214725
0.730805	38150.87283315857
0.732353	36933.45885810534
0.733907	35317.11063638351
0.735468	33553.53439358184
0.737035	31451.550692512017
0.738609	29323.22813499756
0.74019	27550.346138039054
0.741777	25416.854753193733
0.743372	23287.49578429505
0.744973	21246.006098538597
0.746582	19190.49994606443
0.748197	17181.99870710638
0.74982	15194.18175773232
0.751451	13265.479398783707
0.753088	11446.376147215187
0.754734	9699.378374067319
0.756386	8052.494713174469
0.758047	6502.288552789983
0.759715	5071.761816314785
0.76139	3712.053914858853
0.763074	2399.5534791633036
0.764765	1178.2126954692526
0.766464	381.4113220224358
0.768172	529.4731077811258
0.769887	511.0673016066395
0.77161	1686.4450275114993
0.773341	3607.64383161787
0.775081	5679.406937829246
0.776829	7969.694762089481
0.778585	9848.279030554215
0.780349	11401.225998776936
0.782121	16313.80206234467
0.783902	21085.246901798753
0.785691	25725.429926419874
0.787489	30862.380316811996
0.789295	36441.11056947052
0.79111	41795.2053764212
0.792933	38261.225347791304
0.794764	25344.95801892513
0.796604	53972.08904257663
0.798453	73545.23774993236
0.80031	85416.9521266699
0.802176	97126.73456530726
0.804051	109667.46623167115
0.805934	122953.1315881907
0.807826	136420.49833156576
0.809727	148354.75463438936
0.811636	160487.56175058047
0.813554	174574.73592060152
0.81548	196506.58627826488
0.817416	218953.95137217423
0.81936	241106.17009691198
0.821313	267703.15929887677
0.823274	286336.6162905828
0.825244	318666.218572287
0.827223	348754.1025301422
0.829211	375585.29231680307
0.831208	406759.5622157544
0.833213	442863.2695418674
0.835227	471341.39209064335
0.837249	510031.0851981761
0.83928	552352.3483816194
0.841321	592353.1726385559
0.843369	647640.9720113578
0.845427	696676.287071834
0.847493	758147.2917057715
0.849567	760223.1706497718
0.851651	636463.1377887424
0.853742	775717.993666731
0.855843	995729.4071856447
0.857952	1088525.7879718994
0.86007	1168357.2829798185
0.862196	1242844.0990358284
0.864331	1329304.2810680033
0.866474	1419424.3694524048
0.868626	1515932.5218169247
0.870786	1622074.2643255482
0.872955	1727452.4657268105
0.875132	1833131.4072684953
0.877317	1945522.322636161
0.879511	2050362.2158992162
0.881713	2129494.732849033
0.883923	2217300.3902807524
0.886142	2329074.8559748493
0.888369	2389668.247948762
0.890604	2399857.519092543
0.892847	1925784.6728333621
0.895099	1810133.2715015444
0.897358	2532771.8510615802
0.899626	3047245.2062630616
0.901901	3333644.0736678704
0.904185	3700208.149253778
0.906476	3823348.0992406593
0.908776	3978982.5867207255
0.911083	4122383.9574505743
0.913398	4324846.797040979
0.915721	4433468.230482012
0.918051	4314510.301475542
0.92039	4747463.083806122
0.922736	5079064.775170869
0.925089	4548146.49645841
0.927451	2634104.943336459
0.929819	1609053.6645422021
0.932195	2255575.891799548
0.934579	2406685.7026532246
0.93697	3264494.9304595324
0.939369	4262271.970268581
0.941774	4040395.0374284782
0.944187	2305250.5012902324
0.946607	2535954.439620077
0.949035	2554275.0672173426
0.951469	3298773.864179432
0.953911	3845351.6766388095
0.956359	4727191.720900346
0.958814	3982089.15465241
0.961277	3353709.9332546564
0.963746	3403224.2016859446
0.966222	3811733.5830865116
0.968705	4346624.292640671
0.971194	6422068.479649064
0.97369	7609782.797028424
0.976193	7462497.257342667
0.978702	7868706.145738707
0.981217	7597312.731897171
0.983739	8618239.841059955
0.986268	9482726.12264101
0.988802	10158424.463816183
0.991343	11100743.838677853
0.99389	11637836.871503482
0.996444	12399329.906265326
0.999003	12735717.325360077
1.00157	13192453.859243924
1.00414	13755039.317327356
1.00672	14691681.791090801
1.0093	15432007.367997112
1.01189	16259950.112881128
1.01448	17200455.7746885
1.01708	17831772.149207346
1.01969	18255989.84016079
1.0223	18569895.31445278
1.02492	18878497.6271999
1.02754	19119925.232287094
1.03017	19783308.360902008
1.0328	20671563.71815571
1.03544	21352776.8944388
1.03808	21910597.312424693
1.04073	22282119.93694676
1.04339	22616440.498211686
1.04604	22938903.765475832
1.04871	23169356.840519007
1.05138	23479164.89408624
1.05405	23929987.69488623
1.05673	24490242.93351077
1.05941	24884932.972955987
1.0621	25407632.811294865
1.06479	25427075.400675148
1.06749	25405786.826946843
1.07019	25054468.121301115
1.07289	25358647.9451499
1.0756	25667768.640321497
1.07832	25661970.550053306
1.08104	25823477.77847445
1.08376	25838234.276348535
1.08649	25147183.56975891
1.08922	23282857.67209625
1.09195	20057210.54075457
1.09469	16604250.871063435
1.09743	15330009.10599766
1.10018	10841274.682416074
1.10293	6689020.178932391
1.10568	4593388.613385477
1.10844	6591921.120294441
1.1112	3753444.4849676993
1.11396	2684345.0269447346
1.11673	2844672.3693631166
1.1195	2895915.8271394647
1.12228	1458468.9126887778
1.12505	1492823.589643646
1.12783	3943508.0065348297
1.13062	3490000.8195836125
1.13341	1323714.5712877647
1.1362	3552659.4861774417
1.13899	6819265.891925681
1.14178	5436433.588766968
1.14458	3900251.3900438957
1.14738	5250053.422607861
1.15019	5076604.593934429
1.153	1995664.2423112653
1.1558	2218449.543898681
1.15862	2647049.0526876342
1.16143	2597881.448396165
1.16425	3685062.647001044
1.16707	4228302.203478166
1.16989	4206517.219183558
1.17271	5079879.288812077
1.17554	7380433.254493587
1.17837	9101683.445547774
1.1812	11173234.384359993
1.18403	15549711.799943
1.18686	16506288.189124074
1.1897	15790476.930638164
1.19253	20173335.565026324
1.19537	23584669.439732123
1.19822	23216604.395230588
1.20106	25182803.70976323
1.2039	27176016.354069542
1.20675	28629290.639855497
1.2096	28161458.82478184
1.21245	28490260.8591423
1.2153	30902122.35203337
1.21815	32407295.765649337
1.221	33758685.33096109
1.22385	35014539.63677847
1.22671	36305029.81456687
1.22957	36829831.970530465
1.23242	37645055.51688206
1.23528	38823857.80830446
1.23814	40099303.894522324
1.241	40364576.69265085
1.24387	40872945.84615591
1.24673	42303915.82187536
1.24959	42118707.960926875
1.25245	41617802.39920266
1.25532	44134506.88102829
1.25818	46473457.02933791
1.26105	46744156.5339943
1.26392	46708301.48147868
1.26678	47393072.36914893
1.26965	48067286.84861188
1.27252	47769204.72441938
1.27538	48799873.10684502
1.27825	47983576.81588028
1.28112	45357137.67419538
1.28399	44062822.805392735
1.28686	43347083.39369149
1.28973	39263580.777619794
1.2926	37216848.53389247
1.29546	37795369.056713246
1.29833	38124625.947948046
1.3012	34102568.200163245
1.30407	37520739.02112329
1.30694	36219637.487248816
1.30981	37750020.93488211
1.31267	33239432.75882177
1.31554	33793258.42810976
1.31841	35251572.43894674
1.32128	32197032.98228595
1.32414	24085989.009309616
1.32701	19134292.89045142
1.32987	12115366.18291973
1.33274	4079430.8703942643
1.3356	2030775.2891706424
1.33847	536065.3145053047
1.34133	164926.33293175395
1.34419	275455.58024733164
1.34705	279774.60048509756
1.34991	75275.98187886532
1.35277	20126.8729375539
1.35563	79538.32437310401
1.35849	106246.18939712906
1.36135	57229.62317881901
1.3642	81634.70146694756
1.36706	71197.18714875958
1.36991	80311.71446235517
1.37277	172093.32085372554
1.37562	188170.65145432274
1.37847	103052.10242845771
1.38132	23120.254705971474
1.38417	7652.710655976816
1.38701	29191.13643412145
1.38986	51059.04399384865
1.39271	86642.96954195919
1.39555	129066.76921916507
1.39839	115134.0556304137
1.40123	247188.13438121713
1.40407	356828.22811475117
1.40691	441512.3561080888
1.40974	221529.45630768756
1.41258	62006.225281021456
1.41541	88107.65211499164
1.41824	109142.08531502773
1.42107	130706.61748406396
1.4239	114618.31093507452
1.42673	222548.21541788382
1.42955	354101.3064589079
1.43237	220376.36515536084
1.43519	295534.6413448364
1.43801	260487.75684491487
1.44083	473667.5808152068
1.44365	814176.0149809965
1.44646	667736.9275122149
1.44927	1077412.4493368247
1.45208	1243535.4471869871
1.45489	1303363.0402887969
1.45769	1767397.2486325735
1.4605	2435174.117717565
1.4633	1901908.2751930465
1.4661	2049597.2920623068
1.4689	1858735.419040702
1.47169	2055985.948467403
1.47449	2081619.6139181706
1.47728	2096356.403353669
1.48007	1719960.3940126463
1.48286	2005012.440010731
1.48564	2199714.899269786
1.48842	1672407.2256688348
1.4912	1592148.0079936977
1.49398	1965676.2323546614
1.49676	2030891.6445042468
1.49953	3135417.1794218887
1.5023	4470259.694015169
1.50507	4932721.533912456
1.50784	4309127.764762899
1.51061	4052579.103925007
1.51337	5068371.015941622
1.51613	6391529.441065457
1.51888	6821675.640155243
1.52164	8393183.953814426
1.52439	9199484.478694169
1.52714	9614910.209306262
1.52989	10818089.891429158
1.53263	11568589.629164087
1.53538	12230856.279817866
1.53812	13322718.062841164
1.54086	14624492.272841755
1.54359	14864203.088191789
1.54632	16303002.373992898
1.54905	17270621.930430308
1.55178	17988109.316035412
1.5545	19329190.309897393
1.55723	19985075.728214763
1.55995	21568726.572251532
1.56266	23411286.057497587
1.56538	24364508.602124244
1.56809	24922206.900479503
1.5708	24819217.10415162
1.57351	24208946.314936414
1.57621	24433194.91235425
1.57891	24514760.19388758
1.58161	25010900.00465719
1.5843	25655276.205395572
1.587	25806227.70448135
1.58969	25171907.211535294
1.59238	24184693.04420062
1.59506	23800124.559251953
1.59774	23644923.635981806
1.60042	23086611.5982277
1.6031	21652968.163571984
1.60577	20452802.812256046
1.60844	19815304.292760562
1.61111	19345780.08334208
1.61378	18472613.301959522
1.61644	17085867.672130104
1.6191	15628098.697168298
1.62176	14122771.949805865
1.62441	12688033.45127798
1.62707	11907462.715532212
1.62971	10888053.683303252
1.63236	10670420.84550391
1.635	12705995.145309638
1.63764	15609995.955141814
1.64028	16552901.277413609
1.64292	14398721.81764263
1.64555	9907380.102876969
1.64818	8086254.876227141
1.65081	10316141.957743552
1.65343	13113889.454275362
1.65605	13245233.92019079
1.65867	12926273.216697412
1.66128	12602445.96938975
1.6639	10111211.862860063
1.66651	5253152.901546584
1.66911	3740127.616057627
1.67172	6696332.9543230245
1.67432	8605906.210957555
1.67692	7988540.924769805
1.67951	7156596.834331086
1.68211	7699551.310879271
1.6847	7387459.1733010085
1.68728	6153629.086254035
1.68987	5873741.567201493
1.69245	5031409.367894134
1.69503	3475541.5698919166
1.6976	3279371.6388088623
1.70018	3916832.8770840866
1.70275	3722294.8882305687
1.70531	4054399.464539309
1.70788	4953915.752241833
1.71044	5307004.516671783
1.713	6238108.993322741
1.71556	6901736.067264436
1.71811	7175757.199348718
1.72066	7516459.879519158
1.72321	6989687.710655867
1.72575	6351468.984617046
1.7283	6127468.0124336565
1.73084	5790933.651960718
1.73337	5475130.787320116
1.73591	5392533.2405584855
1.73844	5249149.423086476
1.74097	5085466.34159443
1.74349	4849318.163558027
1.74602	4605233.228827262
1.74854	4497243.967022404
1.75105	4132882.5267601544
1.75357	3261635.884118568
1.75608	2763363.1197017166
1.75859	2840967.124864925
1.7611	2876250.862945552
1.7636	2725951.6124277655
1.7661	2245859.9320093617
1.7686	1801577.3535737707
1.7711	1688888.1957110497
1.77359	1467704.0079389769
1.77608	1081082.3758990928
1.77857	884070.9790201391
1.78105	923430.9025039459
1.78354	937836.3372522751
1.78602	740495.0011198106
1.78849	549799.4747221458
1.79097	459772.2613291075
1.79344	411324.35294924636
1.79591	491552.32686365105
1.79837	611687.2402745563
1.80084	391608.2081999108
1.8033	183286.16057631522
1.80576	134327.21761714263
1.80821	122777.92302258809
1.81067	98591.08653148603
1.81312	77086.63445988359
1.81557	71611.68529582463
1.81801	73423.4497367311
1.82046	71371.22881726742
1.8229	74624.28374407112
1.82533	64990.279421786276
1.82777	50969.05482937646
1.8302	51817.59940071686
1.83263	59984.73574800071
1.83506	57735.862459400916
1.83749	57250.41416585743
1.83991	117134.88755901644
1.84233	255494.41604950713
1.84475	403250.6843259833
1.84716	402565.8726547218
1.84957	271582.31282053044
1.85198	181313.95159958748
1.85439	137197.66604709672
1.8568	196977.09527770407
1.8592	257570.28584766874
1.8616	185091.41150153102
1.864	122831.6271466272
1.86639	144290.8380041389
1.86878	147158.76183785254
1.87118	99241.18827680835
1.87356	111899.66933956151
1.87595	255305.2488983092
1.87833	555298.1812345787
1.88071	806144.6444846959
1.88309	654860.0970901562
1.88547	444798.9790114874
1.88784	410600.2406926657
1.89021	392031.85704982234
1.89258	726416.0007442173
1.89494	1146697.8682729523
1.89731	862410.7375631462
1.89967	359072.8494107017
1.90203	124698.32374448884
1.90439	161183.49514642253
1.90674	308445.0238671904
1.90909	337081.84859696805
1.91144	214394.90926397842
1.91379	102715.00011887198
1.91613	75439.33116861118
1.91848	68101.22402698472
1.92082	49589.90472959929
1.92315	47716.19065496337
1.92549	67514.88144444978
1.92782	78690.40793108588
1.93015	85489.01642458444
1.93248	101591.98416597664
1.93481	124614.76168973795
1.93713	151492.97456466247
1.93945	176185.6815921405
1.94177	204109.03220889383
1.94409	212971.6168592407
1.94641	211855.42627368978
1.94872	269877.8349345242
1.95103	333985.92533891456
1.95334	249591.97963687655
1.95564	159848.5793391538
1.95795	153790.95899311075
1.96025	219579.2014409304
1.96255	334818.3782594684
1.96484	471472.5230251648
1.96714	613268.7821615819
1.96943	727161.592231075
1.97172	756517.3793125867
1.97401	693878.1144332171
1.97629	612370.221270202
1.97858	546774.9798153769
1.98086	674503.1745881375
1.98314	1001505.4964941004
1.98541	1263337.8655572596
1.98769	1279742.6386575655
1.98996	1123416.9175408606
1.99223	967561.3331024771
1.9945	981960.3411804074
1.99677	1201601.4049548693
1.99903	1507249.0806472963
2.00129	1615556.0015274272
2.00355	1430975.6540079464
2.00581	1236990.7504585062
2.00806	1569098.2150270685
2.01031	2185561.3288359805
2.01256	2296865.0736844325
2.01481	2086177.5513523924
2.01706	1960364.374661008
2.0193	2026991.991708413
2.02154	2133034.371769123
2.02378	2053102.280016348
2.02602	2119160.3920723815
2.02825	2357235.3013863573
2.03049	2479179.989227907
2.03272	2523580.4679132965
2.03494	2605894.305702546
2.03717	2796575.371966034
2.03939	3008804.8963959417
2.04162	3127198.644763103
2.04384	3384612.121884647
2.04605	3733052.895180877
2.04827	4011076.777813592
2.05048	4007736.991936195
2.05269	3837427.2220192146
2.0549	3826997.461236472
2.05711	3993005.3714900096
2.05931	4208958.539689577
2.06151	4335262.417437336
2.06371	4336004.3125079125
2.06591	4353184.957045054
2.06811	4373612.747538528
2.0703	4375991.977174807
2.07249	4352770.347437379
2.07468	4316969.414051326
2.07686	4299914.4808965465
2.07905	4289499.02648255
2.08123	4282316.518549831
2.08341	4283578.85167445
2.08559	4308814.20082698
2.08776	4331294.700416819
2.08994	4331911.785697787
2.09211	4312640.8648293475
2.09428	4282953.831043228
2.09645	4264675.327593741
2.09861	4228144.9422441665
2.10077	4180391.302257325
2.10293	4128525.799977436
2.10509	4077794.0160337086
2.10725	4024766.8483920367
2.1094	3999578.1032252195
2.11155	3986360.2660897886
2.1137	3973490.0270892633
2.11585	3946189.280868295
2.11799	3907688.7054771055
2.12013	3873795.133756434
2.12227	3847740.9498500093
2.12441	3829659.463186116
2.12655	3799475.353671466
2.12868	3767949.2113356763
2.13081	3740897.06974729
2.13294	3713483.1459464594
2.13507	3653284.8225806425
2.13719	3591424.0108204135
2.13931	3529328.213461214
2.14143	3455975.365555549
2.14355	3336545.7513529146
2.14567	3301532.9367857827
2.14778	3266088.20380804
2.14989	3204032.364284317
2.152	3083410.1396260383
2.1541	3065163.3469204903
2.15621	3066365.3331752066
2.15831	3055527.5464203856
2.16041	2974902.807604034
2.16251	2929291.19001021
2.1646	2875842.646308682
2.1667	2812238.2287894916
2.16879	2780903.3272680864
2.17087	2759111.975848881
2.17296	2732647.8021277566
2.17504	2692564.221679901
2.17713	2584067.0741661037
2.1792	2464405.9364459165
2.18128	2353498.1747089582
2.18336	2277572.9370883703
2.18543	2186212.4945710385
2.1875	2037441.3583470704
2.18957	1823221.5207445496
2.19163	1516639.8243862386
2.1937	1255214.0621390294
2.19576	1049479.488786596
2.19782	911453.198377362
2.19987	777112.4641253069
2.20193	674333.1711441873
2.20398	610205.395952661
2.20603	615531.7641563148
2.20808	688790.3645313105
2.21012	790035.908347254
2.21217	905456.3911822367
2.21421	968283.9274644909
2.21625	982159.3536455372
2.21828	949281.071200868
2.22032	884995.136063524
2.22235	831494.4278360384
2.22438	783244.7372024633
2.22641	733619.5990620747
2.22843	697479.1745587514
2.23046	671050.8636038416
2.23248	656758.4596736153
2.2345	637322.8075009278
2.23651	613109.9651339441
2.23853	583294.8345695237
2.24054	523918.7730290707
2.24255	440693.8859820274
2.24456	339895.1141364356
2.24657	299248.88277973287
2.24857	322833.9505371862
2.25057	384780.63025483553
2.25257	408438.4618801248
2.25457	404489.9030921045
2.25656	389716.84934778983
2.25856	396477.14267517463
2.26055	394697.06430296623
2.26254	389000.5994237658
2.26453	383403.2404186263
2.26651	400803.3007929661
2.2685	432741.8577315094
2.27048	482356.36880161683
2.27246	521254.03720402106
2.27443	545501.068548831
2.27641	529444.7340287828
2.27838	495709.64913845505
2.28036	454992.24642070243
2.28233	420905.93759031314
2.28429	397613.1194208856
2.28626	379721.00900051085
2.28823	361673.699440663
2.29019	351232.46608662826
2.29215	346627.6824205692
2.29411	354142.3910753642
2.29607	354326.67682841915
2.29802	348452.3887223423
2.29998	344210.40740392054
2.30193	370220.5955835387
2.30388	430779.9571759526
2.30583	562245.6632783219
2.30778	699263.6862975638
2.30972	834243.7319410456
2.31167	855590.5480126906
2.31361	797597.1031417702
2.31555	583965.8627128684
2.31749	410528.1633490734
2.31943	276098.7025041807
2.32137	290498.08326278586
2.32331	306417.5387275737
2.32524	323459.125673025
2.32718	300989.60784910194
2.32911	289265.1348680375
2.33104	293771.94820203027
2.33297	297594.8177515622
2.3349	296518.8973835467
2.33683	280679.7745266056
2.33876	263775.83262084733
2.34068	246440.01199071307
2.34261	229481.91671525472
2.34453	219269.700947795
2.34646	216589.34622531466
2.34838	239786.9596589794
2.3503	273465.62407795823
2.35223	325685.3480106736
2.35415	381013.55149223655
2.35607	438695.9057304474
2.35799	506937.02966766054
2.35991	571848.9592070723
2.36183	632742.8955077465
2.36375	607285.7129654273
2.36566	543372.9388554149
2.36758	400653.65237542754
2.3695	283836.62776669936
2.37142	183623.6171780291
2.37334	196301.4201020982
2.37526	226594.24553321308
2.37718	285260.3561766602
2.3791	328156.58005918004
2.38101	362670.3551037259
2.38293	375852.65314297035
2.38485	396310.2722469374
2.38677	424196.37706961576
2.3887	453328.78622030834
2.39062	477066.55577230896
2.39254	484124.0980590702
2.39446	487255.68444229517
2.39639	487873.8352798972
2.39831	510083.6696243257
2.40024	525898.8265032519
2.40216	528588.0551492394
2.40409	527839.860667315
2.40602	530708.4083470042
2.40795	593237.1622941681
2.40989	665082.5858471495
2.41182	747560.6326676272
2.41376	767923.96255697
2.4157	768473.8305612687
2.41764	744606.6801718874
2.41958	741983.5146883032
2.42152	756633.4958103705
2.42347	779415.4937495666
2.42542	816853.984015928
