#wavelength	surface flux
0.676892	384305.689657091
0.678297	405375.2580940615
0.679702	425652.53478165425
0.681109	445441.65233720484
0.682517	465053.9817397679
0.683926	484436.8166377578
0.685337	503393.2120184987
0.686749	522102.20758415794
0.688164	540496.8180437974
0.689581	557321.2922985412
0.691	568736.5247372071
0.692422	576456.3243680535
0.693847	594834.8050018449
0.695274	616579.0753623799
0.696705	636782.6406132781
0.698139	652507.3366051752
0.699576	664756.8604461394
0.701017	673563.4579323076
0.702461	682100.4350626991
0.70391	693825.7083140161
0.705362	702365.7091721345
0.706819	708333.2302950235
0.70828	713213.1384552963
0.709745	714927.7097962209
0.711216	717117.08866642
0.71269	713834.8882707781
0.71417	707782.5685432222
0.715655	693645.9660775886
0.717145	670012.5907585622
0.71864	658307.3688851846
0.72014	649758.5141838426
0.721647	641670.5834713762
0.723158	624403.525757109
0.724676	601537.3651350414
0.726199	577446.1902670345
0.727728	557794.098042039
0.729264	527811.4149425447
0.730805	500754.101228755
0.732353	476448.16010436387
0.733907	448271.57624164526
0.735468	418453.46297998383
0.737035	384481.1519252754
0.738609	350474.4822620194
0.74019	320584.7027154249
0.741777	286873.54648796696
0.743372	253165.55935996614
0.744973	220979.1642212112
0.746582	189427.56061315685
0.748197	159446.7135616897
0.74982	130993.24725270382
0.751451	104640.2391264427
0.753088	81412.12149546543
0.754734	60948.781868645216
0.756386	43622.056437218496
0.758047	29730.360259002857
0.759715	19148.268471384377
0.76139	11325.044169238252
0.763074	5961.665119095044
0.764765	2422.9983722519
0.766464	625.4411725198393
0.768172	871.7895219365064
0.769887	840.8864509866817
0.77161	3661.211110653682
0.773341	9580.340031476115
0.775081	18743.155744292428
0.776829	31680.80101408223
0.778585	42696.13441605685
0.780349	52531.05859300905
0.782121	97539.83028614058
0.783902	144988.78355727418
0.785691	193362.11045085258
0.787489	248814.02568817814
0.789295	310424.6374710564
0.79111	367852.55563855096
0.792933	304640.6335389753
0.794764	158197.5369575756
0.796604	495311.9742007675
0.798453	725451.8226697792
0.80031	861388.9377932382
0.802176	990984.1836345299
0.804051	1127922.9466265396
0.805934	1269121.7185575205
0.807826	1409373.8665505904
0.809727	1530515.81993823
0.811636	1656355.2728898735
0.813554	1803272.0869796951
0.81548	2022740.0778610685
0.817416	2212773.7150452775
0.81936	2382520.1108166077
0.821313	2685462.1070572194
0.823274	2871533.865966429
0.825244	3174722.0704545006
0.827223	3445361.136357766
0.829211	3685188.138279785
0.831208	3966522.670287719
0.833213	4281352.13030208
0.835227	4508492.2408898035
0.837249	4820844.187269002
0.83928	5163757.151329712
0.841321	5459576.715322696
0.843369	5908995.593234996
0.845427	6266522.237984941
0.847493	6770279.764762137
0.849567	6550119.320840126
0.851651	4930391.241980056
0.853742	6259226.14687902
0.855843	8489793.71168799
0.857952	9246248.46148255
0.86007	9618322.694637358
0.862196	8937139.324736344
0.864331	9332582.652014159
0.866474	10293604.627476456
0.868626	10956383.3483164
0.870786	11435633.856022941
0.872955	11945589.923148658
0.875132	12470172.88994031
0.877317	13286535.40115276
0.879511	13618930.84883971
0.881713	14046633.973800985
0.883923	14621424.793001126
0.886142	15461891.869118262
0.888369	15392482.675277714
0.890604	14788241.72489679
0.892847	11617153.508828158
0.895099	11258358.805278748
0.897358	16107143.201696474
0.899626	18696554.5724782
0.901901	20608644.076924678
0.904185	22433818.501226068
0.906476	22779778.78883647
0.908776	23977981.16163011
0.911083	24199487.949081752
0.913398	25229608.11874419
0.915721	25196779.60501554
0.918051	23901112.32636515
0.92039	25989154.336977612
0.922736	27403741.189346842
0.925089	24051150.5014152
0.927451	13229547.634341944
0.929819	8746710.621445268
0.932195	13333027.171422886
0.934579	12862474.172738247
0.93697	16500911.373187203
0.939369	20671278.37778383
0.941774	19598813.292582847
0.944187	11833588.754977677
0.946607	12821363.47930838
0.949035	12664460.633396678
0.951469	15579796.18788812
0.953911	18401099.10373404
0.956359	22547885.663330883
0.958814	18188191.179673657
0.961277	14859841.535904448
0.963746	14596878.943125999
0.966222	15990277.098621693
0.968705	16850931.23283147
0.971194	25133033.96788188
0.97369	31031519.87124379
0.976193	29510870.498766467
0.978702	30510140.27401553
0.981217	28722859.6026614
0.983739	32670442.69331075
0.986268	35458620.25931238
0.988802	37029551.061875015
0.991343	39466880.44353312
0.99389	40684686.459494345
0.996444	41727395.61384957
0.999003	39009041.52824871
1.00157	39431379.078862816
1.00414	41483208.61657844
1.00672	44547702.97825143
1.0093	47090722.1360391
1.01189	50494914.77973461
1.01448	53955663.24701174
1.01708	55809196.75774303
1.01969	57731132.175305784
1.0223	58018316.559657365
1.02492	57767992.98285495
1.02754	58883202.5405525
1.03017	61153792.58646508
1.0328	65090558.5262645
1.03544	66997639.21478063
1.03808	68689614.44880715
1.04073	69413225.39496186
1.04339	70528920.67747878
1.04604	71790061.95069692
1.04871	72434041.98422642
1.05138	72334538.64875986
1.05405	74017659.26631819
1.05673	76330711.83166453
1.05941	76824340.16658899
1.0621	78377323.33972281
1.06479	78480541.10852925
1.06749	78998544.17202345
1.07019	78209575.80723153
1.07289	79638023.30733936
1.0756	80882540.68966462
1.07832	81403545.89694507
1.08104	82429137.18236521
1.08376	82294506.6937838
1.08649	80036228.76236767
1.08922	73819943.72250168
1.09195	62844859.162883
1.09469	51795048.56862242
1.09743	50215804.2010495
1.10018	36007777.82400101
1.10293	21317128.599756613
1.10568	15274015.09641063
1.10844	26573896.54216271
1.1112	15693777.00671123
1.11396	13508334.69200786
1.11673	15020957.172546403
1.1195	13954073.08046791
1.12228	6880603.662161169
1.12505	6773101.660634831
1.12783	15705484.686175134
1.13062	13089548.220306803
1.13341	5377550.056325139
1.1362	12503080.206693865
1.13899	22214078.122403733
1.14178	17750616.8913757
1.14458	14041674.181440938
1.14738	20647174.01700918
1.15019	20693161.87462184
1.153	8827051.379511049
1.1558	9189932.84007912
1.15862	10308901.025530607
1.16143	10136797.939629804
1.16425	13154426.100682903
1.16707	14001343.047264608
1.16989	12353032.218294054
1.17271	14352424.481105661
1.17554	18919123.831414092
1.17837	23490444.721606918
1.1812	30619473.043260366
1.18403	44804410.567084886
1.18686	46522495.71325807
1.1897	42029866.7700665
1.19253	54360616.39215653
1.19537	64983168.15478819
1.19822	60630590.18773515
1.20106	66818716.84747292
1.2039	72523467.52145517
1.20675	76390321.63639638
1.2096	73433631.97312663
1.21245	73890163.41684696
1.2153	81500319.00538014
1.21815	85756357.96975401
1.221	90293209.81029448
1.22385	94660134.11187279
1.22671	97284290.58291614
1.22957	97561297.4587346
1.23242	99365666.612568
1.23528	102204632.29601802
1.23814	104359153.7108937
1.241	99560536.87346865
1.24387	94762418.69504352
1.24673	105742270.55385381
1.24959	101107573.20466463
1.25245	88160681.5015381
1.25532	106286963.55976239
1.25818	114481018.50586753
1.26105	112761385.14574459
1.26392	110805210.45692876
1.26678	110862986.08787376
1.26965	111412134.48393597
1.27252	109656976.1009779
1.27538	111598226.047047
1.27825	109168926.56657949
1.28112	102480442.23026715
1.28399	99674826.51548213
1.28686	99486812.01533687
1.28973	89182293.8759443
1.2926	84948252.49865487
1.29546	86819003.75797309
1.29833	88445736.31448899
1.3012	79866716.97989197
1.30407	87588280.65857337
1.30694	84638828.41356356
1.30981	88202725.28835072
1.31267	78211113.40734664
1.31554	78006334.48246863
1.31841	79876766.87332419
1.32128	74472634.53548056
1.32414	56333824.4928351
1.32701	44920540.073117316
1.32987	32353133.02370152
1.33274	11093399.53420094
1.3356	5211034.99018261
1.33847	1602134.338303782
1.34133	637173.7950584847
1.34419	1256968.8823786022
1.34705	1356732.3895716788
1.34991	403486.68951842445
1.35277	134352.95157769253
1.35563	506257.5986350627
1.35849	700028.6725212997
1.36135	407900.97758954036
1.3642	589830.2579391943
1.36706	539226.6675277287
1.36991	552670.4288525572
1.37277	1005729.9439792155
1.37562	1093822.0806261895
1.37847	702114.9082191661
1.38132	196235.11428357044
1.38417	72220.78664961449
1.38701	211733.18407549977
1.38986	327222.8684238135
1.39271	526417.1048506888
1.39555	742588.690115598
1.39839	525325.6972301459
1.40123	1049246.280448544
1.40407	1673993.1864285062
1.40691	2091580.077292392
1.40974	1088392.7745894727
1.41258	357097.04491167737
1.41541	478451.5274902793
1.41824	574418.3750379549
1.42107	655139.5357939391
1.4239	566720.1005074818
1.42673	1083458.5323921412
1.42955	1646808.0132321287
1.43237	982138.7793026934
1.43519	1162047.1618640479
1.43801	1051596.0299664713
1.44083	1666431.8953622328
1.44365	2730943.5202786694
1.44646	2220440.658364086
1.44927	3327123.483688107
1.45208	3682590.475970231
1.45489	3744513.35834929
1.45769	4917025.334546769
1.4605	6637513.139230344
1.4633	5560117.107542755
1.4661	5926044.317883939
1.4689	5546076.7645868985
1.47169	6530682.515322728
1.47449	6628114.365928937
1.47728	6902303.433074334
1.48007	5946707.093731452
1.48286	6938516.805287087
1.48564	8179901.068391913
1.48842	7189803.604088749
1.4912	7434007.091142426
1.49398	8611421.787586581
1.49676	8996975.373902427
1.49953	12260252.855167339
1.5023	15194284.384841245
1.50507	15891380.38185256
1.50784	14333784.878478138
1.51061	14312798.678279782
1.51337	17780880.871408798
1.51613	20819534.312970288
1.51888	21016427.836280793
1.52164	27240363.230437968
1.52439	30510812.079470646
1.52714	27546860.32672693
1.52989	28497342.094038807
1.53263	32796133.204663552
1.53538	35561661.23673589
1.53812	34870956.16264122
1.54086	35824645.96411269
1.54359	37324298.67063181
1.54632	42549592.60900027
1.54905	44783294.10885587
1.55178	44283817.05481046
1.5545	45392017.31102299
1.55723	45998190.413920216
1.55995	49567177.12639743
1.56266	53323565.69532697
1.56538	55073478.39322479
1.56809	57576531.27848028
1.5708	58338900.848656334
1.57351	57009466.815946884
1.57621	58622637.37397066
1.57891	59406354.43047816
1.58161	61811032.708065435
1.5843	65014917.56854756
1.587	66364844.73710172
1.58969	65031813.36807254
1.59238	63024001.500718325
1.59506	62861951.09212871
1.59774	62922826.651735395
1.60042	62603759.605688326
1.6031	60053769.45108932
1.60577	57542771.48703183
1.60844	56586846.722020455
1.61111	56039601.40492225
1.61378	54348923.31520188
1.61644	51551221.355746984
1.6191	48339854.71151588
1.62176	45048203.51577651
1.62441	42291022.30313962
1.62707	40813029.1445949
1.62971	38282607.18082878
1.63236	37843142.249100655
1.635	44041795.163038634
1.63764	52192203.68646963
1.64028	54685136.845079385
1.64292	49252945.68755153
1.64555	37741897.71761064
1.64818	32983150.198811915
1.65081	38621323.34308037
1.65343	45749841.84646687
1.65605	46100842.25233073
1.65867	45025306.743144065
1.66128	43950472.969125025
1.6639	36579116.689953215
1.66651	20779985.55603732
1.66911	15473566.758330896
1.67172	25500230.235558502
1.67432	32698324.711126246
1.67692	31812373.29978199
1.67951	29581879.911473006
1.68211	31024530.043043204
1.6847	29810429.04123882
1.68728	25462238.715363003
1.68987	23862939.89920546
1.69245	20674765.399614364
1.69503	15322386.376629695
1.6976	14691734.272922391
1.70018	17082903.124240465
1.70275	16536623.634497287
1.70531	17906236.676800013
1.70788	20912248.379425786
1.71044	21414431.909164473
1.713	23799414.336895224
1.71556	25340513.80580778
1.71811	25411008.47095665
1.72066	26093036.116481807
1.72321	24381724.754919942
1.72575	22350922.842082523
1.7283	21436433.108531833
1.73084	20011644.58342494
1.73337	18605793.772432208
1.73591	17908434.36280627
1.73844	16766589.506257523
1.74097	15518543.531184815
1.74349	14359345.939551542
1.74602	13652046.878322449
1.74854	13472667.91374949
1.75105	12235617.907007482
1.75357	9269774.456314035
1.75608	7546587.516532058
1.75859	7850112.232236222
1.7611	8317071.520705718
1.7636	8344140.348893503
1.7661	7012804.199524681
1.7686	5467866.549721907
1.7711	5052982.609036131
1.77359	4407199.146410917
1.77608	3248025.342075789
1.77857	2667141.4946914106
1.78105	2786227.7340265037
1.78354	2845906.8856573817
1.78602	2295784.219949305
1.78849	1762364.6055589763
1.79097	1555045.767349542
1.79344	1452479.8153385427
1.79591	1641263.9088778212
1.79837	1941704.8356406097
1.80084	1314758.8688383168
1.8033	740251.1364771546
1.80576	582862.9821987349
1.80821	536884.3855193174
1.81067	459576.492973468
1.81312	391045.68983807607
1.81557	380974.1353002693
1.81801	398117.94398205477
1.82046	393095.65711547434
1.8229	411381.5653641203
1.82533	377310.6753378982
1.82777	329116.9176499547
1.8302	348995.72902244003
1.83263	398122.0535318175
1.83506	386045.70433861524
1.83749	384796.30832856987
1.83991	668495.2636948094
1.84233	1201806.7527099384
1.84475	1664457.3941184536
1.84716	1600648.6559482783
1.84957	1121097.9091612892
1.85198	789656.6216816881
1.85439	604364.4184088944
1.8568	745726.870389306
1.8592	911204.9969849839
1.8616	703497.7553311083
1.864	571185.0942962641
1.86639	740229.3585527819
1.86878	798218.2162631783
1.87118	600931.7943624742
1.87356	651665.6430567373
1.87595	1157207.253504375
1.87833	2043383.470178897
1.88071	2761421.0103128753
1.88309	2363154.1793144145
1.88547	1859600.7510122072
1.88784	1882333.2388065467
1.89021	1808996.2101088772
1.89258	2834646.7371713854
1.89494	4213365.162654437
1.89731	3321179.5958499275
1.89967	1582083.4309494717
1.90203	728183.218481858
1.90439	960261.4374506322
1.90674	1699498.5472791637
1.90909	1837767.0044415302
1.91144	1206557.4320656122
1.91379	627834.8285508842
1.91613	477911.4032648913
1.91848	430157.79733582016
1.92082	326483.26915632235
1.92315	309714.1360629866
1.92549	407944.43500138674
1.92782	466437.2034213579
1.93015	512178.637510938
1.93248	628138.4201312955
1.93481	790169.3872156503
1.93713	938999.1691108498
1.93945	1088657.2789224111
1.94177	1292377.1130163998
1.94409	1321898.062170756
1.94641	1148883.0420934127
1.94872	1264880.3868361213
1.95103	1503144.9840668803
1.95334	1128523.0711350564
1.95564	828057.9498935263
1.95795	891583.5930860769
1.96025	1070520.9054314366
1.96255	1369536.488793605
1.96484	1957159.2893104388
1.96714	2862059.2390313656
1.96943	3661318.7213657214
1.97172	3700186.0738786315
1.97401	3091902.302988483
1.97629	2993426.936543425
1.97858	3172322.8524940256
1.98086	3669060.9565486703
1.98314	4924071.240637537
1.98541	6001704.115840893
1.98769	5922451.71558064
1.98996	4956372.252073054
1.99223	4740732.153294868
1.9945	5523228.794524305
1.99677	5790701.332928796
1.99903	5919240.26135685
2.00129	6355131.496205105
2.00355	6912823.657263902
2.00581	7365100.603928324
2.00806	8023424.844826766
2.01031	9287107.190650402
2.01256	10106459.368761986
2.01481	9832293.394641917
2.01706	9465232.33612028
2.0193	9995264.861781228
2.02154	11526683.689962681
2.02378	12816899.671659391
2.02602	12707263.498374905
2.02825	12458605.458354644
2.03049	12571585.449149946
2.03272	13130519.490724185
2.03494	13871773.152651614
2.03717	14355601.421484929
2.03939	14674438.619517846
2.04162	15045328.908049608
2.04384	16085449.330038583
2.04605	17652808.544552743
2.04827	18927939.941563796
2.05048	18561782.768628355
2.05269	17439365.953896146
2.0549	17859941.250421096
2.05711	19112623.499560185
2.05931	20201894.321441036
2.06151	20421110.862478126
2.06371	20148419.76509271
2.06591	20570571.554765273
2.06811	21180187.26588734
2.0703	21533680.579286873
2.07249	21397745.89427913
2.07468	20825657.995881353
2.07686	20560838.30949216
2.07905	20628098.586011007
2.08123	20754160.80244918
2.08341	20822147.46348966
2.08559	20898007.254728924
2.08776	21068184.720304303
2.08994	21215610.449958514
2.09211	21238242.244455576
2.09428	21151565.931172222
2.09645	21153143.501538493
2.09861	20996945.18564355
2.10077	20690517.579085637
2.10293	20295208.29985959
2.10509	19879435.373748172
2.10725	19533252.502653923
2.1094	19515093.69046593
2.11155	19611558.32799087
2.1137	19683641.70799034
2.11585	19567110.051599164
2.11799	19375165.406965904
2.12013	19259387.54888938
2.12227	19205246.66527548
2.12441	19179030.59282811
2.12655	19013101.890528686
2.12868	18826936.27042899
2.13081	18681599.136575475
2.13294	18550538.905889783
2.13507	18202515.710124757
2.13719	17769192.494134925
2.13931	17336222.18044887
2.14143	16857596.452157762
2.14355	16130526.463459335
2.14567	15840930.833827335
2.14778	15650948.757768648
2.14989	15422477.621740695
2.152	14945165.36322752
2.1541	14942291.398272932
2.15621	14949010.87941912
2.15831	14820028.755051142
2.16041	14325128.910214595
2.16251	14136079.660495076
2.1646	13964163.22162081
2.1667	13743231.457385816
2.16879	13484254.314159626
2.17087	13118093.371169388
2.17296	12729432.220246058
2.17504	12357503.652732052
2.17713	11990980.595791798
2.1792	11617139.135319976
2.18128	11228280.735425029
2.18336	10820998.142331982
2.18543	10370016.00215504
2.1875	9880609.415153535
2.18957	9293092.264525233
2.19163	8348745.599404608
2.1937	7167989.726929877
2.19576	5969988.909067169
2.19782	4850221.957865037
2.19987	3994535.013705429
2.20193	3357753.6830604146
2.20398	2971258.3355729035
2.20603	3004711.8901284984
2.20808	3422664.9229175877
2.21012	3950529.618599596
2.21217	4465144.929625792
2.21421	4672634.221620791
2.21625	4684150.8061149875
2.21828	4522122.014649402
2.22032	4310375.031790611
2.22235	4160715.0070443
2.22438	4012344.135275668
2.22641	3749970.986806771
2.22843	3513493.16611542
2.23046	3312129.1124101533
2.23248	3169437.608229903
2.2345	3022750.225835019
2.23651	2890646.829596058
2.23853	2776396.553327371
2.24054	2596129.007134788
2.24255	2358566.6613567304
2.24456	2083800.5839149537
2.24657	2033593.6761785948
2.24857	2136841.699559985
2.25057	2322251.7563096094
2.25257	2345445.101754665
2.25457	2315762.407129907
2.25656	2263758.1513936897
2.25856	2244287.26414043
2.26055	2143194.627770745
2.26254	2010279.2248933872
2.26453	1902112.1562174852
2.26651	1929684.6185786773
2.2685	2038062.7468291488
2.27048	2234051.4327541213
2.27246	2409123.4296721057
2.27443	2534679.279053937
2.27641	2498819.154593161
2.27838	2387470.9126878297
2.28036	2242373.7016719184
2.28233	2106092.4246972906
2.28429	1999241.1793943634
2.28626	1906677.9235397857
2.28823	1813050.1427249098
2.29019	1749148.702762439
2.29215	1710324.4090189857
2.29411	1745204.1156169984
2.29607	1787405.8610829972
2.29802	1835794.073351231
2.29998	1951228.0192511054
2.30193	2162213.3885389
2.30388	2483073.468788348
2.30583	3026616.8812872525
2.30778	3594488.769003497
2.30972	4166967.0963665494
2.31167	4226104.083505455
2.31361	3946867.2857015533
2.31555	3023159.7749555777
2.31749	2205847.2972220713
2.31943	1520747.3271456177
2.32137	1434705.6865787138
2.32331	1421710.7851836218
2.32524	1466649.8865626717
2.32718	1442190.8899783748
2.32911	1421633.939411764
2.33104	1408095.941319295
2.33297	1391331.4255107378
2.3349	1370470.6855243624
2.33683	1339028.744665367
2.33876	1293478.331328354
2.34068	1240106.9327933919
2.34261	1174952.570872124
2.34453	1138095.5066890684
2.34646	1132899.1903406102
2.34838	1221855.0537766407
2.3503	1347455.7491054272
2.35223	1536493.0536349185
2.35415	1727201.9126934484
2.35607	1920658.7232298832
2.35799	2135914.5253572334
2.35991	2346849.7466968736
2.36183	2552570.473982336
2.36375	2484089.1453284994
2.36566	2280706.7098364867
2.36758	1783055.0001944734
2.3695	1350334.831100462
2.37142	959237.4444090867
2.37334	978889.8649015117
2.37526	1055252.680566498
2.37718	1222548.6172679323
2.3791	1339399.7292850302
2.38101	1435279.7036447704
2.38293	1504970.0706241087
2.38485	1600219.8456810066
2.38677	1721567.1216170727
2.3887	1819614.8429351659
2.39062	1897031.5064529546
2.39254	1923296.3509568167
2.39446	1949329.7527473692
2.39639	1975349.611746528
2.39831	2053355.5735158944
2.40024	2101844.0083779953
2.40216	2092012.6633764254
2.40409	2073014.0303542004
2.40602	2065439.7643805067
2.40795	2237653.202141543
2.40989	2433116.411365772
2.41182	2654927.463547988
2.41376	2701884.295174171
2.4157	2693976.469131308
2.41764	2621277.257271313
2.41958	2606466.7277657404
2.42152	2638724.566155827
2.42347	2685789.9232674935
2.42542	2768726.046162758
