#wavelength	surface flux
0.8	53350546.228412196
0.8002000000000001	53931027.332668394
0.8004000500000003	54585945.34896434
0.8006001500125003	55241777.51500855
0.8008003000500035	55897773.63909431
0.8010005001250161	56553933.76221139
0.8012007502500472	57210257.92535831
0.8014010504376099	57887665.691475235
0.8016014007002193	58572250.21026441
0.8018018010503944	59257005.87518328
0.8020022515006572	59941932.72901869
0.8022027520635323	60627030.81456696
0.8024033027515483	61285701.45568978
0.8026039035772362	61918471.05653482
0.8028045545531306	62551398.849780105
0.8030052556917691	63184484.874974
0.803206007005692	63817729.17167364
0.8034068085074435	64434751.950961195
0.8036076602095705	65006013.92402828
0.8038085621246229	65577418.712588176
0.8040095142651542	66148966.35234557
0.8042105166437206	66720656.879012704
0.8044115692728815	67291893.74820884
0.8046126721651998	67837613.46531568
0.8048138253332411	68383469.61235137
0.8050150287895745	68929462.22342432
0.805216282546772	69475591.3326499
0.8054175866174087	70021856.97415249
0.8056189410140631	70618238.54148842
0.8058203457493168	71228916.60451935
0.8060218008357541	71839747.33706525
0.8062233062859632	72450730.7772946
0.8064248621125346	73061866.96338359
0.806626468328063	73694538.87773453
0.8068281249451449	74345734.32235903
0.8070298319763813	74997092.56584547
0.8072315894343755	75648613.64889231
0.8074333973317341	76300297.61221015
0.8076352556810671	76947050.82982795
0.8078371644949874	77581704.42947774
0.8080391237861113	78216516.69252758
0.8082411335670578	78851487.6586428
0.8084431938504498	79486617.3675002
0.8086453046489125	80122150.92607623
0.8088474659750746	80762406.08195804
0.8090496778415686	81402821.30162966
0.809251940261029	82043396.62510574
0.8094542532460944	82684132.09241323
0.8096566168094059	83325027.74358682
0.8098590309636085	83912705.95849489
0.8100614957213493	84488037.61574754
0.8102640110952797	85063513.1059146
0.8104665770980536	85639132.4649544
0.8106691937423283	86214895.7288342
0.8108718610407639	86757821.0312657
0.8110745790060241	87275662.53546074
0.8112773476507757	87793633.50003229
0.8114801669876885	88311733.95734486
0.8116830370294355	88829963.93977144
0.8118859577886929	89362911.88684821
0.8120889292781401	89926293.83049099
0.8122919515104597	90489816.61961965
0.8124950244983374	91053480.28944562
0.8126981482544621	91617284.87518896
0.8129013227915257	92183538.0321665
0.8131045481222237	92776355.35523857
0.8133078242592543	93369320.88264148
0.8135111512153191	93962434.65142606
0.813714529003123	94555696.69865292
0.8139179576353739	95149107.0613917
0.8141214371247829	95691157.80272187
0.8143249674840641	96223355.7942236
0.814528548725935	96755686.8352229
0.8147321808631167	97288150.95898315
0.8149358639083326	97820748.1987742
0.8151395978743097	98192095.92619924
0.8153433827737784	98454499.59329589
0.8155472186194719	98716968.86130923
0.8157511054241268	98979503.74663952
0.815955043200483	99242104.26569133
0.8161590319612831	99104277.15937975
0.8163630717192736	98232560.48706989
0.8165671624872033	97360625.88559291
0.8167713042778252	96488473.30046469
0.8169754971038948	95616102.67718977
0.8171797409781707	94394047.17410989
0.8173840359134155	90381784.56220779
0.8175883819223938	86368518.88465732
0.8177927790178745	82354249.89068519
0.8179972272126291	78338977.3294635
0.8182017265194322	74322700.95010556
0.8184062769510622	72996859.3287533
0.8186108785203001	72084858.84719205
0.8188155312399301	71172630.36551163
0.8190202351227402	70260173.82670976
0.819224990181521	69347489.1737738
0.8194297964290664	72296477.45223527
0.8196346538781738	77573957.01706865
0.8198395625416434	82852755.95179117
0.8200445224322789	88132874.58624959
0.820249533562887	93414313.25036505
0.8204545959462778	97390278.10167095
0.8206597095952644	99263987.00239646
0.8208648745226633	101138164.33034863
0.8210700907412941	103012810.20263247
0.8212753582639793	104887924.73638248
0.8214806771035456	106616563.27355361
0.8216860472728215	107440275.12556037
0.8218914687846397	108264192.90553018
0.822096941651836	109088316.6649454
0.822302465887249	109912646.4553
0.8225080415037209	110737182.32810263
0.8227136685140968	111413879.6579987
0.8229193469312254	112073939.99728389
0.8231250767679583	112734165.35165411
0.8233308580371503	113394555.76236257
0.8235366907516598	114055111.27067418
0.8237425749243477	114786155.92227325
0.8239485105680789	115554656.29362871
0.824154497695721	116323348.79007651
0.824360536320145	117092233.45964856
0.8245666264542252	117861310.35038799
0.8247727681108388	118443624.26220919
0.8249789613028664	118758328.64980754
0.8251852060431922	119073111.71350305
0.825391502344703	119387973.47296435
0.8255978502202894	119702913.94786578
0.8258042496828445	119965596.05356298
0.8260107007452654	119974164.99685918
0.8262172034204517	119982736.08239119
0.8264237577213068	119991309.31069458
0.8266303636607373	119999884.68230504
0.8268370212516525	120008462.1977584
0.8270437305069654	120214958.81747477
0.8272504914395923	120436972.98546968
0.8274573040624523	120659042.65700664
0.8276641683884679	120881167.84596129
0.8278710844305652	121103348.56621344
0.8280780522016729	121343117.6169677
0.8282850717147234	121590960.81368777
0.8284921429826521	121838865.9712068
0.8286992660183978	122086833.10501538
0.8289064408349024	122334862.23060724
0.8291136674451112	122580660.66167258
0.8293209458619727	122823629.56025179
0.8295282760984382	123066659.2010553
0.829735658167463	123309749.5992693
0.8299430920820048	123552900.77008255
0.8301505778550254	123824700.06577808
0.8303581154994891	124210667.7450739
0.8305657050283641	124596731.91628994
0.8307733464546212	124982892.60354848
0.8309810397912352	125369149.83097947
0.8311887850511829	125755503.62271655
0.8313965822474458	126274104.26052861
0.8316044313930077	126798968.34099782
0.8318123325008561	127323963.63748765
0.8320202855839813	127849090.18280134
0.8322282906553774	128374348.00975141
0.8324363477280413	128817166.49986374
0.8326444568149735	129226853.04168563
0.8328526179291771	129636642.0051425
0.8330608310836596	130046533.41584083
0.8332690962914304	130456527.29939131
0.8334774135655034	130761661.28145583
0.833685782918895	130949625.09937532
0.8338942043646247	131137635.90824918
0.834102677915716	131325693.71982539
0.834311203585195	131513798.54585434
0.8345197813860912	131723401.08102578
0.8347284113314379	132005261.02157702
0.8349370934342709	132287191.42711322
0.8351458277076294	132569192.31525047
0.8353546141645565	132851263.70361023
0.8355634528180977	133133405.60981695
0.8357723436813022	133468464.1609142
0.8359812867672226	133804258.9914483
0.8361902820889144	134140137.77068987
0.8363993296594368	134476100.51962635
0.8366084294918518	134812147.2592502
0.8368175815992247	135044749.0183075
0.8370267859946247	135241752.47951138
0.8372360426911234	135438805.19158053
0.8374453517017962	135635907.16682765
0.8376547130397217	135833058.41756856
0.8378641267179816	136144917.96408665
0.8380735927496613	136570627.01710033
0.8382831111478488	136996442.497377
0.8384926819256358	137422364.43152356
0.8387023050961173	137848392.84615397
0.8389119806723914	138203732.2971283
0.8391217086675596	138359918.9951013
0.8393314890947265	138516144.7397487
0.8395413219670003	138672409.54083225
0.8397512072974922	138828713.40811616
0.8399611450993165	138987993.08802852
0.8401711353855914	139293149.88095284
0.8403811781694378	139598382.96307525
0.8405912734639802	139903692.3534683
0.8408014212823464	140209078.07120907
0.8410116216376671	140514540.13537925
0.8412218745430766	140507285.4795558
0.8414321800117124	140409018.29245383
0.8416425380567154	140310726.5385551
0.8418529486912297	140212410.2117178
0.8420634119284025	140114069.30579892
0.8422739277813847	140367350.52366304
0.8424844962633302	140930509.45767352
0.842695117387396	141493809.1814168
0.8429057911667428	142057249.73009104
0.8431165176145345	142620831.13890272
0.8433272967439382	142594854.22601572
0.8435381285681244	141130430.90483126
0.8437490131002665	139665641.47781685
0.8439599503535415	138200485.8534466
0.84417094034113	136734963.94016922
0.8443819830762154	135312781.88523492
0.8445930785719846	134770710.202161
0.8448042268416277	134228503.00116664
0.8450154278983382	133686160.24837208
0.8452266817553128	133143681.90988937
0.8454379884257517	132601067.95182197
0.8456493479228583	132750039.12770808
0.845860760259839	133065622.2254143
0.846072225449904	133381284.21889496
0.8462837435062666	133697025.12787403
0.8464953144421433	134012844.97208054
0.8467069382707537	134407641.10916713
0.8469186150053215	134864033.9971188
0.847130344659073	135320540.9832926
0.8473421272452377	135777162.09621254
0.8475539627770492	136233897.36441112
0.8477658512677435	136688450.4171292
0.8479777927305605	137138241.00659725
0.8481897871787432	137588144.04371256
0.848401834625538	138038159.5565874
0.8486139350841944	138488287.5733402
0.8488260885679657	138906486.28177685
0.8490382950901076	138934210.8812837
0.8492505546638802	138961942.4119405
0.8494628673025462	138989680.8754799
0.8496752330193721	139017426.27363524
0.8498876518276269	139045178.60814008
0.8501001237405839	137330409.86891276
0.8503126487715191	135267373.24260354
0.850525226933712	133203820.85713887
0.8507378582404455	131139752.58357787
0.8509505427050057	129075168.29294728
0.8511632803406821	126897302.18424888
0.8513760711607672	124641667.77299622
0.8515889151785576	122385469.45313723
0.8518018124073523	120128707.08370018
0.8520147628604541	117871380.5236721
0.8522277665511693	117221139.21565354
0.8524408234928071	119543888.92440724
0.8526539336986805	121867219.32058878
0.8528670971821053	124191130.5493695
0.8530803139564007	126515622.75595467
0.8532935840348901	128907743.90945975
0.8535069074308987	131866716.2272837
0.8537202841577566	134826428.2881896
0.8539337142287962	137786880.27711102
0.8541471976573534	140748072.37902784
0.8543607344567677	143710004.7789707
0.8545743246403821	144427158.45896205
0.8547879682215422	144787877.31292644
0.8550016652135977	145148686.34660426
0.8552154156299011	145509585.58254054
0.8554292194838088	145870575.04328606
0.8556430767886797	146043635.2352275
0.855856987557877	146102578.20788863
0.8560709518047664	146161535.9162929
0.8562849695427177	146220508.3641243
0.8564990407851035	146279495.55506766
0.8567131655452999	146239401.65173864
0.8569273438366862	146036925.88222906
0.8571415756726455	145834399.49377704
0.8573558610665638	145631822.47372782
0.8575702000318304	145429194.80942383
0.8577845925818384	145378914.0176413
0.857999038729984	146280551.76825434
0.8582135384896665	147182414.9283048
0.858428091874289	148084503.55414534
0.8586426988972576	148986817.7021421
0.8588573595719821	149889357.42867613
0.8590720739118751	149839901.64857203
0.8592868419303532	149678163.78670496
0.8595016636408359	149516385.49037242
0.8597165390567462	149354566.74946585
0.8599314681915105	149192707.55387402
0.8601464510585584	148088784.21682653
0.860361487671323	146484565.30732197
0.8605765780432408	144879945.34309047
0.8607917221877518	143274924.22386658
0.8610069201182988	141669501.84936336
0.8612221718483286	137784306.39732984
0.8614374773912907	130612116.84164631
0.8616528367606385	123438134.23857582
0.8618682499698288	116262358.13985002
0.8620837170323213	109084788.09710073
0.8622992379615795	103086042.85180986
0.8625148127710699	102928229.97421828
0.8627304414742627	102770377.64340729
0.8629461240846313	102612485.84951358
0.8631618606156526	102454554.58267136
0.8633776510808066	102296583.83301248
0.8635934954935769	105262330.31699672
0.8638093938674504	108484878.22619756
0.8640253462159173	111708231.7723756
0.8642413525524714	114932391.15694012
0.8644574128906095	118157356.5813501
0.8646735272438323	119965332.76136962
0.8648896956256433	121114446.7493134
0.8651059180495498	122263848.01575425
0.8653221945290621	123413536.6325106
0.8655385250776946	124563512.67142275
0.8657549097089641	126012563.01794411
0.8659713484363913	127844488.429382
0.8661878412735006	129676871.82217358
0.866404388233819	131509713.31081311
0.8666209893308775	133343013.00982395
0.8668376445782103	134811125.28235582
0.8670543539893549	134787218.65489557
0.8672711175778525	134763306.05077845
0.8674879353572469	134739387.46851033
0.8677048073410862	134715462.90659663
0.8679217335429217	134691532.36354244
0.8681387139763074	134473529.32206556
0.8683557486548015	134245831.04975203
0.8685728375919655	134018075.85287015
0.8687899808013633	133790263.71718954
0.8690071782965637	133562394.62847471
0.869224430091138	132766718.57247786
0.8694417361986609	131739826.8401812
0.8696590966327107	130712678.38495168
0.869876511406869	129685273.1426083
0.8700939805347206	128657611.04895484
0.8703115040298544	127915538.36120316
0.870529081905862	127500085.19292963
0.8707467141763385	127084528.16136417
0.8709644008548827	126668867.24054085
0.8711821419550964	126253102.40448757
0.8713999374905854	126032893.17409053
0.871617787474958	126487917.87386698
0.8718356919218269	126943056.32981876
0.8720536508448075	127398308.57038458
0.8722716642575187	127853674.62401025
0.8724897321735832	128309154.51914954
0.8727078546066265	129473502.03623565
0.8729260315702784	130648923.10975803
0.873144263078171	131824638.03854755
0.8733625491439405	133000646.89606938
0.8735808897812266	134176949.75580604
0.8737992850036719	134374454.02245367
0.874017734824923	134225229.14087477
0.8742362392586293	134075966.95307556
0.874454798318444	133926667.4497294
0.8746734120180236	133777330.6215074
0.8748920803710283	133839161.79356745
0.875110803391121	134113249.65951674
0.8753295810919689	134387406.04743266
0.875548413487242	134661630.97444558
0.8757673005906139	134935924.45769027
0.8759862424157616	135820361.23830146
0.8762052389763657	138470299.13307166
0.8764242902861098	141120899.51231372
0.8766433963586814	143772162.54165134
0.8768625572077712	146424088.38674706
0.8770817728470732	149052967.00603074
0.8773010432902849	149831269.68751973
0.8775203685511077	150609766.9446802
0.8777397486432454	151388458.82615402
0.8779591835804065	152167345.38059917
0.8781786733763015	152946426.65668187
0.8783982180446457	151736737.01641244
0.878617817599157	149935064.83856493
0.8788374720535569	148132942.2426738
0.8790571814215703	146330369.11613417
0.8792769457169257	144527345.34631288
0.879496764953355	143749004.97048813
0.8797166391445934	143892132.9423863
0.8799365683043796	144035296.69627747
0.8801565524464557	144178496.2411071
0.8803765915845676	144321731.58582306
0.8805966857324639	144693047.18915167
0.880816834903897	145637234.91429347
0.881037039112623	146581658.68636692
0.8812572983724012	147526318.5643833
0.8814776126969944	148471214.6073696
0.8816979821001687	149391391.68400776
0.8819184065956938	149724349.42344433
0.8821388861973429	150057390.4023161
0.8823594209188923	150390514.64143226
0.882580010774122	150723722.16160804
0.8828006557768155	151057012.98366407
0.8830213559407598	152874941.63570735
0.8832421112797452	155066705.29778787
0.8834629218075651	157259016.9007826
0.8836837875380171	159451876.58167872
0.8839047084849018	161645284.47749543
0.884125684662023	161378696.19206956
0.8843467160831886	159140229.0638998
0.8845678027622095	156901202.31894797
0.8847889447129001	154661615.81730947
0.8850101419490785	152421469.41904598
0.8852313944845657	151580880.0014713
0.885452702333187	153804764.8620965
0.8856740655087704	156029205.6939365
0.8858954840251476	158254202.63598388
0.8861169578961539	160479755.82726574
0.886338487135628	162370486.8047167
0.886560071757412	159798670.96562213
0.8867817117753515	157226212.1725678
0.8870034072032955	154653110.2648141
0.8872251580550963	152079365.08158645
0.8874469643446101	149504976.46206143
0.8876688260856963	149472395.00192806
0.8878907432922178	149965998.16390592
0.8881127159780409	150459724.72667393
0.8883347441570356	150953574.72108322
0.8885568278430749	151447548.17799062
0.8887789670500358	151280395.71276984
0.8890011617917983	150644128.5515622
0.8892234120822464	150007702.32356396
0.8894457179352669	149371116.98900926
0.8896680793647509	148734372.50812042
0.8898904963845921	148523401.2162581
0.8901129690086883	149125067.36512524
0.8903354972509405	149726883.93052948
0.8905580811252535	150328850.9500755
0.8907807206455347	150930968.46137562
0.8910034158256963	151558426.3395984
0.8912261666796527	152411161.7502441
0.8914489732213227	153264110.34474275
0.8916718354646282	154117272.17639086
0.8918947534234944	154970647.29849604
0.8921177271118502	155824235.76438123
0.8923407565436284	155453276.12931958
0.8925638417327644	154882431.8511818
0.8927869826931977	154311444.8619743
0.8930101794388711	153740315.12601954
0.8932334319837308	153169042.60763088
0.8934567403417267	152791521.866662
0.8936801045268123	152534389.41233113
0.8939035245529441	152277192.67488685
0.8941270004340824	152019931.63825813
0.894350532184191	151762606.2863703
0.8945741198172371	152825299.49915156
0.8947977633471915	156077458.4038647
0.8950214627880284	159330430.3483039
0.8952452181537254	162584215.5357273
0.8954690294582639	165838814.1694495
0.8956928967156286	168922352.75520763
0.8959168199398075	170891263.15432596
0.8961407991447926	172860665.78104457
0.8963648343445789	174830560.75841978
0.896588925553165	176800948.20953825
0.8968130727845534	178771828.25751975
0.8970372760527496	179259323.49261898
0.8972615353717629	179561277.63960952
0.8974858507556059	179863307.27513686
0.8977102222182949	180165412.418073
0.8979346497738496	180467593.08729506
0.8981591334362931	180775861.6378176
0.8983836732196523	181087495.26073804
0.8986082691379572	181399206.79206404
0.8988329212052417	181710996.25127286
0.8990576294355432	182022863.65784675
0.8992823938429022	182198990.18323308
0.8995072144413631	182173215.37314832
0.8997320912449734	182147434.11936104
0.8999570242677847	182121646.4202603
0.9001820135238516	182095852.2742348
0.9004070590272328	182319846.95303825
0.9006321607919896	183853409.67444596
0.9008573188321878	185387355.7865356
0.9010825331618959	186921685.3851525
0.9013078037951865	188456398.5661693
0.9015331307461353	189991495.42548054
0.9017585140288219	190973908.1804902
0.9019839536573292	191908929.36876163
0.9022094496457435	192844184.31232947
0.9024350020081551	193779673.0696343
0.9026606107586572	194715395.6991281
0.902886275911347	195403598.43778613
0.9031119974803249	195972538.639908
0.9033377754796951	196541621.0770804
0.903563609923565	197110845.78486183
0.903789500826046	197680212.7988206
0.9040154482012526	197819976.86121798
0.904241452063303	197403078.36022377
0.9044675124263188	196986075.63460445
0.9046936293044254	196568968.65830377
0.9049198027117517	196151757.4052588
0.9051460326624297	195616420.3395617
0.9053723191705955	194578386.39465547
0.9055986622503881	193540092.941264
0.9058250619159507	192501539.91450915
0.9060515181814298	191462727.24949694
0.9062780310609752	190423654.88131922
0.9065046005687405	191719213.8153081
0.906731226718883	193145353.30869448
0.9069579095255627	194571849.3369524
0.907184649002944	195998701.98921746
0.907411445165195	197425911.35464704
0.9076382980264862	198479918.595249
0.907865207600993	199379051.00707358
0.9080921739028933	200278408.20200086
0.9083191969463691	201177990.2362267
0.9085462767456058	202077797.16596156
0.9087734133147922	202813116.12687057
0.9090006066681211	203358373.45262095
0.909227856819788	203903767.09270203
0.9094551637839932	204449297.0811939
0.9096825275749393	204994963.45218268
0.9099099482068329	205546661.01218182
0.9101374256938848	206119446.61995888
0.9103649600503083	206692375.4241376
0.9105925512903209	207265447.46051723
0.9108201994281437	207838662.7649066
0.9110479044780008	208412021.37312138
0.9112756664541204	209847730.71685073
0.911503485370734	211303534.76320374
0.9117313612420768	212759702.76056838
0.9119592940823873	214216234.7999319
0.912187283905908	215673130.97230574
0.9124153307268845	216005190.86980522
0.9126434345595664	215928951.77090713
0.9128715954182063	215852693.6122344
0.9130998133170609	215776416.38902196
0.9133280882703902	215700120.09650373
0.913556420292458	215803774.90049216
0.9137848093975312	216093061.51243153
