#wavelength	surface flux
0.7	8521149.646110877
0.7001166666666666	8583821.842306823
0.7002333527777778	8590239.424903352
0.700350058336574	8596658.077096976
0.7004667833462966	8603077.799065957
0.7005835278101878	8609498.590988617
0.7007002917314895	8615920.453043256
0.7008170751134447	8622343.385408236
0.7009338779592968	8628767.388261938
0.7010507002722901	8615285.534851713
0.7011675420556689	8577576.027861081
0.701284403312678	8539860.235952679
0.7014012840465635	8502138.158078905
0.7015181842605713	8464409.793192158
0.701635103957948	8426675.140244624
0.701752043141941	8388934.198188271
0.701869001815798	8351186.965974856
0.7019859799827672	8287872.888475938
0.7021029776460976	8206759.552247859
0.7022199948090387	8125632.697130305
0.7023370314748403	8044492.320870267
0.7024540876467528	7963338.4212142
0.702571163328027	7882170.995908323
0.7026882585219152	7800990.042698011
0.7028053732316688	7719795.559328949
0.7029225074605406	7711624.485861488
0.7030396612117841	7731654.963536186
0.7031568344886527	7751688.7796238335
0.7032740272944008	7771725.934680817
0.7033912396322832	7791766.429263652
0.7035084715055552	7811810.263928899
0.7036257229174727	7831857.439233264
0.7037429938712924	7851907.955733532
0.7038602843702709	7912664.336072303
0.7039775944176659	7980334.288074545
0.7040949240167356	8048015.518402147
0.7042122731707383	8115708.028934769
0.7043296418829335	8183411.821552518
0.7044470301565806	8251126.898135691
0.70456443799494	8318853.260564909
0.7046818654012724	8386590.910721241
0.7047993123788394	8381794.642406371
0.7049167789309024	8376914.325867825
0.7050342650607243	8372033.195943182
0.7051517707715678	8367151.252496887
0.7052692960666963	8362268.495393353
0.705386840949374	8357384.92449697
0.7055044054228656	8352500.539672097
0.7056219894904361	8352720.832261902
0.7057395931553511	8385386.016410965
0.705857216420877	8418056.64475741
0.7059748592902804	8450732.718208563
0.7060925217668288	8483414.23767199
0.70621020385379	8516101.20405532
0.7063279055544321	8548793.618266342
0.7064456268720246	8581491.481213115
0.7065633678098366	8614849.20780906
0.7066811283711383	8650014.762197157
0.7067989085592001	8685186.177510986
0.7069167083772933	8720363.454727344
0.7070345278286895	8755546.594823262
0.707152366916661	8790735.59877587
0.7072702256444803	8825930.467562428
0.7073881040154211	8861131.202160498
0.7075060020327569	8858811.271080574
0.7076239196997625	8801839.28667757
0.7077418570197124	8744857.806943888
0.7078598139958823	8687866.830296922
0.7079777906315483	8630866.355153792
0.7080957869299869	8573856.379931515
0.7082138028944751	8516836.90304673
0.7083318385282908	8459807.922915759
0.7084498938347124	8432407.46681454
0.708567968817018	8430130.170436114
0.7086860634784875	8427852.49450829
0.7088041778224007	8425574.43896781
0.7089223118520377	8423296.003751408
0.7090404655706796	8421017.188795805
0.709158638981608	8418737.994037706
0.709276832088105	8416458.419413814
0.7093950448934531	8448089.059460917
0.7095132774009353	8495897.299674297
0.7096315296138355	8543713.507927733
0.7097498015354378	8591537.685549196
0.7098680931690269	8639369.833866885
0.7099864045178884	8687209.954209354
0.7101047355853081	8735058.047905203
0.7102230863745722	8782914.116283303
0.7103414568889679	8718444.626357665
0.7104598471317828	8628439.565941395
0.7105782571063047	8538419.504681788
0.7106966868158224	8448384.440078644
0.710815136263625	8358334.369631417
0.7109336054530023	8268269.290839058
0.7110520943872445	8178189.201200267
0.7111706030696424	8088094.098213148
0.7112891315034873	8089406.754232432
0.7114076796920712	8095081.672910421
0.7115262476386865	8100757.537408189
0.7116448353466263	8106434.347883371
0.711763442819184	8112112.104493634
0.711882070059654	8117790.80739667
0.7120007170713306	8123470.456750187
0.7121193838575091	8134252.444517284
0.7122380704214853	8198242.439989718
0.7123567767665555	8262243.100461331
0.7124755028960166	8326254.427709722
0.7125942488131658	8390276.423512606
0.7127130145213015	8454309.089648299
0.7128318000237216	8518352.427894818
0.7129506053237256	8582406.440031134
0.7130694304246129	8620738.776874023
0.7131882753296837	8569108.138453936
0.7133071400422386	8517468.894927433
0.7134260245655789	8465821.044860378
0.7135449289030065	8414164.586818295
0.7136638530578235	8362499.519366567
0.7137827970333332	8310825.841070188
0.7139017608328388	8259143.5504941065
0.7140207444596443	8220248.036213365
0.7141397479170543	8204171.745204307
0.7142587712083737	8188092.774813436
0.7143778143369084	8172011.124594153
0.7144968773059646	8155926.79409983
0.7146159601188489	8139839.782883764
0.7147350627788687	8123750.090499161
0.7148541852893318	8107657.716499166
0.7149733276535467	8117762.14018281
0.7150924898748222	8154287.217720652
0.715211671956468	8190818.382771425
0.7153308739017941	8227355.636349735
0.715450095714111	8263898.97947029
0.71556933739673	8300448.413148038
0.7156885989529628	8337003.93839806
0.7158078803861218	8373565.5562356785
0.7159271816995193	8356343.996685993
0.7160465028964692	8307548.620634929
0.7161658439802853	8258745.112021192
0.7162852049542819	8209933.469489362
0.7164045858217744	8161113.691683746
0.716523986586078	8112285.777248517
0.7166434072505089	8063449.724827573
0.716762847818384	8014605.5330645405
0.7168823082930204	8016000.520932177
0.7170017886777359	8032178.289106337
0.7171212889758488	8048358.7535751825
0.7172408091906781	8064541.91478811
0.7173603493255433	8080727.773194579
0.7174799093837642	8096916.329244107
0.7175994893686615	8113107.583386316
0.7177190892835562	8129301.536070875
0.7178387091317702	8160990.400482784
0.7179583489166254	8194239.699185296
0.7180780086414448	8227494.539437618
0.7181976883095517	8260754.922163314
0.7183173879242699	8294020.848286134
0.718437107488924	8327292.318729983
0.7185568470068389	8360569.334418918
0.7186766064813399	8391988.366764631
0.7187963859157535	8376820.290931675
0.7189161853134061	8361649.687086081
0.719036004677625	8346476.554806512
0.7191558440117378	8331300.893671572
0.7192757033190732	8316122.703259755
0.7193955826029597	8300941.983149554
0.7195154818667269	8285758.732919322
0.7196354011137046	8264488.373221016
0.7197553403472235	8215199.97946243
0.7198752995706147	8165903.370971573
0.7199952787872098	8116598.546379265
0.720115278000341	8067285.504316196
0.7202352972133411	8017964.243412775
0.7203553364295432	7968634.762299279
0.7204753956522815	7919297.059605527
0.7205954748848902	7875506.322388002
0.7207155741307044	7843955.400967875
0.7208356933930594	7812399.221060899
0.7209558326752915	7780837.781790597
0.7210759919807375	7749271.082280375
0.7211961713127342	7717699.12165361
0.7213163706746197	7686121.8990333555
0.7214365900697322	7654539.413542698
0.7215568295014103	7655402.631983732
0.721677088972994	7694985.465522128
0.7217973684878227	7734574.896199382
0.7219176680492374	7774170.925115129
0.7220379876605789	7813773.553369005
0.722158327325189	7853382.782060937
0.7222786870464099	7892998.612290964
0.7223990668275843	7932621.04515938
0.7225194666720555	7935668.46586452
0.7226398865831676	7912790.087466521
0.7227603265642646	7889907.89600551
0.722880786618692	7867021.890845874
0.7230012667497951	7844132.07135206
0.7231217669609201	7821238.436888328
0.7232422872554135	7798340.986818871
0.7233628276366229	7775439.720507697
0.7234833881078956	7723888.25374248
0.7236039686725803	7661452.26873739
0.7237245693340255	7599005.877734898
0.7238451900955812	7536549.079000456
0.7239658309605971	7474081.870799631
0.7240864919324239	7411604.251397358
0.7242071730144127	7349116.219058513
0.724327874209915	7286617.772047743
0.7244485955222832	7282823.107341689
0.7245693369548704	7288735.706902112
0.7246900985110294	7294649.291895787
0.7248108801941148	7300563.862486976
0.7249316820074803	7306479.418839911
0.7250525039544815	7312395.961118914
0.7251733460384739	7318313.489488298
0.7252942082628137	7324164.592914471
0.7254150906308574	7290956.488333136
0.7255359931459625	7257742.8490677
0.7256569158114868	7224523.67419571
0.7257778586307888	7191298.962794557
0.7258988216072273	7158068.7139415145
0.7260198047441617	7124832.9267136995
0.7261408080449525	7091591.600187956
0.72626183151296	7057634.872226992
0.7263828751515454	7018955.049756318
0.7265039389640706	6980268.780648573
0.726625022953898	6941576.063829286
0.7267461271243904	6902876.898223845
0.7268672514789111	6864171.282757495
0.7269883960208241	6825459.216355267
0.7271095607534942	6786740.697941946
0.7272307456802866	6745612.834949522
0.7273519508045666	6697987.327398296
0.7274731761297006	6650353.882262501
0.7275944216590555	6602712.498219185
0.7277156873959987	6555063.173945177
0.7278369733438982	6507405.9081170475
0.727958279506122	6459740.699411407
0.7280796058860397	6412067.546504257
0.7282009524870207	6368016.224773457
0.7283223193124353	6329326.405109076
0.7284437063656539	6290630.137141497
0.7285651136500483	6251927.419795861
0.7286865411689898	6213218.251997413
0.7288079889258514	6174502.6326709045
0.7289294569240056	6135780.560741264
0.7290509451668262	6097052.035132925
0.7291724536576875	6077359.679705295
0.7292939823999636	6073442.906872411
0.7294155313970303	6069525.481244048
0.7295371006522632	6065607.402711414
0.7296586901690385	6061688.6711656945
0.7297802999507332	6057769.286498052
0.7299019300007252	6053849.248599622
0.7300235803223919	6049928.557361553
0.7301452509191123	6040044.145696661
0.7302669417942654	6027405.717088581
0.7303886529512311	6014765.182075729
0.7305103843933897	6002122.5403070375
0.7306321361241218	5989477.791431395
0.7307539081468093	5976830.935097584
0.7308757004648336	5964181.970954411
0.7309975130815778	5951530.898650532
0.7311193460004248	5940461.976762158
0.7312411992247582	5929749.866049986
0.7313630727579622	5919035.969986032
0.7314849666034219	5908320.288272722
0.7316068807645224	5897602.820612466
0.7317288152446498	5886883.566707596
0.7318507700471907	5876162.526260403
0.7319727451755319	5865439.698973139
0.732094740633061	5852228.329957076
0.7322167564231665	5838902.8045669235
0.7323387925492371	5825575.058255871
0.7324608490146619	5812245.09065377
0.732582925822831	5798912.901390399
0.7327050229771347	5785578.490095499
0.7328271404809642	5772241.8563987035
0.7329492783377112	5757252.794004919
0.7330714365507675	5726037.962773232
0.7331936151235259	5694817.92906968
0.7333158140593796	5663592.692027213
0.7334380333617229	5632362.250778525
0.7335602730339499	5601126.604456281
0.7336825330794556	5569885.752192977
0.7338048135016354	5538639.693121023
0.7339271143038857	5505110.084290774
0.734049435489603	5463940.878949748
0.7341717770621846	5422764.812074492
0.7342941390250283	5381581.882521444
0.7344165213815324	5340392.08914682
0.734538924135096	5299195.430806573
0.7346613472891185	5257991.906356656
0.734783790847	5216781.51465265
0.7349062548121412	5172261.898939924
0.7350287391879431	5121897.814879918
0.7351512439778078	5071525.336805799
0.7352737691851374	5021144.463318728
0.735396314813335	4970755.193019364
0.7355188808658037	4920357.524508368
0.7356414673459482	4869951.45638585
0.7357640742571725	4819536.987252013
0.7358867016028818	4782674.453779874
0.7360093493864824	4759197.833275333
0.7361320176113801	4735717.30000074
0.736254706280982	4712232.853303934
0.7363774153986956	4688744.492532648
0.7365001449679286	4665252.217034616
0.7366228949920899	4641756.026157314
0.7367456654745885	4618255.919248199
0.7368684564188344	4593174.593205661
0.7369912678282374	4567197.628838804
0.7371140997062088	4541216.3349778745
0.7372369520561599	4515230.710901277
0.7373598248815024	4489240.755887393
0.7374827181856494	4463246.469214295
0.7376056319720137	4437247.850160084
0.7377285662440091	4411244.8980026925
0.7378515210050496	4383616.398606385
0.7379744962585505	4355495.520663692
0.738097492007927	4327369.955908015
0.7382205082565949	4299239.703558231
0.738343545007971	4271104.762833059
0.7384666022654723	4242965.132951072
0.7385896800325165	4214820.813130815
0.7387127783125219	4186671.802590551
0.7388358971089073	4169345.8911892
0.7389590364250921	4153103.146412493
0.7390821962644963	4136857.6945116445
0.7392053766305403	4120609.5350355026
0.7393285775266454	4104358.66753277
0.7394517989562333	4088105.0915521043
0.7395750409227259	4071848.8066421347
0.7396983034295463	4055345.912652916
0.739821586480118	4033414.537877672
0.7399448900778645	4011479.5078733424
0.7400682142262109	3989540.822030612
0.740191558928582	3967598.4797402644
0.7403149241884034	3945652.480392886
0.7404383100091014	3923702.823378944
0.7405617163941028	3901749.5080888467
0.7406851433468352	3877646.3440724066
0.7408085908707264	3843720.8604810685
0.7409320589692048	3809789.7226424813
0.7410555476456997	3775852.929614227
0.7411790569036406	3741910.480453826
0.7413025867464579	3707962.374218555
0.7414261371775823	3674008.609965569
0.7415497082004452	3640049.1867519002
0.7416732998184786	3607451.8759826804
0.741796912035115	3577783.2733096364
0.7419205448537874	3548109.7258694875
0.7420441982779297	3518431.2328380994
0.742167872310976	3488747.7933911784
0.7422915669563612	3459059.406704351
0.7424152822175206	3429366.071953083
0.7425390180978901	3399667.7883127085
0.7426627746009065	3371762.7709711813
0.7427865517300065	3346045.256880179
0.7429103494886282	3320323.4565368015
0.7430341678802096	3294597.36922672
0.7431580069081896	3268866.9942354215
0.7432818665760077	3243132.3308482547
0.7434057468871037	3217393.3783505457
0.7435296478449182	3191650.1360274344
0.7436535694528923	3165386.493760676
0.7437775117144678	3138765.1815029983
0.7439014746330868	3112139.432359984
0.7440254582121922	3085509.24559209
0.7441494624552276	3058874.6204597238
0.7442734873656368	3032235.5562231746
0.7443975329468645	3005592.0521425647
0.7445215992023557	2978944.1074779443
0.7446456861355559	2952063.8537596674
0.7447697937499119	2925095.179577799
0.7448939220488703	2898122.010616907
0.7450180710358784	2871144.346127878
0.7451422407143843	2844162.185361431
0.7452664310878367	2817175.5275681647
0.7453906421596846	2790184.371998628
0.7455148739333779	2763188.717903155
0.7456391264123667	2736835.9777944963
0.7457633996001021	2710582.3633631943
0.7458876935000356	2684324.37332944
0.7460120081156189	2658062.0069640637
0.7461363434503048	2631795.2635376146
0.7462606995075466	2605524.14232057
0.7463850762907978	2579248.6425833628
0.7465094738035127	2552971.323458684
0.7466338920491467	2527359.2705628998
0.746758331031155	2501742.948991608
0.7468827907529935	2476122.3580334173
0.7470072712181189	2450497.496976733
0.7471317724299886	2424868.3651098683
0.7472562943920602	2399234.9617210436
0.7473808371077922	2373597.2860982977
0.7475054005806435	2348000.18933011
0.7476299848140736	2322675.0958803655
0.7477545898115426	2297345.781581707
0.7478792155765113	2272012.245730659
0.7480038621124406	2246674.487623656
0.7481285294227926	2221332.5065569747
0.7482532175110298	2195986.301826755
0.7483779263806148	2170635.872729116
0.7485026560350116	2145649.357943211
0.7486274064776842	2121655.0341920024
0.748752177712097	2097656.7113868785
0.7488769697417158	2073654.388861236
0.749001782570006	2049648.0659485348
0.7491266162004343	2025637.741982022
0.7492514706364677	2001623.4162948371
0.7493763458815739	1977605.0882200138
0.7495012419392209	1953738.208681201
0.7496261588128773	1930090.8315158687
0.7497510965060128	1906439.513120992
0.7498760550220971	1882784.252839725
0.7500010343646007	1859125.0500150742
0.7501260345369949	1835461.9039899409
0.750251055542751	1811794.8141071633
0.7503760973853414	1788123.7797093908
0.7505011600682389	1764971.250048385
0.750626243594917	1742251.0953601724
0.7507513479688495	1719527.1539795466
0.7508764731935109	1696799.4252753493
0.7510016192723765	1674067.9086163624
0.7511267862089218	1651332.6033712868
0.7512519740066232	1628593.5089086622
0.7513771826689577	1605850.6245969476
0.7515024121994025	1584220.7821561045
0.7516276626014359	1563108.0647463424
0.751752933878536	1541991.8285503823
0.7518782260341824	1520872.072981716
0.7520035390718548	1499748.7974537786
0.7521288729950334	1478622.0013799309
0.7522542278071992	1457491.6841734026
0.7523796035118337	1436357.8452473297
0.7525050001124189	1415579.7473663846
0.7526304176124378	1394876.3182133518
0.7527558560153731	1374169.43848882
0.752881315324709	1353459.1076176476
0.7530067955439299	1332745.3250246556
0.7531322966765205	1312028.0901345925
0.7532578187259665	1291307.4023720415
0.7533833616957542	1270583.2611615309
0.75350892558937	1250555.9531370346
0.7536345104103016	1230558.236733876
0.7537601161620366	1210557.187377994
0.7538857428480638	1190552.8045138663
0.7540113904718717	1170545.087585954
0.7541370590369503	1150534.0360385582
0.7542627485467898	1130519.6493158918
0.7543884590048808	1110657.3649432864
0.7545141904147151	1092341.8163484233
0.7546399427797842	1074023.2151621568
0.7547657161035808	1055701.56087569
0.754891510389598	1037376.8529801765
0.7550173256413296	1019049.0909666729
0.7551431618622698	1000718.2743261714
0.7552690190559135	982384.4025495672
0.7553948972257561	964219.6842638873
0.7555207963752938	946629.9797618345
0.755646716508023	929037.3436423747
0.755772657627441	911441.7754168891
0.7558986197370455	893843.2745966965
0.756024602840335	876241.8406930383
0.7561506069408084	858637.4732170631
0.7562766320419653	841030.171679826
0.7564026781473054	823623.3624140238
0.75652874526033	806571.6289467962
0.7566548333845401	789517.0535239818
0.7567809425234375	772459.6356719364
0.7569070726805247	755399.3749169253
0.7570332238593047	738336.2707851242
0.7571593960632813	721270.3228026179
0.7572855892959586	704201.5304954471
0.7574118035608413	688070.4553341153
0.7575380388614347	672856.8741062352
0.7576642952012449	657640.757281478
0.7577905725837782	642422.104437272
0.7579168710125422	627200.9151508982
0.7580431904910444	611977.1889996375
0.7581695310227928	596750.9255607043
0.7582958926112967	581522.1244111788
0.7584222752600652	567001.7383527751
0.7585486789726085	552887.3477246419
0.7586751037524372	538770.6046980653
0.7588015496030628	524651.5088809567
0.7589280165279966	510530.0598812398
0.7590545045307512	496406.25730668963
0.7591810136148396	482280.10076504404
0.7593075437837755	468151.589863954
0.7594340950410726	454955.0002515746
0.7595606673902461	442027.2788550801
0.7596872608348112	429097.40283833985
0.7598138753782836	416165.37184227776
0.75994051102418	403231.1855077042
0.7600671677760173	390294.8434754184
0.7601938456373134	377356.34538611723
0.7603205446115863	364415.69088047516
0.7604472647023548	352454.2164214081
0.7605740059131385	340588.2931461729
0.7607007682474575	328720.3922170469
0.7608275517088319	316850.513304459
0.7609543563007835	304978.6560786927
0.7610811820268336	293104.8202100626
0.7612080288905045	281229.0053688105
0.7613348968953197	269389.97718157904
0.7614617860448022	258344.36765390701
0.7615886963424764	247296.9171912987
0.7617156277918667	236247.6254869573
0.7618425803964988	225196.49223398938
0.7619695541598982	214143.51712548226
0.7620965490855914	203088.6998544652
0.7622235651771058	192032.0401138902
0.7623506024379685	181350.7422245506
0.7624776608717082	172320.9931779408
0.7626047404818536	163289.73917315618
0.7627318412719337	154256.97995938626
0.762858963245479	145222.7152857417
0.7629861064060198	136186.9449013174
0.7631132707570876	127149.66855515295
0.7632404563022137	118110.88599627226
0.7633676630449308	109649.33174675815
0.7634948909887717	102418.30141899234
0.7636221401372697	95186.06591951464
0.7637494104939593	87952.62504744688
0.7638767020623748	80717.97860191089
0.7640040148460518	73482.12638195907
0.7641313488485262	66245.06818663751
0.7642587040733344	59006.80381494186
0.7643860805240132	52780.8970486943
0.7645134782041005	47763.438299615715
0.7646408971171346	42745.143307410195
0.764768337266654	37726.011932707814
0.7648957986561985	32706.04403610803
0.7650232812893079	27685.23947819281
0.7651507851695227	22663.598119517887
0.7652783103003843	17641.11982061714
0.7654058566854343	14496.905008740945
0.7655334243282153	12632.822330565106
0.7656610132322699	10768.428971945335
0.765788623401142	8903.724881097374
