#wavelength	surface flux
0.7	138245340.63590232
0.7001166666666666	137944975.6999079
0.7002333527777778	140988915.41084498
0.700350058336574	144033362.44506574
0.7004667833462966	147078316.8871216
0.7005835278101878	150123778.82159287
0.7007002917314895	153169748.33304828
0.7008170751134447	156216225.50608853
0.7009338779592968	159263210.42532286
0.7010507002722901	162157689.636915
0.7011675420556689	164866443.95818096
0.701284403312678	167575649.7384961
0.7014012840465635	170285307.0531118
0.7015181842605713	172995415.97727945
0.701635103957948	175705976.58626586
0.701752043141941	178416988.95535332
0.701869001815798	181128453.1598395
0.7019859799827672	182217746.81799862
0.7021029776460976	182177968.16120884
0.7022199948090387	182138182.87464288
0.7023370314748403	182098390.95719585
0.7024540876467528	182058592.4077626
0.702571163328027	182018787.22523782
0.7026882585219152	181978975.40851584
0.7028053732316688	181939156.95649114
0.7029225074605406	182397525.4474374
0.7030396612117841	183048345.7218724
0.7031568344886527	183699274.46635327
0.7032740272944008	184350311.69895777
0.7033912396322832	185001457.43776807
0.7035084715055552	185652711.7008675
0.7036257229174727	186304074.50634438
0.7037429938712924	186955545.87228945
0.7038602843702709	190434274.3155125
0.7039775944176659	194393087.62079808
0.7040949240167356	198352560.72830278
0.7042122731707383	202312693.74799
0.7043296418829335	206273486.7898494
0.7044470301565806	210234939.9638818
0.70456443799494	214197053.38010678
0.7046818654012724	218159827.1485702
0.7047993123788394	196848749.98621017
0.7049167789309024	175505117.35426033
0.7050342650607243	154157927.4501722
0.7051517707715678	132807179.68111007
0.7052692960666963	111452873.45409697
0.705386840949374	90095008.17605509
0.7055044054228656	68733583.25376543
0.7056219894904361	50236326.989865445
0.7057395931553511	49960099.69962752
0.705857216420877	49683826.37150766
0.7059748592902804	49407506.997833274
0.7060925217668288	49131141.57092967
0.70621020385379	48854730.08312162
0.7063279055544321	48578272.526732616
0.7064456268720246	48301768.8940838
0.7065633678098366	48193768.66368876
0.7066811283711383	48549938.809003234
0.7067989085592001	48906168.316008605
0.7069167083772933	49262457.19459824
0.7070345278286895	49618805.45466788
0.707152366916661	49975213.10611426
0.7072702256444803	50331680.15883548
0.7073881040154211	50688206.622732624
0.7075060020327569	51020314.58170495
0.7076239196997625	51316829.528975874
0.7077418570197124	51613393.89540438
0.7078598139958823	51910007.68922728
0.7079777906315483	52206670.91868277
0.7080957869299869	52503383.59200961
0.7082138028944751	52800145.71744851
0.7083318385282908	53096957.30324187
0.7084498938347124	52901615.91756549
0.708567968817018	52288942.68906031
0.7086860634784875	51676167.348349676
0.7088041778224007	51063289.878415085
0.7089223118520377	50450310.26223632
0.7090404655706796	49837228.48278855
0.709158638981608	49224044.52304348
0.709276832088105	48610758.365971684
0.7093950448934531	48365106.68643642
0.7095132774009353	48294791.66047079
0.7096315296138355	48224464.91533414
0.7097498015354378	48154126.44907332
0.7098680931690269	48083776.259734854
0.7099864045178884	48013414.34536475
0.7101047355853081	47943040.70400892
0.7102230863745722	47872655.33371292
0.7103414568889679	48035406.41893828
0.7104598471317828	48251161.39027207
0.7105782571063047	48466952.3207676
0.7106966868158224	48682779.2164182
0.710815136263625	48898642.08321802
0.7109336054530023	49114540.92716245
0.7110520943872445	49330475.754247464
0.7111706030696424	49546446.57047045
0.7112891315034873	49874640.1740766
0.7114076796920712	50208241.23156896
0.7115262476386865	50541897.88923758
0.7116448353466263	50875610.156348914
0.711763442819184	51209378.04217161
0.711882070059654	51543201.55597557
0.7120007170713306	51877080.70703163
0.7121193838575091	52155324.928444095
0.7122380704214853	51852777.06978488
0.7123567767665555	51550178.78648287
0.7124755028960166	51247530.0701335
0.7125942488131658	50944830.912331626
0.7127130145213015	50642081.30466928
0.7128318000237216	50339281.23873994
0.7129506053237256	50036430.70613251
0.7130694304246129	49752540.45211424
0.7131882753296837	49535071.17504236
0.7133071400422386	49317565.65309092
0.7134260245655789	49100023.880219296
0.7135449289030065	48882445.85038546
0.7136638530578235	48664831.557546765
0.7137827970333332	48447180.99565896
0.7139017608328388	48229494.15867754
0.7140207444596443	48192700.15242923
0.7141397479170543	48478659.59251459
0.7142587712083737	48764666.69250624
0.7143778143369084	49050721.46034811
0.7144968773059646	49336823.90398468
0.7146159601188489	49622974.031361766
0.7147350627788687	49909171.85042678
0.7148541852893318	50195417.369128175
0.7149733276535467	50489067.269320026
0.7150924898748222	50790184.41669485
0.715211671956468	51091351.750260964
0.7153308739017941	51392569.27838291
0.715450095714111	51693837.009426065
0.71556933739673	51995154.95175777
0.7156885989529628	52296523.113746494
0.7158078803861218	52597941.50376266
0.7159271816995193	52790216.15803816
0.7160465028964692	52918432.80888823
0.7161658439802853	53046670.8291801
0.7162852049542819	53174930.22247533
0.7164045858217744	53303210.992336184
0.716523986586078	53431513.1423253
0.7166434072505089	53559836.676006004
0.716762847818384	53688181.59694238
0.7168823082930204	53913893.7050552
0.7170017886777359	54168282.15087632
0.7171212889758488	54422712.99477158
0.7172408091906781	54677186.24380756
0.7173603493255433	54931701.9050518
0.7174799093837642	55186259.98557276
0.7175994893686615	55440860.49244059
0.7177190892835562	55695503.432726115
0.7178387091317702	56144591.961037576
0.7179583489166254	56613270.0837778
0.7180780086414448	57082026.319538854
0.7181976883095517	57550860.681339175
0.7183173879242699	58019773.18219985
0.718437107488924	58488763.83514411
0.7185568470068389	58957832.65319737
0.7186766064813399	59427221.06455805
0.7187963859157535	59902723.61864752
0.7189161853134061	60378305.42316265
0.719036004677625	60853966.491311915
0.7191558440117378	61329706.83630557
0.7192757033190732	61805526.4713574
0.7193955826029597	62281425.409681164
0.7195154818667269	62757403.66449506
0.7196354011137046	63140511.11427697
0.7197553403472235	63095723.380044706
0.7198752995706147	63050928.181190096
0.7199952787872098	63006125.51646897
0.720115278000341	62961315.384637065
0.7202352972133411	62916497.78444985
0.7203553364295432	62871672.71466267
0.7204753956522815	62826840.17403046
0.7205954748848902	62832734.42761075
0.7207155741307044	62950479.7590557
0.7208356933930594	63068244.71472234
0.7209558326752915	63186029.29788163
0.7210759919807375	63303833.51180494
0.7211961713127342	63421657.35976374
0.7213163706746197	63539500.84503073
0.7214365900697322	63657363.970878474
0.7215568295014103	64057724.72295744
0.721677088972994	64795196.02188389
0.7217973684878227	65532790.23269227
0.7219176680492374	66270507.37586999
0.7220379876605789	67008347.47190446
0.722158327325189	67746310.54128852
0.7222786870464099	68484396.60451712
0.7223990668275843	69222605.6820899
0.7225194666720555	69690775.59352174
0.7226398865831676	69967552.81795195
0.7227603265642646	70244376.1719189
0.722880786618692	70521245.6631121
0.7230012667497951	70798161.29922032
0.7231217669609201	71075123.08793458
0.7232422872554135	71352131.03694673
0.7233628276366229	71629185.15395086
0.7234833881078956	72181705.74526043
0.7236039686725803	72838884.88175902
0.7237245693340255	73496173.54811265
0.7238451900955812	74153571.76257856
0.7239658309605971	74811079.54341279
0.7240864919324239	75468696.90887801
0.7242071730144127	76126423.87723753
0.724327874209915	76784260.46675704
0.7244485955222832	77789306.79558481
0.7245693369548704	78851910.70117635
0.7246900985110294	79914691.70741725
0.7248108801941148	80977649.8438287
0.7249316820074803	82040785.13992596
0.7250525039544815	83104097.625241
0.7251733460384739	84167587.32930374
0.7252942082628137	85231193.72148463
0.7254150906308574	86259886.9034513
0.7255359931459625	87288751.53428173
0.7256569158114868	88317787.64255095
0.7257778586307888	89346995.25683872
0.7258988216072273	90376374.40572858
0.7260198047441617	91405925.11780877
0.7261408080449525	92435647.42167608
0.72626183151296	93370604.7823891
0.7263828751515454	93674810.03423125
0.7265039389640706	93979065.98694861
0.726625022953898	94283372.64899163
0.7267461271243904	94587730.0288118
0.7268672514789111	94892138.13486174
0.7269883960208241	95196596.97559576
0.7271095607534942	95501106.5594701
0.7272307456802866	95970195.70425129
0.7273519508045666	96883795.057328
0.7274731761297006	97797546.67696312
0.7275944216590555	98711450.58853482
0.7277156873959987	99625506.81742543
0.7278369733438982	100539715.38902235
0.727958279506122	101454076.32871208
0.7280796058860397	102368589.66189288
0.7282009524870207	103597997.64139615
0.7283223193124353	105293149.32625946
0.7284437063656539	106988583.53640012
0.7285651136500483	108684300.31891191
0.7286865411689898	110380299.72088395
0.7288079889258514	112076581.7894271
0.7289294569240056	113773146.57164444
0.7290509451668262	115469994.11466077
0.7291724536576875	117577396.2009674
0.7292939823999636	120025103.81852001
0.7294155313970303	122473219.38734712
0.7295371006522632	124921742.97543503
0.7296586901690385	127370674.65078571
0.7297802999507332	129820014.48141454
0.7299019300007252	132269762.5353548
0.7300235803223919	134719918.8806308
0.7301452509191123	137257246.77919888
0.7302669417942654	139835044.80537498
0.7303886529512311	142413272.4645562
0.7305103843933897	144991929.82834795
0.7306321361241218	147571016.968365
0.7307539081468093	150150533.95624334
0.7308757004648336	152730480.86361414
0.7309975130815778	155310857.76213923
0.7311193460004248	158256169.9288899
0.7312411992247582	161284492.30621618
0.7313630727579622	164313319.40393806
0.7314849666034219	167342651.3061792
0.7316068807645224	170372488.0970689
0.7317288152446498	173402829.86075845
0.7318507700471907	176433676.68141022
0.7319727451755319	179465028.6431976
0.732094740633061	183694043.37832972
0.7322167564231665	187977659.36120817
0.7323387925492371	192261989.28008395
0.7324608490146619	196547033.25394505
0.732582925822831	200832791.40180284
0.7327050229771347	205119263.84268034
0.7328271404809642	209406450.69563574
0.7329492783377112	213724742.84180278
0.7330714365507675	218342528.05710626
0.7331936151235259	222961082.90327784
0.7333158140593796	227580407.5085852
0.7334380333617229	232200502.00133383
0.7335602730339499	236821366.50983334
0.7336825330794556	241443001.1624186
0.7338048135016354	246065406.08743703
0.7339271143038857	249807807.55320463
0.734049435489603	250599636.37092692
0.7341717770621846	251391597.160119
0.7342941390250283	252183689.94277552
0.7344165213815324	252975914.7408955
0.734538924135096	253768271.576483
0.7346613472891185	254560760.4715421
0.734783790847	255353381.44808397
0.7349062548121412	255250449.59813076
0.7350287391879431	253564340.89867616
0.7351512439778078	251877951.18110153
0.7352737691851374	250191280.398576
0.735396314813335	248504328.5042519
0.7355188808658037	246817095.45128152
0.7356414673459482	245129581.19279885
0.7357640742571725	243441785.68194097
0.7358867016028818	244911381.27485588
0.7360093493864824	249499708.05836412
0.7361320176113801	254088799.56299672
0.736254706280982	258678655.91621348
0.7363774153986956	263269277.24549505
0.7365001449679286	267860663.67832208
0.7366228949920899	272452815.3422251
0.7367456654745885	277045732.3647386
0.7368684564188344	278930444.91939956
0.7369912678282374	279284418.8648673
0.7371140997062088	279638451.80599284
0.7372369520561599	279992543.75260884
0.7373598248815024	280346694.7145485
0.7374827181856494	280700904.7016491
0.7376056319720137	281055173.72374755
0.7377285662440091	281409501.7906831
0.7378515210050496	284118920.843597
0.7379744962585505	287537348.93092364
0.738097492007927	290956346.756264
0.7382205082565949	294375914.4145731
0.738343545007971	297796052.0008246
0.7384666022654723	301216759.6100105
0.7385896800325165	304638037.33712614
0.7387127783125219	308059885.27720064
0.7388358971089073	313154137.57295793
0.7389590364250921	318416928.0153511
0.7390821962644963	323680595.5894887
0.7392053766305403	328945140.44154763
0.7393285775266454	334210562.71775234
0.7394517989562333	339476862.5643415
0.7395750409227259	344744040.12756324
0.7396983034295463	350401948.97228503
0.739821586480118	364733380.2304818
0.7399448900778645	379067200.0605265
0.7400682142262109	393403408.86058646
0.740191558928582	407742007.02876455
0.7403149241884034	422082994.96329266
0.7404383100091014	436426373.06248015
0.7405617163941028	450772141.72467506
0.7406851433468352	461191013.46206653
0.7408085908707264	453636074.5563755
0.7409320589692048	446079876.49420387
0.7410555476456997	438522419.06568235
0.7411790569036406	430963702.06092834
0.7413025867464579	423403725.2700047
0.7414261371775823	415842488.4829471
0.7415497082004452	408279991.4897642
0.7416732998184786	403538579.0866818
0.741796912035115	404850862.16452855
0.7419205448537874	406163363.95622134
0.7420441982779297	407476084.4982127
0.742167872310976	408789023.82696223
0.7422915669563612	410102181.9789332
0.7424152822175206	411415558.9905958
0.7425390180978901	412729154.8984263
0.7426627746009065	412324423.82158524
0.7427865517300065	409824594.754272
0.7429103494886282	407324349.0487782
0.7430341678802096	404823686.63566875
0.7431580069081896	402322607.44549066
0.7432818665760077	399821111.4087773
0.7434057468871037	397319198.45605993
0.7435296478449182	394816868.5178518
0.7436535694528923	394141775.8302795
0.7437775117144678	394717656.0592784
0.7439014746330868	395293632.26831466
0.7440254582121922	395869704.47338617
0.7441494624552276	396445872.69049215
0.7442734873656368	397022136.93563414
0.7443975329468645	397598497.2248175
0.7445215992023557	398174953.574049
0.7446456861355559	396332205.9849914
0.7447697937499119	393597945.38321066
0.7448939220488703	390863229.0713303
0.7450180710358784	388128056.97340035
0.7451422407143843	385392429.0134538
0.7452664310878367	382656345.1155113
0.7453906421596846	379919805.2035888
0.7455148739333779	377182809.20168
0.7456391264123667	381058331.2164983
0.7457633996001021	385991877.1560767
0.7458876935000356	390926245.35332054
0.7460120081156189	395861435.9452545
0.7461363434503048	400797449.0689561
0.7462606995075466	405734284.86151606
0.7463850762907978	410671943.4600341
0.7465094738035127	415586443.5186615
0.7466338920491467	414228340.12075156
0.746758331031155	412870010.3722739
0.7468827907529935	411511454.23550653
0.7470072712181189	410152671.67271626
0.7471317724299886	408793662.6461653
0.7472562943920602	407434427.1181109
0.7473808371077922	406074965.05080056
0.7475054005806435	404743709.8830302
0.7476299848140736	403587371.9040502
0.7477545898115426	402430841.20207345
0.7478792155765113	401274117.74497944
0.7480038621124406	400117201.50064355
0.7481285294227926	398960092.4369338
0.7482532175110298	397802790.52171224
0.7483779263806148	396645295.7228397
0.7485026560350116	395806657.4896045
0.7486274064776842	395831374.95626444
0.748752177712097	395856096.5425021
0.7488769697417158	395880822.24900424
0.749001782570006	395905552.0764574
0.7491266162004343	395930286.02554846
0.7492514706364677	395955024.09696436
0.7493763458815739	395979766.2913922
0.7495012419392209	396283978.6181283
0.7496261588128773	396990007.3381518
0.7497510965060128	397696153.7296292
0.7498760550220971	398402417.8121716
0.7500010343646007	399108799.6053945
0.7501260345369949	399815299.12891656
0.750251055542751	400521916.4023585
0.7503760973853414	401228651.4453464
0.7505011600682389	400672952.961168
0.750626243594917	399062960.3809937
0.7507513479688495	397452699.4687252
0.7508764731935109	395842170.1796374
0.7510016192723765	394231372.469001
0.7511267862089218	392620306.292081
0.7512519740066232	391008971.6041309
0.7513771826689577	389397368.36039865
0.7515024121994025	388057844.6577531
0.7516276626014359	386845081.70990926
0.751752933878536	385632116.6349096
0.7518782260341824	384418949.39906365
0.7520035390718548	383205579.9686779
0.7521288729950334	381992008.3100543
0.7522542278071992	380778234.38948756
0.7523796035118337	379564258.1732668
0.7525050001124189	379717369.8446208
0.7526304176124378	380167862.07813245
0.7527558560153731	380618429.39368236
0.752881315324709	381069071.8037853
0.7530067955439299	381519789.3209568
0.7531322966765205	381970581.9577139
0.7532578187259665	382421449.7265772
0.7533833616957542	382872392.6400687
0.75350892558937	380135967.7000363
0.7536345104103016	377249204.0090046
0.7537601161620366	374361959.19069254
0.7538857428480638	371474233.164908
0.7540113904718717	368586025.8514562
0.7541370590369503	365697337.17011946
0.7542627485467898	362808167.04066736
0.7543884590048808	359970658.9045071
0.7545141904147151	357652658.95667326
0.7546399427797842	355334272.6755185
0.7547657161035808	353015499.9966499
0.754891510389598	350696340.8556683
0.7550173256413296	348376795.18816227
0.7551431618622698	346056862.9297122
0.7552690190559135	343736544.0158862
0.7553948972257561	340686288.47872734
0.7555207963752938	335186700.2019827
0.755646716508023	329686195.32719505
0.755772657627441	324184773.70159304
0.7558986197370455	318682435.172386
0.756024602840335	313179179.5867588
0.7561506069408084	307675006.7918673
0.7562766320419653	302169916.63483846
0.7564026781473054	296875313.7282574
0.75652874526033	291951844.3739725
0.7566548333845401	287027554.44145924
0.7567809425234375	282102443.793959
0.7569070726805247	277176512.29468703
0.7570332238593047	272249759.8068325
0.7571593960632813	267322186.19355863
0.7572855892959586	262393791.31801558
0.7574118035608413	256972693.3421837
0.7575380388614347	251069467.92904332
0.7576642952012449	245165258.64499855
0.7577905725837782	239260065.3260816
0.7579168710125422	233353887.80826765
0.7580431904910444	227446725.92753184
0.7581695310227928	221538579.51982337
0.7582958926112967	215629448.42103952
0.7584222752600652	203294824.25296232
0.7585486789726085	187267509.53127667
0.7586751037524372	171237523.59046465
0.7588015496030628	155204865.9852979
0.7589280165279966	139169536.27056196
0.7590545045307512	123131534.00087363
0.7591810136148396	107090858.73080733
0.7593075437837755	91047510.01483905
0.7594340950410726	88013416.20270225
0.7595606673902461	88754053.12139663
0.7596872608348112	89494813.4795782
0.7598138753782836	90235697.29781865
0.75994051102418	90976704.59669617
0.7600671677760173	91717835.39678958
0.7601938456373134	92459089.71868359
0.7603205446115863	93200467.58296415
0.7604472647023548	92570463.0143876
0.7605740059131385	91804025.91289638
0.7607007682474575	91037461.0718875
0.7608275517088319	90270768.47007349
0.7609543563007835	89503948.08615747
0.7610811820268336	88736999.8988446
0.7612080288905045	87969923.8868353
0.7613348968953197	87159401.97713351
0.7614617860448022	85459954.20803311
0.7615886963424764	83760223.19763556
0.7617156277918667	82060208.8987379
0.7618425803964988	80359911.26412237
0.7619695541598982	78659330.24656819
0.7620965490855914	76958465.79884566
0.7622235651771058	75257317.87371323
0.7623506024379685	73306814.44866815
0.7624776608717082	70264276.28372999
0.7626047404818536	67221231.02909751
0.7627318412719337	64177678.600261174
0.762858963245479	61133618.912684776
0.7629861064060198	58089051.88182685
0.7631132707570876	55043977.42312728
0.7632404563022137	51998395.45202066
0.7633676630449308	49064954.738277905
0.7634948909887717	46370817.12707058
0.7636221401372697	43676230.492931575
0.7637494104939593	40981194.761017665
0.7638767020623748	38285709.856485665
0.7640040148460518	35589775.7044665
0.7641313488485262	32893392.230088767
0.7642587040733344	30196559.35846224
0.7643860805240132	27578220.177333478
0.7645134782041005	25053647.46421608
0.7646408971171346	22528653.98897878
0.764768337266654	20003239.68149653
0.7648957986561985	17477404.471628882
0.7650232812893079	14951148.289226597
0.7651507851695227	12424471.064127216
0.7652783103003843	9897372.7261573
0.7654058566854343	8242487.985630404
