#wavelength	surface flux
0.8	59208.835807552605
0.8002000000000001	60240.92823794466
0.8004000500000003	61408.498174473745
0.8006001500125003	62577.72585340206
0.8008003000500035	63747.24583925019
0.8010005001250161	64917.05820509532
0.8012007502500472	66087.16302403023
0.8014010504376099	67182.08806333189
0.8016014007002193	68252.00591719995
0.8018018010503944	69322.19125053147
0.8020022515006572	70392.64413019679
0.8022027520635323	71463.36462308111
0.8024033027515483	72622.88052413033
0.8026039035772362	73869.4400274498
0.8028045545531306	75116.31117064517
0.8030052556917691	76363.49403162695
0.803206007005692	77610.98868832286
0.8034068085074435	78862.11916414413
0.8036076602095705	80122.87992928263
0.8038085621246229	81383.95588461144
0.8040095142651542	82645.34710892984
0.8042105166437206	83907.05368105392
0.8044115692728815	85170.77125803464
0.8046126721651998	86507.73457079244
0.8048138253332411	87845.03212437737
0.8050150287895745	89182.66400235193
0.805216282546772	90520.63028829562
0.8054175866174087	91858.9310658101
0.8056189410140631	93181.81422310128
0.8058203457493168	94500.56920821645
0.8060218008357541	95819.65388207622
0.8062233062859632	97139.0683271051
0.8064248621125346	98458.81262574435
0.806626468328063	99864.28296210617
0.8068281249451449	101343.4495866393
0.8070298319763813	102822.98600283037
0.8072315894343755	104302.89230312438
0.8074333973317341	105783.16857999403
0.8076352556810671	107177.78965359897
0.8078371644949874	108365.68218733463
0.8080391237861113	109553.87169420403
0.8082411335670578	110742.3582484494
0.8084431938504498	111931.14192433457
0.8086453046489125	113105.2920217276
0.8088474659750746	114001.75138689157
0.8090496778415686	114898.43486689802
0.809251940261029	115795.34251777384
0.8094542532460944	116692.47439556313
0.8096566168094059	117589.83055632086
0.8098590309636085	118699.48325902723
0.8100614957213493	119859.05060562825
0.8102640110952797	121018.90784406605
0.8104665770980536	122179.05504681394
0.8106691937423283	123339.49228636295
0.8108718610407639	124529.2342547244
0.8110745790060241	125741.45961524008
0.8112773476507757	126953.98803209694
0.8114801669876885	128166.8195810577
0.8116830370294355	129379.95433790499
0.8118859577886929	130445.98749821808
0.8120889292781401	131206.12078489823
0.8122919515104597	131966.4441049
0.8124950244983374	132726.9575057318
0.8126981482544621	133487.6610349137
0.8129013227915257	134315.35757862334
0.8131045481222237	135908.16376209
0.8133078242592543	137501.36814710268
0.8135111512153191	139094.9708332112
0.813714529003123	140688.97191999143
0.8139179576353739	142283.37150704363
0.8141214371247829	144952.72943243166
0.8143249674840641	147831.12990448397
0.814528548725935	150710.24997665256
0.8147321808631167	153590.0898288431
0.8149358639083326	156470.6496409958
0.8151395978743097	158949.3274346211
0.8153433827737784	161156.609987699
0.8155472186194719	163364.44436141432
0.8157511054241268	165572.83069372264
0.815955043200483	167781.7691226156
0.8161590319612831	170581.24402375013
0.8163630717192736	174462.49299296126
0.8165671624872033	178344.7122744104
0.8167713042778252	182227.90211068373
0.8169754971038948	186112.06274441804
0.8171797409781707	189469.0902702563
0.8173840359134155	188610.93808032872
0.8175883819223938	187752.57135235466
0.8177927790178745	186893.9900326981
0.8179972272126291	186035.1940677114
0.8182017265194322	185176.18340373432
0.8184062769510622	188552.15541529917
0.8186108785203001	192580.70562000238
0.8188155312399301	196610.2629622513
0.8190202351227402	200640.82769384029
0.819224990181521	204672.4000666096
0.8194297964290664	208392.7928138597
0.8196346538781738	211925.94518621216
0.8198395625416434	215459.9808466563
0.8200445224322789	218994.90001601705
0.820249533562887	222530.7029151691
0.8204545959462778	225846.0401194089
0.8206597095952644	228805.94987895037
0.8208648745226633	231766.59961593404
0.8210700907412941	234727.98951535148
0.8212753582639793	237690.11976224076
0.8214806771035456	240325.59981441466
0.8216860472728215	240944.61298160034
0.8218914687846397	241563.7809020778
0.822096941651836	242183.10361453574
0.822302465887249	242802.5811576714
0.8225080415037209	243422.21357019318
0.8227136685140968	244035.59808731373
0.8229193469312254	244648.40909854835
0.8231250767679583	245261.373312536
0.8233308580371503	245874.49076757682
0.8235366907516598	246487.76150198182
0.8237425749243477	250886.7851285516
0.8239485105680789	257293.34283412562
0.824154497695721	263701.50217912195
0.824360536320145	270111.2635639558
0.8245666264542252	276522.6273891355
0.8247727681108388	281366.7835783366
0.8249789613028664	283965.31893346587
0.8251852060431922	286564.5039224362
0.825391502344703	289164.33870765264
0.8255978502202894	291764.82345156773
0.8258042496828445	294626.65190610255
0.8260107007452654	298755.2725939184
0.8262172034204517	302884.9254369019
0.8264237577213068	307015.6106930973
0.8266303636607373	311147.32862060855
0.8268370212516525	315280.07947759965
0.8270437305069654	316857.54558775475
0.8272504914395923	318235.64643173805
0.8274573040624523	319614.09180093266
0.8276641683884679	320992.8817814684
0.8278710844305652	322372.0164595009
0.8280780522016729	325306.62522033753
0.8282850717147234	328952.8143561566
0.8284921429826521	332599.9150392559
0.8286992660183978	336247.92749752884
0.8289064408349024	339896.8519589138
0.8291136674451112	343036.55388425605
0.8293209458619727	345533.7863562162
0.8295282760984382	348031.64313629095
0.829735658167463	350530.1243805636
0.8299430920820048	353029.23024514416
0.8301505778550254	355548.6438213976
0.8303581154994891	358147.24760935
0.8305657050283641	360746.50104825204
0.8307733464546212	363346.40430051176
0.8309810397912352	365946.95752858877
0.8311887850511829	368548.1608949677
0.8313965822474458	374828.55311753374
0.8316044313930077	381281.2558710503
0.8318123325008561	387735.57180026127
0.8320202855839813	394191.5013084514
0.8322282906553774	400649.0447990191
0.8324363477280413	404690.50616521866
0.8326444568149735	407759.6218110427
0.8328526179291771	410829.5047357746
0.8330608310836596	413900.15513124235
0.8332690962914304	416971.57318930485
0.8334774135655034	418729.8972006287
0.833685782918895	419021.03390299017
0.8338942043646247	419312.2433895271
0.834102677915716	419603.5256784358
0.834311203585195	419894.88078791654
0.8345197813860912	421202.29871387465
0.8347284113314379	425929.9607706153
0.8349370934342709	430658.80474286753
0.8351458277076294	435388.83092610707
0.8353546141645565	440120.0396159003
0.8355634528180977	444852.43110786396
0.8357723436813022	447257.1219525595
0.8359812867672226	449633.65818974184
0.8361902820889144	452010.7885609823
0.8363993296594368	454388.5132148162
0.8366084294918518	456766.83229981444
0.8368175815992247	462350.7609286495
0.8370267859946247	469039.92561246926
0.8372360426911234	475730.76258745784
0.8374453517017962	482423.2722716895
0.8376547130397217	489117.4550833414
0.8378641267179816	494740.98439982056
0.8380735927496613	499301.8924217528
0.8382831111478488	503863.9406706878
0.8384926819256358	508427.12943168264
0.8387023050961173	512991.45898987167
0.8389119806723914	517226.2474644
0.8391217086675596	520531.4469669996
0.8393314890947265	523837.4727694723
0.8395413219670003	527144.325078396
0.8397512072974922	530452.0041003991
0.8399611450993165	533770.2208158555
0.8401711353855914	537571.500637064
0.8403811781694378	541373.7307782267
0.8405912734639802	545176.9114769258
0.8408014212823464	548981.0429708012
0.8410116216376671	552786.1254975497
0.8412218745430766	556250.5990902652
0.8414321800117124	559616.5579621729
0.8416425380567154	562983.3583238001
0.8418529486912297	566351.0003855185
0.8420634119284025	569719.4843577496
0.8422739277813847	578263.4621383521
0.8424844962633302	591368.644845778
0.842695117387396	604477.1038488641
0.8429057911667428	617588.8399667015
0.8431165176145345	630703.8540185746
0.8433272967439382	639851.9733749686
0.8435381285681244	639318.0257894142
0.8437490131002665	638783.9447169635
0.8439599503535415	638249.7301242449
0.84417094034113	637715.3819778778
0.8443819830762154	637498.9768236395
0.8445930785719846	643690.1974469064
0.8448042268416277	649882.9658753256
0.8450154278983382	656077.2824958512
0.8452266817553128	662273.1476955315
0.8454379884257517	668470.5618615124
0.8456493479228583	677963.7599770348
0.845860760259839	688252.6226743815
0.846072225449904	698544.0575874023
0.8462837435062666	708838.0653591537
0.8464953144421433	719134.6466328539
0.8467069382707537	727229.9749774829
0.8469186150053215	733609.5116331904
0.847130344659073	739990.6431730636
0.8473421272452377	746373.3699958154
0.8475539627770492	752757.6925002795
0.8477658512677435	758777.3997604919
0.8479777927305605	764021.010422623
0.8481897871787432	769265.9319874184
0.848401834625538	774512.164782608
0.8486139350841944	779759.709135993
0.8488260885679657	784465.9600110353
0.8490382950901076	782559.2206820856
0.8492505546638802	780652.0046683027
0.8494628673025462	778744.311850517
0.8496752330193721	776836.1421095241
0.8498876518276269	774927.4953260985
0.8501001237405839	745142.3244028959
0.8503126487715191	709785.1586276155
0.850525226933712	674419.1535609111
0.8507378582404455	639044.3069929403
0.8509505427050057	603660.6167133069
0.8511632803406821	575632.5097156044
0.8513760711607672	552640.6811457197
0.8515889151785576	529643.1046186568
0.8518018124073523	506639.77869748144
0.8520147628604541	483630.7019448394
0.8522277665511693	477809.71396211983
0.8524408234928071	503785.2013942959
0.8526539336986805	529767.1826983371
0.8528670971821053	555755.6594977059
0.8530803139564007	581750.6334162438
0.8532935840348901	611130.5504685531
0.8535069074308987	669050.5017639778
0.8537202841577566	726984.9330472751
0.8539337142287962	784933.8479383998
0.8541471976573534	842897.2500582108
0.8543607344567677	900875.1430285624
0.8545743246403821	923515.1321112225
0.8547879682215422	940546.4162737037
0.8550016652135977	957581.9582572234
0.8552154156299011	974621.7591262398
0.8554292194838088	991665.8199454859
0.8556430767886797	1004647.803976613
0.855856987557877	1015164.0605879312
0.8560709518047664	1025682.9462633955
0.8562849695427177	1036204.4616602826
0.8564990407851035	1046728.6074360219
0.8567131655452999	1056475.9238859108
0.8569273438366862	1064948.505348478
0.8571415756726455	1073423.2049564125
0.8573558610665638	1081900.0232392522
0.8575702000318304	1090378.9607266532
0.8577845925818384	1098999.3969372602
0.857999038729984	1108492.6007688097
0.8582135384896665	1117988.177901315
0.858428091874289	1127486.128928104
0.8586426988972576	1136986.454442647
0.8588573595719821	1146489.155038572
0.8590720739118751	1155289.8299510381
0.8592868419303532	1164009.6540073107
0.8595016636408359	1172731.6580195976
0.8597165390567462	1181455.8425328846
0.8599314681915105	1190182.208092302
0.8601464510585584	1197449.0377940745
0.860361487671323	1203941.8147850782
0.8605765780432408	1210436.2149703277
0.8607917221877518	1216932.238755629
0.8610069201182988	1223429.8865468747
0.8612221718483286	1228836.599439716
0.8614374773912907	1232669.5919087296
0.8616528367606385	1236503.5426258596
0.8618682499698288	1240338.4518306712
0.8620837170323213	1244174.3197627831
0.8622992379615795	1249067.3886089798
0.8625148127710699	1259188.6174526818
0.8627304414742627	1269312.3766035954
0.8629461240846313	1279438.6666942986
0.8631618606156526	1289567.488357525
0.8633776510808066	1299698.8422261658
0.8635934954935769	1310277.647394136
0.8638093938674504	1320895.568034328
0.8640253462159173	1331516.1431546798
0.8642413525524714	1342139.3734188115
0.8644574128906095	1352765.259490507
0.8646735272438323	1362729.3310774544
0.8648896956256433	1372386.8962760153
0.8651059180495498	1382046.8758658767
0.8653221945290621	1391709.2704506258
0.8655385250776946	1401374.080634035
0.8657549097089641	1411960.0440053572
0.8659713484363913	1423724.8391704955
0.8661878412735006	1435492.5755344303
0.866404388233819	1447263.2538324548
0.8666209893308775	1459036.8748000483
0.8668376445782103	1470236.5707651472
0.8670543539893549	1479084.573840494
0.8672711175778525	1487934.788916616
0.8674879353572469	1496787.2165464968
0.8677048073410862	1505641.8572832888
0.8679217335429217	1514498.7116802703
0.8681387139763074	1526368.348058286
0.8683557486548015	1538390.5091819877
0.8685728375919655	1550415.6758459853
0.8687899808013633	1562443.8488016226
0.8690071782965637	1574475.0288005143
0.869224430091138	1586308.3184867692
0.8694417361986609	1598062.8213094072
0.8696590966327107	1609820.2627577484
0.869876511406869	1621580.6435664522
0.8700939805347206	1633343.9644703525
0.8703115040298544	1645322.5599654752
0.870529081905862	1657546.9090241645
0.8707467141763385	1669774.3141701145
0.8709644008548827	1682004.7761673501
0.8711821419550964	1694238.2957800776
0.8713999374905854	1706245.8126215346
0.871617787474958	1717465.7618341115
0.8718356919218269	1728688.5160340017
0.8720536508448075	1739914.0759224426
0.8722716642575187	1751142.442200849
0.8724897321735832	1762373.6155708302
0.8727078546066265	1772981.2660672625
0.8729260315702784	1783582.0399322833
0.873144263078171	1794185.4639907593
0.8733625491439405	1804791.5389052508
0.8735808897812266	1815400.2653384751
0.8737992850036719	1825548.3638584386
0.874017734824923	1835534.9132110497
0.8742362392586293	1845523.959200995
0.874454798318444	1855515.5024524373
0.8746734120180236	1865509.5435896916
0.8748920803710283	1876459.6036316392
0.875110803391121	1888370.5983271257
0.8753295810919689	1900284.5707712926
0.875548413487242	1912201.5217085704
0.8757673005906139	1924121.4518835833
0.8759862424157616	1936629.153533026
0.8762052389763657	1950832.1038875668
0.8764242902861098	1965038.6049796862
0.8766433963586814	1979248.6576970827
0.8768625572077712	1993462.2629276628
0.8770817728470732	2007637.161290938
0.8773010432902849	2018516.028238221
0.8775203685511077	2029397.6149022568
0.8777397486432454	2040281.9219629448
0.8779591835804065	2051168.9501004112
0.8781786733763015	2062058.6999948975
0.8783982180446457	2071321.525235961
0.878617817599157	2080101.876634232
0.8788374720535569	2088884.4231203485
0.8790571814215703	2097669.1652430845
0.8792769457169257	2106456.103551351
0.879496764953355	2114046.6134884115
0.8797166391445934	2120561.378355741
0.8799365683043796	2127077.7719142875
0.8801565524464557	2133595.794571223
0.8803765915845676	2140115.4467338296
0.8805966857324639	2146505.717174388
0.880816834903897	2152568.5232308987
0.881037039112623	2158632.844988926
0.8812572983724012	2164698.6828273917
0.8814776126969944	2170766.03712532
0.8816979821001687	2176529.6027741395
0.8819184065956938	2175107.666745643
0.8821388861973429	2173685.3752331384
0.8823594209188923	2172262.728147757
0.882580010774122	2170839.7254006043
0.8828006557768155	2169416.3669027644
0.8830213559407598	2175967.578445308
0.8832421112797452	2184526.2026007744
0.8834629218075651	2193086.9664122746
0.8836837875380171	2201649.87041473
0.8839047084849018	2210214.9151431876
0.884125684662023	2227138.4311345704
0.8843467160831886	2250762.7092752014
0.8845678027622095	2274392.8934853673
0.8847889447129001	2298028.9852415905
0.8850101419490785	2321670.9860207485
0.8852313944845657	2340273.8542817202
0.885452702333187	2347838.3928704625
0.8856740655087704	2355404.8225938505
0.8858954840251476	2362973.1439246675
0.8861169578961539	2370543.357335814
0.886338487135628	2376381.150530009
0.886560071757412	2359141.197574441
0.8867817117753515	2341896.9346306343
0.8870034072032955	2324648.360621084
0.8872251580550963	2307395.4744680515
0.8874469643446101	2290138.27509347
0.8876688260856963	2299412.6507585063
0.8878907432922178	2314181.2873935425
0.8881127159780409	2328953.6161877275
0.8883347441570356	2343729.6380641293
0.8885568278430749	2358509.353945985
0.8887789670500358	2369661.2951084087
0.8890011617917983	2378239.9553962993
0.8892234120822464	2386820.760349266
0.8894457179352669	2395403.710503464
0.8896680793647509	2403988.8063952075
0.8898904963845921	2405071.926624924
0.8901129690086883	2391837.2554506054
0.8903354972509405	2378599.2756084963
0.8905580811252535	2365357.9862714163
0.8907807206455347	2352113.38661202
0.8910034158256963	2335722.6114432537
0.8912261666796527	2291240.0733605563
0.8914489732213227	2246746.414643326
0.8916718354646282	2202241.632511372
0.8918947534234944	2157725.7241839287
0.8921177271118502	2113198.686879431
0.8923407565436284	1989271.4986806975
0.8925638417327644	1852362.8209750582
0.8927869826931977	1715419.916099947
0.8930101794388711	1578442.7754986258
0.8932334319837308	1441431.3906121762
0.8934567403417267	1355867.8213666594
0.8936801045268123	1302272.906579699
0.8939035245529441	1248664.5930640781
0.8941270004340824	1195042.8774700575
0.894350532184191	1141407.7564471518
0.8945741198172371	1151431.6273542389
0.8947977633471915	1267051.0857261424
0.8950214627880284	1382699.4489626344
0.8952452181537254	1498376.7242898666
0.8954690294582639	1614082.918936
0.8956928967156286	1729160.1063673664
0.8959168199398075	1839996.3073455277
0.8961407991447926	1950860.2173739618
0.8963648343445789	2061751.8433798999
0.896588925553165	2172671.1922922772
0.8968130727845534	2283618.2710418967
0.8970372760527496	2326317.5267771524
0.8972615353717629	2360484.8098537005
0.8974858507556059	2394660.634751022
0.8977102222182949	2428845.003604558
0.8979346497738496	2463037.9185503265
0.8981591334362931	2546860.2946192566
0.8983836732196523	2657840.1367806373
0.8986082691379572	2768847.7239024853
0.8988329212052417	2879883.0629211147
0.8990576294355432	2990946.160774594
0.8992823938429022	3064379.643420555
0.8995072144413631	3081839.7444371087
0.8997320912449734	3099304.2104789102
0.8999570242677847	3116773.042637218
0.9001820135238516	3134246.2420035666
0.9004070590272328	3147736.4511642056
0.9006321607919896	3140326.9392509684
0.9008573188321878	3132915.5749597456
0.9010825331618959	3125502.3578274534
0.9013078037951865	3118087.287390877
0.9015331307461353	3110670.363186695
0.9017585140288219	3189255.430546336
0.9019839536573292	3275267.878332843
0.9022094496457435	3361301.8292312347
0.9024350020081551	3447357.2886174484
0.9026606107586572	3533434.2618684806
0.902886275911347	3597233.23446308
0.9031119974803249	3650298.2360189906
0.9033377754796951	3703376.503825291
0.903563609923565	3756468.0411985195
0.903789500826046	3809572.851456127
0.9040154482012526	3845805.7002616995
0.904241452063303	3860174.2562274695
0.9044675124263188	3874546.404332228
0.9046936293044254	3888922.14547401
0.9049198027117517	3903301.480551085
0.9051460326624297	3918143.2274155123
0.9053723191705955	3934942.434042363
0.9055986622503881	3951745.8404708547
0.9058250619159507	3968553.447750954
0.9060515181814298	3985365.2569328835
0.9062780310609752	4002181.2690670975
0.9065046005687405	3926657.010611666
0.906731226718883	3845962.245872107
0.9069579095255627	3765247.3074414684
0.907184649002944	3684512.190276216
0.907411445165195	3603756.8893315904
0.9076382980264862	3664251.9294773936
0.907865207600993	3783431.4828118645
0.9080921739028933	3902640.8310346343
0.9083191969463691	4021879.98159444
0.9085462767456058	4141148.9419419444
0.9087734133147922	4201227.576830972
0.9090006066681211	4192921.232514398
0.909227856819788	4184612.8116117558
0.9094551637839932	4176302.3136038766
0.9096825275749393	4167989.7379714977
0.9099099482068329	4150174.5794374743
0.9101374256938848	4098590.008469602
0.9103649600503083	4046992.541359012
0.9105925512903209	3995382.1748816543
0.9108201994281437	3943758.9058126234
0.9110479044780008	3892122.730926384
0.9112756664541204	4004692.2207170064
0.911503485370734	4121048.787081531
0.9117313612420768	4237434.442587648
0.9119592940823873	4353849.194507604
0.912187283905908	4470293.050115578
0.9124153307268845	4461051.706609252
0.9126434345595664	4406181.106407363
0.9128715954182063	4351296.788555476
0.9130998133170609	4296398.749624098
0.9133280882703902	4241486.9861829905
0.913556420292458	4237420.484812421
0.9137848093975312	4285804.594168466
0.9140132555998806	4334200.799551844
0.9142417589137806	4382609.10398657
