#wavelength	surface flux
0.8	461771.52307712723
0.8002000000000001	470800.01393004175
0.8004000500000003	480251.8916189095
0.8006001500125003	489710.38610194327
0.8008003000500035	499171.2452085985
0.8010005001250161	508634.4695300348
0.8012007502500472	518100.0596575377
0.8014010504376099	527590.0981305415
0.8016014007002193	537089.9058910946
0.8018018010503944	546592.0886035876
0.8020022515006572	556096.6468617632
0.8022027520635323	565603.581259495
0.8024033027515483	575641.151027577
0.8026039035772362	586198.903064323
0.8028045545531306	596759.2945390787
0.8030052556917691	607322.3261117083
0.803206007005692	617887.9984422217
0.8034068085074435	628493.5729267302
0.8036076602095705	639206.2461131901
0.8038085621246229	649921.5974679382
0.8040095142651542	660639.6276605317
0.8042105166437206	671360.3373606696
0.8044115692728815	682093.0054671731
0.8046126721651998	693227.4297146668
0.8048138253332411	704364.6375682136
0.8050150287895745	715504.6297237341
0.805216282546772	726647.4068772905
0.8054175866174087	737792.9697251294
0.8056189410140631	749190.9945170414
0.8058203457493168	760662.5431903448
0.8060218008357541	772136.959750802
0.8062233062859632	783614.2449154049
0.8064248621125346	795094.3994012912
0.806626468328063	806972.8717909813
0.8068281249451449	819193.9556759427
0.8070298319763813	831418.0948318905
0.8072315894343755	843645.2900226181
0.8074333973317341	855875.542012148
0.8076352556810671	868003.5063369891
0.8078371644949874	879880.9190991782
0.8080391237861113	891761.3012145606
0.8082411335670578	903644.6534254646
0.8084431938504498	915530.9764744338
0.8086453046489125	927412.2204724009
0.8088474659750746	939146.5464414861
0.8090496778415686	950883.8059920792
0.809251940261029	962623.9998575517
0.8094542532460944	974367.1287715003
0.8096566168094059	986113.1934676642
0.8098590309636085	998670.3922364813
0.8100614957213493	1011419.8955422315
0.8102640110952797	1024172.5862238099
0.8104665770980536	1036928.4650780637
0.8106691937423283	1049687.5329020359
0.8108718610407639	1062813.9808850647
0.8110745790060241	1076222.1877579049
0.8112773476507757	1089633.7466824749
0.8114801669876885	1103048.6584967726
0.8116830370294355	1116466.924039016
0.8118859577886929	1129733.0077522742
0.8120889292781401	1142679.3520919925
0.8122919515104597	1155628.9330177952
0.8124950244983374	1168581.7513388298
0.8126981482544621	1181537.807864443
0.8129013227915257	1194657.1576005907
0.8131045481222237	1209612.4321928406
0.8133078242592543	1224571.4456037404
0.8135111512153191	1239534.1987679887
0.813714529003123	1254500.6926205298
0.8139179576353739	1269470.9280965368
0.8141214371247829	1287609.532539638
0.8143249674840641	1306366.3459228377
0.814528548725935	1325127.8485093722
0.8147321808631167	1343894.0414715784
0.8149358639083326	1362664.9259820196
0.8151395978743097	1380595.2210772936
0.8153433827737784	1397958.8906701033
0.8155472186194719	1415326.9011803048
0.8157511054241268	1432699.2536931306
0.815955043200483	1450075.9492940963
0.8161590319612831	1468441.9551089557
0.8163630717192736	1488617.3826311603
0.8165671624872033	1508797.8540102232
0.8167713042778252	1528983.3705071507
0.8169754971038948	1549173.9333832122
0.8171797409781707	1568347.0079264762
0.8173840359134155	1579361.6543731326
0.8175883819223938	1590379.054481388
0.8177927790178745	1601399.2089396769
0.8179972272126291	1612422.118436583
0.8182017265194322	1623447.7836608524
0.8184062769510622	1641614.3624329506
0.8186108785203001	1660883.939582266
0.8188155312399301	1680158.3341258422
0.8190202351227402	1699437.5472680763
0.819224990181521	1718721.5802135835
0.8194297964290664	1741725.3173230141
0.8196346538781738	1766973.9445993216
0.8198395625416434	1792228.8840324383
0.8200445224322789	1817490.1372004237
0.820249533562887	1842757.705681694
0.8204545959462778	1867151.8062130674
0.8206597095952644	1890136.0153174032
0.8208648745226633	1913125.970474033
0.8210700907412941	1936121.673119448
0.8212753582639793	1959123.124690501
0.8214806771035456	1981251.685709313
0.8216860472728215	1997972.2803429242
0.8218914687846397	2014697.0551251944
0.822096941651836	2031426.0111011688
0.822302465887249	2048159.1493161276
0.8225080415037209	2064896.470815649
0.8227136685140968	2082563.5680140855
0.8229193469312254	2100340.1559519307
0.8231250767679583	2118121.188036767
0.8233308580371503	2135906.665379614
0.8235366907516598	2153696.58909181
0.8237425749243477	2179595.3586797956
0.8239485105680789	2209796.0765800606
0.824154497695721	2240004.344659782
0.824360536320145	2270220.1648065285
0.8245666264542252	2300443.5389083107
0.8247727681108388	2328164.2419291455
0.8249789613028664	2352296.757713154
0.8251852060431922	2376435.306626129
0.825391502344703	2400579.8901763214
0.8255978502202894	2424730.5098724235
0.8258042496828445	2449071.059184098
0.8260107007452654	2474310.7778905206
0.8262172034204517	2499556.806526594
0.8264237577213068	2524809.146669833
0.8266303636607373	2550067.799898119
0.8268370212516525	2575332.7677896996
0.8270437305069654	2597224.6107250378
0.8272504914395923	2618857.8452549577
0.8274573040624523	2640496.4880935154
0.8276641683884679	2662140.5405927636
0.8278710844305652	2683790.0041051623
0.8280780522016729	2708208.373034604
0.8282850717147234	2733896.0341124586
0.8284921429826521	2759590.117105556
0.8286992660183978	2785290.6236194223
0.8289064408349024	2810997.555259899
0.8291136674451112	2836560.3796415217
0.8293209458619727	2861939.778908796
0.8295282760984382	2887325.5230258536
0.829735658167463	2912717.61357897
0.8299430920820048	2938116.052154692
0.8301505778550254	2963815.3019745043
0.8303581154994891	2990696.2592192157
0.8305657050283641	3017583.9367032656
0.8307733464546212	3044478.336106666
0.8309810397912352	3071379.4591099606
0.8311887850511829	3098287.307393953
0.8313965822474458	3131175.0664569098
0.8316044313930077	3164348.294517187
0.8318123325008561	3197529.81588451
0.8320202855839813	3230719.632632159
0.8322282906553774	3263917.746833998
0.8324363477280413	3293192.9523504516
0.8326444568149735	3320892.786110131
0.8328526179291771	3348599.5448282184
0.8330608310836596	3376313.2302360274
0.8332690962914304	3404033.844065151
0.8334774135655034	3429730.2669972205
0.833685782918895	3453164.285121043
0.8338942043646247	3476604.1617493825
0.834102677915716	3500049.898346896
0.834311203585195	3523501.4963785396
0.8345197813860912	3548879.316820385
0.8347284113314379	3580727.5914148223
0.8349370934342709	3612583.82807789
0.8351458277076294	3644448.028800085
0.8353546141645565	3676320.195572514
0.8355634528180977	3708200.3303866223
0.8357723436813022	3735859.2802151493
0.8359812867672226	3763472.9254926182
0.8361902820889144	3791093.4741813927
0.8363993296594368	3818720.9280073475
0.8366084294918518	3846355.288696768
0.8368175815992247	3881409.607419907
0.8370267859946247	3919025.820091684
0.8372360426911234	3956651.436816617
0.8374453517017962	3994286.4599457276
0.8376547130397217	4031930.8918306157
0.8378641267179816	4067047.8277772325
0.8380735927496613	4099656.271696851
0.8382831111478488	4132272.867727431
0.8384926819256358	4164897.6179070007
0.8387023050961173	4197530.524274144
0.8389119806723914	4230175.357223221
0.8391217086675596	4262838.956763904
0.8393314890947265	4295510.722204446
0.8395413219670003	4328190.655586353
0.8397512072974922	4360878.758951627
0.8399611450993165	4393573.075870688
0.8401711353855914	4426178.309348524
0.8403811781694378	4458791.694134719
0.8405912734639802	4491413.232267119
0.8408014212823464	4524042.925784068
0.8410116216376671	4556680.776724393
0.8412218745430766	4589521.6099688765
0.8414321800117124	4622427.33935055
0.8416425380567154	4655341.295164586
0.8418529486912297	4688263.479467582
0.8420634119284025	4721193.894316627
0.8422739277813847	4764384.715142746
0.8424844962633302	4816618.8962386055
0.842695117387396	4868866.135879671
0.8429057911667428	4921126.43733065
0.8431165176145345	4973399.803857016
0.8433272967439382	5018130.637869006
0.8435381285681244	5044442.448932444
0.8437490131002665	5070760.837948641
0.8439599503535415	5097085.806562076
0.84417094034113	5123417.356417684
0.8443819830762154	5150349.157262848
0.8445930785719846	5189247.185726193
0.8448042268416277	5228154.938696632
0.8450154278983382	5267072.41860531
0.8452266817553128	5305999.627883961
0.8454379884257517	5344936.568964938
0.8456493479228583	5389516.267382946
0.845860760259839	5435463.610388624
0.846072225449904	5481422.440230051
0.8462837435062666	5527392.759778949
0.8464953144421433	5573374.5719077615
0.8467069382707537	5613987.773138671
0.8469186150053215	5650417.500002091
0.847130344659073	5686856.334297237
0.8473421272452377	5723304.278300921
0.8475539627770492	5759761.334290643
0.8477658512677435	5792323.796860782
0.8479777927305605	5816605.390828923
0.8481897871787432	5840893.05519555
0.848401834625538	5865186.791478283
0.8486139350841944	5889486.601195071
0.8488260885679657	5909830.870560194
0.8490382950901076	5881889.54181531
0.8492505546638802	5853941.227738225
0.8494628673025462	5825985.926582631
0.8496752330193721	5798023.636601706
0.8498876518276269	5770054.356048324
0.8501001237405839	5524377.424221379
0.8503126487715191	5235182.198192768
0.850525226933712	4945914.673357809
0.8507378582404455	4656574.831641645
0.8509505427050057	4367162.654964885
0.8511632803406821	4139568.5452617165
0.8513760711607672	3954301.1415692447
0.8515889151785576	3768987.421025562
0.8518018124073523	3583627.372051899
0.8520147628604541	3398220.9830661016
0.8522277665511693	3348675.6669171406
0.8524408234928071	3550462.317848078
0.8526539336986805	3752299.4154418022
0.8528670971821053	3954186.9723099377
0.8530803139564007	4156125.001067052
0.8532935840348901	4383258.6669780845
0.8535069074308987	4822812.7796006
0.8537202841577566	5262476.780751639
0.8539337142287962	5702250.697903017
0.8541471976573534	6142134.558533406
0.8543607344567677	6582128.3901290335
0.8545743246403821	6756548.126688721
0.8547879682215422	6888817.7975181965
0.8550016652135977	7021120.535765362
0.8552154156299011	7153456.349697096
0.8554292194838088	7285825.2475824095
0.8556430767886797	7383924.260732964
0.855856987557877	7461219.937022583
0.8560709518047664	7538534.937231226
0.8562849695427177	7615869.26618995
0.8564990407851035	7693222.928730936
0.8567131655452999	7764628.343690675
0.8569273438366862	7826273.521192905
0.8571415756726455	7887934.10998952
0.8573558610665638	7949610.113933358
0.8575702000318304	8011301.536878115
0.8577845925818384	8072462.233625581
0.857999038729984	8130226.772358848
0.8582135384896665	8188005.752226785
0.858428091874289	8245799.1768396925
0.8586426988972576	8303607.049808738
0.8588573595719821	8361429.374746045
0.8590720739118751	8403300.113188684
0.8592868419303532	8443298.875248827
0.8595016636408359	8483307.636999486
0.8597165390567462	8523326.40094057
0.8599314681915105	8563355.169572648
0.8601464510585584	8570449.773025295
0.860361487671323	8560059.613406027
0.8605765780432408	8549666.856246857
0.8607917221877518	8539271.50089839
0.8610069201182988	8528873.546711085
0.8612221718483286	8494251.971794035
0.8614374773912907	8424703.861530697
0.8616528367606385	8355138.364239812
0.8618682499698288	8285555.47557456
0.8620837170323213	8215955.191187154
0.8622992379615795	8164793.673153141
0.8625148127710699	8204951.86147418
0.8627304414742627	8245120.089342302
0.8629461240846313	8285298.359267398
0.8631618606156526	8325486.673759978
0.8633776510808066	8365685.035331175
0.8635934954935769	8442670.715779364
0.8638093938674504	8522690.341927765
0.8640253462159173	8602729.972982697
0.8642413525524714	8682789.613945395
0.8644574128906095	8762869.269818313
0.8646735272438323	8854361.316946853
0.8648896956256433	8951174.005428635
0.8651059180495498	9048010.897082541
0.8653221945290621	9144871.997959267
0.8655385250776946	9241757.31411135
0.8657549097089641	9330993.964122944
0.8659713484363913	9410429.940640774
0.8661878412735006	9489885.776152767
0.866404388233819	9569361.47562363
0.8666209893308775	9648857.044019323
0.8668376445782103	9724782.167022418
0.8670543539893549	9786072.355713902
0.8672711175778525	9847377.866952602
0.8674879353572469	9908698.704569042
0.8677048073410862	9970034.872394908
0.8679217335429217	10031386.37426277
0.8681387139763074	10097562.29770234
0.8683557486548015	10163993.668148598
0.8685728375919655	10230441.64643755
0.8687899808013633	10296906.236720929
0.8690071782965637	10363387.443151964
0.869224430091138	10415918.940032057
0.8694417361986609	10462780.687824797
0.8696590966327107	10509654.151054474
0.869876511406869	10556539.332649961
0.8700939805347206	10603436.235540826
0.8703115040298544	10654192.028426195
0.870529081905862	10709358.933677131
0.8707467141763385	10764539.630654361
0.8709644008548827	10819734.122805834
0.8711821419550964	10874942.41358031
0.8713999374905854	10931773.412946261
0.871617787474958	10994171.514685906
0.8718356919218269	11056585.215951044
0.8720536508448075	11119014.520641502
0.8722716642575187	11181459.432658095
0.8724897321735832	11243919.955902722
0.8727078546066265	11317163.85534761
0.8729260315702784	11390589.878735775
0.873144263078171	11464034.25862971
0.8733625491439405	11537496.999618625
0.8735808897812266	11610978.106292816
0.8737992850036719	11676399.026189826
0.874017734824923	11738975.009242281
0.8742362392586293	11801566.636290474
0.874454798318444	11864173.911245426
0.8746734120180236	11926796.83801911
0.8748920803710283	11991455.450476969
0.875110803391121	12058160.165208055
0.8753295810919689	12124881.55611786
0.875548413487242	12191619.627375394
0.8757673005906139	12258374.383150745
0.8759862424157616	12332995.844517551
0.8762052389763657	12430350.35562081
0.8764242902861098	12527729.20535178
0.8766433963586814	12625132.399795206
0.8768625572077712	12722559.945037274
0.8770817728470732	12819682.536045289
0.8773010432902849	12891117.626353122
0.8775203685511077	12962570.575433636
0.8777397486432454	13034041.38775133
0.8779591835804065	13105530.067772191
0.8781786733763015	13177036.619962962
0.8783982180446457	13227953.192630911
0.878617817599157	13272752.042424517
0.8788374720535569	13317562.091930551
0.8790571814215703	13362383.34394895
0.8792769457169257	13407215.801280353
0.879496764953355	13472031.983694656
0.8797166391445934	13554820.974727755
0.8799365683043796	13637630.66300862
0.8801565524464557	13720461.053711552
0.8803765915845676	13803312.152012238
0.8805966857324639	13881554.627495667
0.880816834903897	13948189.160409324
0.881037039112623	14014840.351956237
0.8812572983724012	14081508.20630103
0.8814776126969944	14148192.727609439
0.8816979821001687	14213937.82442143
0.8819184065956938	14257192.705525745
0.8821388861973429	14300458.400350383
0.8823594209188923	14343734.911598682
0.882580010774122	14387022.241974777
0.8828006557768155	14430320.394183489
0.8830213559407598	14525250.601314219
0.8832421112797452	14633187.804430824
0.8834629218075651	14741151.991848143
0.8836837875380171	14849143.170312349
0.8839047084849018	14957161.346571188
0.884125684662023	15034419.98747771
0.8843467160831886	15087026.463211192
0.8845678027622095	15139646.090563606
0.8847889447129001	15192278.87282287
0.8850101419490785	15244924.813277688
0.8852313944845657	15326009.68433531
0.885452702333187	15469335.348769922
0.8856740655087704	15612696.84462062
0.8858954840251476	15756094.180845244
0.8861169578961539	15899527.366403857
0.886338487135628	16031313.522823637
0.886560071757412	16007663.68977801
0.8867817117753515	15984007.944274122
0.8870034072032955	15960346.284833847
0.8872251580550963	15936678.709978739
0.8874469643446101	15913005.218229903
0.8876688260856963	15981991.621706357
0.8878907432922178	16070173.649489604
0.8881127159780409	16158377.72277974
0.8883347441570356	16246603.847088303
0.8885568278430749	16334852.027927853
0.8887789670500358	16388434.646331588
0.8890011617917983	16417424.173788559
0.8892234120822464	16446420.948627409
0.8894457179352669	16475424.972659944
0.8896680793647509	16504436.24769851
0.8898904963845921	16515746.949127942
0.8901129690086883	16493273.47928709
0.8903354972509405	16470794.391078783
0.8905580811252535	16448309.683098407
0.8907807206455347	16425819.353941066
0.8910034158256963	16388635.26662592
0.8912261666796527	16220174.546372678
0.8914489732213227	16051671.710939325
0.8916718354646282	15883126.749796947
0.8918947534234944	15714539.652414449
0.8921177271118502	15545910.408257708
0.8923407565436284	14791868.558519958
0.8925638417327644	13942148.36123569
0.8927869826931977	13092215.73390182
0.8930101794388711	12242070.62341117
0.8932334319837308	11391712.976643033
0.8934567403417267	10841848.601758037
0.8936801045268123	10478700.05597064
0.8939035245529441	10115460.723047044
0.8941270004340824	9752130.580290075
0.894350532184191	9388709.60499751
0.8945741198172371	9445401.384259649
0.8947977633471915	10198964.89986746
0.8950214627880284	10952716.806354145
0.8952452181537254	11706657.150817003
0.8954690294582639	12460785.98036643
0.8956928967156286	13231501.503690856
0.8959168199398075	14108827.932979185
0.8961407991447926	14986373.693875061
0.8963648343445789	15864138.841211136
0.896588925553165	16742123.42983355
0.8968130727845534	17620327.514603235
0.8970372760527496	17925200.02585755
0.8972615353717629	18158385.95929998
0.8974858507556059	18391630.189225797
0.8977102222182949	18624932.73020903
0.8979346497738496	18858293.59682764
0.8981591334362931	19124881.186248384
0.8983836732196523	19409674.431096528
0.8986082691379572	19694538.8742557
0.8988329212052417	19979474.533525657
0.8990576294355432	20264481.42671068
0.8992823938429022	20487410.498757828
0.8995072144413631	20617987.529665973
0.8997320912449734	20748597.2048318
0.8999570242677847	20879239.53241639
0.9001820135238516	21009914.52058288
0.9004070590272328	21143422.52270063
0.9006321607919896	21291644.26675322
0.9008573188321878	21439903.066241972
0.9010825331618959	21588198.930430528
0.9013078037951865	21736531.868585154
0.9015331307461353	21884901.88997424
0.9017585140288219	22137145.578203287
0.9019839536573292	22398396.040645923
0.9022094496457435	22659711.815703984
0.9024350020081551	22921092.919706102
0.9026606107586572	23182539.36898414
0.902886275911347	23355732.298252687
0.9031119974803249	23486392.67724903
0.9033377754796951	23617085.721340124
0.903563609923565	23747811.438692182
0.903789500826046	23878569.83747367
0.9040154482012526	23979166.100956116
0.904241452063303	24040672.754300367
0.9044675124263188	24102194.784307938
0.9046936293044254	24163732.194823004
0.9049198027117517	24225284.98969073
0.9051460326624297	24296782.785650995
0.9053723191705955	24410581.05774734
0.9055986622503881	24524407.779411606
0.9058250619159507	24638262.957756296
0.9060515181814298	24752146.599895637
0.9062780310609752	24866058.71294544
0.9065046005687405	24907322.914742757
0.906731226718883	24944543.031701613
0.9069579095255627	24981772.453689657
0.907184649002944	25019011.183033206
0.907411445165195	25056259.222059123
0.9076382980264862	25241438.566731818
0.907865207600993	25488095.936233897
0.9080921739028933	25734814.970078282
0.9083191969463691	25981595.683681086
0.9085462767456058	26228438.092462413
0.9087734133147922	26386244.116340745
0.9090006066681211	26441180.187025
0.909227856819788	26496129.991726853
0.9094551637839932	26551093.533879958
0.9096825275749393	26606070.81691858
0.9099099482068329	26652350.85201526
0.9101374256938848	26667683.439574003
0.9103649600503083	26683019.860279627
0.9105925512903209	26698360.115090422
0.9108201994281437	26713704.20496494
0.9110479044780008	26729052.130861904
0.9112756664541204	27001277.35876738
0.911503485370734	27279450.43130862
0.9117313612420768	27557693.047117997
0.9119592940823873	27836005.22358124
0.912187283905908	28114386.97808869
0.9124153307268845	28170604.21956248
0.9126434345595664	28146177.523903612
0.9128715954182063	28121744.721570853
0.9130998133170609	28097305.8110375
0.9133280882703902	28072860.790776517
0.913556420292458	28134462.412364904
0.9137848093975312	28284826.90923835
0.9140132555998806	28435228.997235995
0.9142417589137806	28585668.685755648
