#wavelength	surface flux
0.8	1359067.7024690437
0.8002000000000001	1382469.2801654064
0.8004000500000003	1407042.4606540962
0.8006001500125003	1431633.5596849155
0.8008003000500035	1456230.8064904944
0.8010005001250161	1480834.202607786
0.8012007502500472	1505443.7495740715
0.8014010504376099	1529282.3376790322
0.8016014007002193	1552866.57690451
0.8018018010503944	1576456.712189794
0.8020022515006572	1600052.74500891
0.8022027520635323	1623654.6768362105
0.8024033027515483	1648585.9124582296
0.8026039035772362	1674820.2645577595
0.8028045545531306	1701061.1752453155
0.8030052556917691	1727308.6461605562
0.803206007005692	1753562.6789435025
0.8034068085074435	1779855.7534183308
0.8036076602095705	1806246.4422746808
0.8038085621246229	1832643.7288032242
0.8040095142651542	1859047.614653416
0.8042105166437206	1885458.1014750614
0.8044115692728815	1911876.9742093422
0.8046126721651998	1938379.15414703
0.8048138253332411	1964887.9596296814
0.8050150287895745	1991403.3923137279
0.805216282546772	2017925.4538559383
0.8054175866174087	2044454.1459135201
0.8056189410140631	2071186.8326525504
0.8058203457493168	2097982.068953817
0.8060218008357541	2124784.0040641245
0.8062233062859632	2151592.639658223
0.8064248621125346	2178407.9774112017
0.806626468328063	2206596.0160187813
0.8068281249451449	2235964.3278258694
0.8070298319763813	2265339.9817109457
0.8072315894343755	2294722.979509471
0.8074333973317341	2324113.323057457
0.8076352556810671	2351871.968581449
0.8078371644949874	2375692.097293526
0.8080391237861113	2399518.1810377873
0.8082411335670578	2423350.22130297
0.8084431938504498	2447188.219578244
0.8086453046489125	2470867.658046523
0.8088474659750746	2491489.9616370187
0.8090496778415686	2512117.42080344
0.809251940261029	2532750.036834637
0.8094542532460944	2553387.81101986
0.8096566168094059	2574030.744648606
0.8098590309636085	2598816.3921950455
0.8100614957213493	2624576.664260417
0.8102640110952797	2650343.376393809
0.8104665770980536	2676116.530205244
0.8106691937423283	2701896.127305142
0.8108718610407639	2728212.1786720315
0.8110745790060241	2754940.079396998
0.8112773476507757	2781674.662097169
0.8114801669876885	2808415.928443008
0.8116830370294355	2835163.880105418
0.8118859577886929	2860154.201457151
0.8120889292781401	2881486.206210227
0.8122919515104597	2902823.5439644903
0.8124950244983374	2924166.216053193
0.8126981482544621	2945514.2238099147
0.8129013227915257	2967760.8174310727
0.8131045481222237	3000240.808740317
0.8133078242592543	3032728.9200473917
0.8135111512153191	3065225.1533822846
0.813714529003123	3097729.510775515
0.8139179576353739	3130241.9942580992
0.8141214371247829	3177945.84499572
0.8143249674840641	3228605.9071434555
0.814528548725935	3279278.634306697
0.8147321808631167	3329964.029651799
0.8149358639083326	3380662.096345721
0.8151395978743097	3424371.7851746846
0.8153433827737784	3463362.196698058
0.8155472186194719	3502362.355824298
0.8157511054241268	3541372.2649903125
0.815955043200483	3580391.9266336453
0.8161590319612831	3623132.5817175223
0.8163630717192736	3672684.314181179
0.8165671624872033	3722248.434577896
0.8167713042778252	3771824.946004761
0.8169754971038948	3821413.851559507
0.8171797409781707	3862054.820406692
0.8173840359134155	3831172.828603037
0.8175883819223938	3800283.1163014667
0.8177927790178745	3769385.6815718035
0.8179972272126291	3738480.5224834494
0.8182017265194322	3707567.6371053546
0.8184062769510622	3727863.1542141237
0.8186108785203001	3756045.149681399
0.8188155312399301	3784234.1906475034
0.8190202351227402	3812430.2788738804
0.819224990181521	3840633.4161222964
0.8194297964290664	3922844.077533918
0.8196346538781738	4037623.981153606
0.8198395625416434	4152432.579749153
0.8200445224322789	4267269.880494397
0.820249533562887	4382135.890564795
0.8204545959462778	4475761.273515171
0.8206597095952644	4535177.628447611
0.8208648745226633	4594608.83746883
0.8210700907412941	4654054.904292295
0.8212753582639793	4713515.832632405
0.8214806771035456	4768000.097997165
0.8216860472728215	4791744.089265091
0.8218914687846397	4815494.016530836
0.822096941651836	4839249.881278409
0.822302465887249	4863011.684992155
0.8225080415037209	4886779.429156842
0.8227136685140968	4910526.59181317
0.8229193469312254	4934276.680294905
0.8231250767679583	4958032.706298769
0.8233308580371503	4981794.671309121
0.8235366907516598	5005562.576810743
0.8237425749243477	5069867.664849222
0.8239485105680789	5155671.099172262
0.824154497695721	5241495.984353826
0.824360536320145	5327342.3257567035
0.8245666264542252	5413210.128744927
0.8247727681108388	5485436.922292912
0.8249789613028664	5538114.534895014
0.8251852060431922	5590805.316900311
0.825391502344703	5643509.2716010865
0.8255978502202894	5696226.4022905845
0.8258042496828445	5749362.416707294
0.8260107007452654	5804482.0473341085
0.8262172034204517	5859615.457868522
0.8264237577213068	5914762.651755584
0.8266303636607373	5969923.632441143
0.8268370212516525	6025098.403371845
0.8270437305069654	6057577.568215481
0.8272504914395923	6088290.260849264
0.8274573040624523	6119010.631656215
0.8276641683884679	6149738.6825558385
0.8278710844305652	6180474.415468224
0.8280780522016729	6227079.328599025
0.8282850717147234	6280946.153537221
0.8284921429826521	6334826.445181596
0.8286992660183978	6388720.206898925
0.8289064408349024	6442627.442056646
0.8291136674451112	6492677.642798371
0.8293209458619727	6537859.835384648
0.8295282760984382	6583053.323519013
0.829735658167463	6628258.110025463
0.8299430920820048	6673474.197728481
0.8301505778550254	6719487.71143118
0.8303581154994891	6768650.371531527
0.8305657050283641	6817825.322296948
0.8307733464546212	6867012.566800022
0.8309810397912352	6916212.108114302
0.8311887850511829	6965423.949313814
0.8313965822474458	7046177.311250148
0.8316044313930077	7128414.299305558
0.8318123325008561	7210671.846608059
0.8320202855839813	7292949.958297345
0.8322282906553774	7375248.63951456
0.8324363477280413	7433712.070055788
0.8326444568149735	7482585.845330362
0.8328526179291771	7531471.839048698
0.8330608310836596	7580370.054265535
0.8332690962914304	7629280.494036114
0.8334774135655034	7665424.94317294
0.833685782918895	7687304.739016467
0.8338942043646247	7709190.004808942
0.834102677915716	7731080.741917879
0.834311203585195	7752976.951711077
0.8345197813860912	7783450.147571961
0.8347284113314379	7842783.472749043
0.8349370934342709	7902131.631257386
0.8351458277076294	7961494.626805283
0.8353546141645565	8020872.4631021675
0.8355634528180977	8080265.143858099
0.8357723436813022	8115245.875954242
0.8359812867672226	8149933.744532387
0.8361902820889144	8184630.2850776585
0.8363993296594368	8219335.499758077
0.8366084294918518	8254049.390742177
0.8368175815992247	8328804.491087602
0.8370267859946247	8417365.895026447
0.8372360426911234	8505949.43931625
0.8374453517017962	8594555.129492117
0.8376547130397217	8683182.971090516
0.8378641267179816	8756130.780659826
0.8380735927496613	8813516.173906542
0.8382831111478488	8870915.913501538
0.8384926819256358	8928330.003031401
0.8387023050961173	8985758.446083695
0.8389119806723914	9040890.26555038
0.8391217086675596	9089532.013155812
0.8393314890947265	9138185.92119811
0.8395413219670003	9186851.99271742
0.8397512072974922	9235530.230754646
0.8399611450993165	9284120.108791132
0.8401711353855914	9327729.872265188
0.8403811781694378	9371350.538180102
0.8405912734639802	9414982.109261505
0.8408014212823464	9458624.588235699
0.8410116216376671	9502277.97782963
0.8412218745430766	9546675.009049667
0.8414321800117124	9591296.335181573
0.8416425380567154	9635928.816645036
0.8418529486912297	9680572.456228873
0.8420634119284025	9725227.25672257
0.8422739277813847	9828945.117977941
0.8424844962633302	9984715.921443852
0.842695117387396	10140525.66761043
0.8429057911667428	10296374.366213555
0.8431165176145345	10452262.026991406
0.8433272967439382	10559523.649231942
0.8435381285681244	10548104.631569635
0.8437490131002665	10536682.759152913
0.8439599503535415	10525258.031268094
0.84417094034113	10513830.447201297
0.8443819830762154	10506394.248337407
0.8445930785719846	10579420.538963607
0.8448042268416277	10652465.086162422
0.8450154278983382	10725527.89449803
0.8452266817553128	10798608.968535714
0.8454379884257517	10871708.312841916
0.8456493479228583	10983104.679269994
0.845860760259839	11103746.87718713
0.846072225449904	11224419.235653743
0.8462837435062666	11345121.762209998
0.8464953144421433	11465854.464397963
0.8467069382707537	11558136.656664211
0.8469186150053215	11628242.093902303
0.847130344659073	11698365.057499725
0.8473421272452377	11768505.551837977
0.8475539627770492	11838663.581299884
0.8477658512677435	11900748.261526313
0.8479777927305605	11945668.526102617
0.8481897871787432	11990600.020745052
0.848401834625538	12035542.748261174
0.8486139350841944	12080496.711459149
0.8488260885679657	12116153.222802917
0.8490382950901076	12038349.01756859
0.8492505546638802	11960525.361282919
0.8494628673025462	11882682.2490832
0.8496752330193721	11804819.676105319
0.8498876518276269	11726937.637484299
0.8501001237405839	11164543.184468783
0.8503126487715191	10505294.832169063
0.850525226933712	9845881.667781634
0.8507378582404455	9186303.650103115
0.8509505427050057	8526560.73791979
0.8511632803406821	8010960.8193321
0.8513760711607672	7594056.507149004
0.8515889151785576	7177047.968887214
0.8518018124073523	6759935.178491208
0.8520147628604541	6342718.109897849
0.8522277665511693	6217522.222137624
0.8524408234928071	6632545.808845857
0.8526539336986805	7047673.151450879
0.8528670971821053	7462904.275891577
0.8530803139564007	7878239.208112897
0.8532935840348901	8348957.976294715
0.8535069074308987	9286662.291105742
0.8537202841577566	10224601.03199626
0.8539337142287962	11162774.257572103
0.8541471976573534	12101182.026453758
0.8543607344567677	13039824.397277802
0.8545743246403821	13375709.57778086
0.8547879682215422	13615916.731801322
0.8550016652135977	13856183.937610257
0.8552154156299011	14096511.21022066
0.8554292194838088	14336898.564649386
0.8556430767886797	14504546.073084662
0.855856987557877	14628033.290870024
0.8560709518047664	14751551.380459754
0.8562849695427177	14875100.349571928
0.8564990407851035	14998680.205926415
0.8567131655452999	15108884.932032622
0.8569273438366862	15197150.989612583
0.8571415756726455	15285439.113706956
0.8573558610665638	15373749.309832383
0.8575702000318304	15462081.583506746
0.8577845925818384	15551505.64206902
0.857999038729984	15647633.808291744
0.8582135384896665	15743786.006556002
0.858428091874289	15839962.242869833
0.8586426988972576	15936162.523242716
0.8588573595719821	16032386.853685725
0.8590720739118751	16071056.594566844
0.8592868419303532	16102947.308517314
0.8595016636408359	16134845.995146275
0.8597165390567462	16166752.65644688
0.8599314681915105	16198667.294412818
0.8601464510585584	16048290.490555914
0.860361487671323	15801112.832676224
0.8605765780432408	15553873.380382137
0.8607917221877518	15306572.118224774
0.8610069201182988	15059209.030751938
0.8612221718483286	14566204.478470337
0.8614374773912907	13719040.412685202
0.8616528367606385	12871664.555883853
0.8618682499698288	12024076.855117766
0.8620837170323213	11176277.257426629
0.8622992379615795	10473821.659022516
0.8625148127710699	10491491.074054118
0.8627304414742627	10509164.90643948
0.8629461240846313	10526843.157282941
0.8631618606156526	10544525.827689113
0.8633776510808066	10562212.918762885
0.8635934954935769	10859252.375797013
0.8638093938674504	11179264.748919146
0.8640253462159173	11499357.125134548
0.8642413525524714	11819529.524443999
0.8644574128906095	12139781.966853209
0.8646735272438323	12384705.804188572
0.8648896956256433	12594623.75230241
0.8651059180495498	12804594.179903287
0.8653221945290621	13014617.100110866
0.8655385250776946	13224692.52604879
0.8657549097089641	13451936.374958687
0.8659713484363913	13701149.154608708
0.8661878412735006	13950424.237453757
0.866404388233819	14199761.639069483
0.8666209893308775	14449161.375035496
0.8668376445782103	14655849.004705558
0.8670543539893549	14688004.03636343
0.8672711175778525	14720167.10677924
0.8674879353572469	14752338.217962619
0.8677048073410862	14784517.371923804
0.8679217335429217	14816704.570673501
0.8681387139763074	14963455.044324674
0.8683557486548015	15115933.017471205
0.8685728375919655	15268449.110111212
0.8687899808013633	15421003.331774045
0.8690071782965637	15573595.691992491
0.869224430091138	15580379.159149509
0.8694417361986609	15527819.345500458
0.8696590966327107	15475246.391898006
0.869876511406869	15422660.29505715
0.8700939805347206	15370061.05169211
0.8703115040298544	15354342.53104808
0.870529081905862	15380800.450077653
0.8707467141763385	15407264.983586976
0.8709644008548827	15433736.133229675
0.8711821419550964	15460213.900659768
0.8713999374905854	15487434.481714658
0.871617787474958	15517202.729470665
0.8718356919218269	15546978.419288637
0.8720536508448075	15576761.553029066
0.8722716642575187	15606552.132552912
0.8724897321735832	15636350.159721654
0.8727078546066265	15786536.27270747
0.8729260315702784	15938591.316595308
0.873144263078171	16090684.37424396
0.8733625491439405	16242815.455157034
0.8735808897812266	16394984.5688404
0.8737992850036719	16419699.3441563
0.874017734824923	16399264.59326936
0.8742362392586293	16378824.733694706
0.874454798318444	16358379.764155159
0.8746734120180236	16337929.68337323
0.8748920803710283	16343647.069863673
0.875110803391121	16375666.834492777
0.8753295810919689	16407694.604063055
0.875548413487242	16439730.380575724
0.8757673005906139	16471774.166032525
0.8759862424157616	16604110.016086277
0.8762052389763657	17026655.59201721
0.8764242902861098	17449306.804341838
0.8766433963586814	17872063.67946966
0.8768625572077712	18294926.243816394
0.8770817728470732	18713033.506942693
0.8773010432902849	18751709.365830537
0.8775203685511077	18790394.89368316
0.8777397486432454	18829090.0929177
0.8779591835804065	18867794.96595209
0.8781786733763015	18906509.51520469
0.8783982180446457	18713499.25306103
0.878617817599157	18451504.05901628
0.8788374720535569	18189443.36617314
0.8790571814215703	17927317.158156853
0.8792769457169257	17665125.41858856
0.879496764953355	17601653.62903801
0.8797166391445934	17716887.19066572
0.8799365683043796	17832149.560683843
0.8801565524464557	17947440.74629447
0.8803765915845676	18062760.754701607
0.8805966857324639	18165655.014825262
0.880816834903897	18237292.831590325
0.881037039112623	18308948.557809606
0.8812572983724012	18380622.197960436
0.8814776126969944	18452313.756521333
0.8816979821001687	18522238.14682823
0.8819184065956938	18550158.672247387
0.8821388861973429	18578086.17779793
0.8823594209188923	18606020.66522483
0.882580010774122	18633962.136273578
0.8828006557768155	18661910.592690103
0.8830213559407598	18863727.17347651
0.8832421112797452	19109322.049243167
0.8834629218075651	19354978.323728614
0.8836837875380171	19600696.01228276
0.8839047084849018	19846475.13025908
0.884125684662023	19875864.33176969
0.8843467160831886	19731802.758562785
0.8845678027622095	19587705.169962578
0.8847889447129001	19443571.556965195
0.8850101419490785	19299401.910564587
0.8852313944845657	19444952.60482415
0.885452702333187	20224780.870487656
0.8856740655087704	21004804.09321746
0.8858954840251476	21785022.321752734
0.8861169578961539	22565435.604844786
0.886338487135628	23253845.24523131
0.886560071757412	22715500.765799616
0.8867817117753515	22177021.700248074
0.8870034072032955	21638408.0149299
0.8872251580550963	21099659.67619103
0.8874469643446101	20560776.65036714
0.8876688260856963	20531834.591571305
0.8878907432922178	20608451.997849382
0.8881127159780409	20685088.55847898
0.8883347441570356	20761744.278248828
0.8885568278430749	20838419.16194854
0.8887789670500358	20732107.05986117
0.8890011617917983	20495948.63693712
0.8892234120822464	20259731.174407233
0.8894457179352669	20023454.657511905
0.8896680793647509	19787119.07148717
0.8898904963845921	19594462.88052493
0.8901129690086883	19485212.694691706
0.8903354972509405	19375935.196312048
0.8905580811252535	19266630.37855771
0.8907807206455347	19157298.234599084
0.8910034158256963	19044941.3783879
0.8912261666796527	18905768.963209007
0.8914489732213227	18766561.75492628
0.8916718354646282	18627319.74484135
0.8918947534234944	18488042.924254026
0.8921177271118502	18348731.284461647
0.8923407565436284	17651762.012220692
0.8925638417327644	16863655.05576408
0.8927869826931977	16075351.072568087
0.8930101794388711	15286850.013376348
0.8932334319837308	14498151.828919936
0.8934567403417267	13979258.436546214
0.8936801045268123	13628009.759791035
0.8939035245529441	13276673.270866903
0.8941270004340824	12925248.947820403
0.894350532184191	12573736.768693231
0.8945741198172371	12824026.763146304
0.8947977633471915	14072542.18503341
0.8950214627880284	15321369.73577594
0.8952452181537254	16570509.49340541
0.8954690294582639	17819961.53597504
0.8956928967156286	19027884.415258795
0.8959168199398075	19964572.674735546
0.8961407991447926	20901495.106277406
0.8963648343445789	21838651.768427122
0.896588925553165	22776042.71974185
0.8968130727845534	23713668.018794525
0.8970372760527496	23808358.31301909
0.8972615353717629	23797574.806607675
0.8974858507556059	23786788.604319654
0.8977102222182949	23775999.705481067
0.8979346497738496	23765208.109417763
0.8981591334362931	23983577.85088546
0.8983836732196523	24327326.607306298
0.8986082691379572	24671161.300916016
0.8988329212052417	25015081.95319914
0.8990576294355432	25359088.58564563
0.8992823938429022	25565506.526067633
0.8995072144413631	25567271.297242433
0.8997320912449734	25569036.509610027
0.8999570242677847	25570802.16328071
0.9001820135238516	25572568.258364815
0.9004070590272328	25632565.13818927
0.9006321607919896	25997840.342424706
0.9008573188321878	26363206.86546157
0.9010825331618959	26728664.730129015
0.9013078037951865	27094213.95926269
0.9015331307461353	27459854.575703453
0.9017585140288219	28137923.265672904
0.9019839536573292	28843063.839207005
0.9022094496457435	29548380.69788398
0.9024350020081551	30253873.88577642
0.9026606107586572	30959543.44696561
0.902886275911347	31245745.35552773
0.9031119974803249	31329721.16288933
0.9033377754796951	31413717.964202777
0.903563609923565	31497735.764716513
0.903789500826046	31581774.569680434
0.9040154482012526	31503575.656504128
0.904241452063303	31215165.179253288
0.9044675124263188	30926682.5993832
0.9046936293044254	30638127.898868192
0.9049198027117517	30349501.05967791
0.9051460326624297	30132132.457984187
0.9053723191705955	30218450.92668544
0.9055986622503881	30304790.975003794
0.9058250619159507	30391152.608334225
0.9060515181814298	30477535.832073048
0.9062780310609752	30563940.651617743
0.9065046005687405	30691775.325461652
0.906731226718883	30821952.00199002
0.9069579095255627	30952161.222687356
0.907184649002944	31082402.99568987
0.907411445165195	31212677.32913577
0.9076382980264862	31658087.391553946
0.907865207600993	32234470.565399226
0.9080921739028933	32810997.835037794
0.9083191969463691	33387669.23649368
0.9085462767456058	33964484.805800214
0.9087734133147922	34106629.01776845
0.9090006066681211	33746591.40292745
0.909227856819788	33386463.778683223
0.9094551637839932	33026246.122532435
0.9096825275749393	32665938.41196772
0.9099099482068329	32368900.218348652
0.9101374256938848	32296968.86043661
0.9103649600503083	32225019.519685123
0.9105925512903209	32153052.191598464
0.9108201994281437	32081066.87167971
0.9110479044780008	32009063.555431053
0.9112756664541204	32661087.694498938
0.911503485370734	33329848.112446718
0.9117313612420768	33998775.72049899
0.9119592940823873	34667870.560453065
0.912187283905908	35337132.67411734
0.9124153307268845	35326601.85628009
0.9126434345595664	35069282.580809996
0.9128715954182063	34811898.97552128
0.9130998133170609	34554451.024331115
0.9133280882703902	34296938.711153165
0.913556420292458	34187915.838888474
0.9137848093975312	34232071.45788797
0.9140132555998806	34276238.11579221
0.9142417589137806	34320415.81536092
