#wavelength	surface flux
0.7	17756770.344511732
0.7001166666666666	17828170.246386416
0.7002333527777778	17849544.78652474
0.700350058336574	17870922.889086403
0.7004667833462966	17892304.554665137
0.7005835278101878	17913689.783854857
0.7007002917314895	17935078.57724941
0.7008170751134447	17956470.935442857
0.7009338779592968	17977866.859029327
0.7010507002722901	17979129.58037301
0.7011675420556689	17955887.40398506
0.701284403312678	17932641.353901077
0.7014012840465635	17909391.429475382
0.7015181842605713	17886137.63006229
0.701635103957948	17862879.955015976
0.701752043141941	17839618.40369049
0.701869001815798	17816352.975439753
0.7019859799827672	17760010.362867847
0.7021029776460976	17680641.20064563
0.7022199948090387	17601258.810229607
0.7023370314748403	17521863.18941522
0.7024540876467528	17442454.335997373
0.702571163328027	17363032.247770756
0.7026882585219152	17283596.92252922
0.7028053732316688	17204148.358066928
0.7029225074605406	17202069.22743928
0.7030396612117841	17229870.750068672
0.7031568344886527	17257676.906285178
0.7032740272944008	17285487.696861032
0.7033912396322832	17313303.122568667
0.7035084715055552	17341123.184180554
0.7036257229174727	17368947.88246939
0.7037429938712924	17396777.218207967
0.7038602843702709	17475595.336980645
0.7039775944176659	17563073.87616003
0.7040949240167356	17650566.99509598
0.7042122731707383	17738074.696218375
0.7043296418829335	17825596.98195767
0.7044470301565806	17913133.854744576
0.70456443799494	18000685.31701021
0.7046818654012724	18088251.37118628
0.7047993123788394	18082107.064006355
0.7049167789309024	18075854.17922932
0.7050342650607243	18069600.25230481
0.7051517707715678	18063345.283059154
0.7052692960666963	18057089.271318626
0.705386840949374	18050832.216909476
0.7055044054228656	18044574.11965791
0.7056219894904361	18045925.837426744
0.7057395931553511	18095643.973092154
0.705857216420877	18145370.395113546
0.7059748592902804	18195105.104871914
0.7060925217668288	18244848.103748623
0.70621020385379	18294599.39312514
0.7063279055544321	18344358.974383157
0.7064456268720246	18394126.84890479
0.7065633678098366	18442638.160695735
0.7066811283711383	18487674.117296327
0.7067989085592001	18532717.57988968
0.7069167083772933	18577768.549726773
0.7070345278286895	18622827.028058868
0.707152366916661	18667893.016137358
0.7072702256444803	18712966.51521381
0.7073881040154211	18758047.52654017
0.7075060020327569	18767417.076733638
0.7076239196997625	18724768.953936715
0.7077418570197124	18682113.723119363
0.7078598139958823	18639451.38309688
0.7079777906315483	18596781.93268435
0.7080957869299869	18554105.370696787
0.7082138028944751	18511421.695948914
0.7083318385282908	18468730.90725522
0.7084498938347124	18454145.5224343
0.708567968817018	18463392.07475486
0.7086860634784875	18472640.16816748
0.7088041778224007	18481889.802929007
0.7089223118520377	18491140.97929632
0.7090404655706796	18500393.69752635
0.709158638981608	18509647.9578761
0.709276832088105	18518903.76060258
0.7093950448934531	18561924.577611946
0.7095132774009353	18621054.728627916
0.7096315296138355	18680194.734669082
0.7097498015354378	18739344.5973779
0.7098680931690269	18798504.318397116
0.7099864045178884	18857673.89936991
0.7101047355853081	18916853.341939524
0.7102230863745722	18976042.64774952
0.7103414568889679	18919096.395296656
0.7104598471317828	18835749.675275303
0.7105782571063047	18752389.06413401
0.7106966868158224	18669014.559557527
0.710815136263625	18585626.1592303
0.7109336054530023	18502223.8608363
0.7110520943872445	18418807.662059262
0.7111706030696424	18335377.56058238
0.7112891315034873	18352919.95597296
0.7114076796920712	18375283.627167195
0.7115262476386865	18397651.025639966
0.7116448353466263	18420022.152012464
0.711763442819184	18442397.00690604
0.711882070059654	18464775.590942115
0.7120007170713306	18487157.90474218
0.7121193838575091	18515061.896973472
0.7122380704214853	18600521.325535893
0.7123567767665555	18685994.997336317
0.7124755028960166	18771482.91474875
0.7125942488131658	18856985.080147356
0.7127130145213015	18942501.495907094
0.7128318000237216	19028032.16440253
0.7129506053237256	19113577.088009503
0.7130694304246129	19170832.83341418
0.7131882753296837	19129139.33950543
0.7133071400422386	19087438.896681022
0.7134260245655789	19045731.503782835
0.7135449289030065	19004017.159652486
0.7136638530578235	18962295.863131475
0.7137827970333332	18920567.61306098
0.7139017608328388	18878832.408282153
0.7140207444596443	18850797.28130905
0.7141397479170543	18847209.469487447
0.7142587712083737	18843621.05969721
0.7143778143369084	18840032.051838674
0.7144968773059646	18836442.445812162
0.7146159601188489	18832852.24151798
0.7147350627788687	18829261.43885641
0.7148541852893318	18825670.03772774
0.7149733276535467	18854386.971836254
0.7150924898748222	18915688.29880196
0.715211671956468	18976999.84265551
0.7153308739017941	19038321.605099745
0.715450095714111	19099653.587837692
0.71556933739673	19160995.792572774
0.7156885989529628	19222348.221008636
0.7158078803861218	19283710.87484933
0.7159271816995193	19284475.919319723
0.7160465028964692	19249668.072513893
0.7161658439802853	19214854.424400263
0.7162852049542819	19180034.974011954
0.7164045858217744	19145209.720381893
0.716523986586078	19110378.662542906
0.7166434072505089	19075541.799527634
0.716762847818384	19040699.13036851
0.7168823082930204	19063139.133015074
0.7170017886777359	19102436.90236286
0.7171212889758488	19141741.22133885
0.7172408091906781	19181052.091034677
0.7173603493255433	19220369.512542136
0.7174799093837642	19259693.486953154
0.7175994893686615	19299024.015359927
0.7177190892835562	19338361.098854747
0.7178387091317702	19388771.273889694
0.7179583489166254	19440300.74122664
0.7180780086414448	19491838.79680818
0.7181976883095517	19543385.442065652
0.7183173879242699	19594940.67843067
0.718437107488924	19646504.507335097
0.7185568470068389	19698076.930211022
0.7186766064813399	19747755.408069793
0.7187963859157535	19749874.46230696
0.7189161853134061	19751993.869719833
0.719036004677625	19754113.630367275
0.7191558440117378	19756233.744308155
0.7192757033190732	19758354.211601365
0.7193955826029597	19760475.032305785
0.7195154818667269	19762596.206480324
0.7196354011137046	19757292.40618465
0.7197553403472235	19717800.184530534
0.7198752995706147	19678301.380839493
0.7199952787872098	19638795.994014475
0.720115278000341	19599284.02295832
0.7202352972133411	19559765.466573652
0.7203553364295432	19520240.32376298
0.7204753956522815	19480708.59342845
0.7205954748848902	19443718.733517382
0.7207155741307044	19412341.108348917
0.7208356933930594	19380958.253576312
0.7209558326752915	19349570.168327905
0.7210759919807375	19318176.851731915
0.7211961713127342	19286778.30291653
0.7213163706746197	19255374.521009628
0.7214365900697322	19223965.50513911
0.7215568295014103	19241706.4177981
0.721677088972994	19318100.677995533
0.7217973684878227	19394507.670569543
0.7219176680492374	19470927.397642404
0.7220379876605789	19547359.861336395
0.722158327325189	19623805.063774366
0.7222786870464099	19700263.00707937
0.7223990668275843	19776733.693374958
0.7225194666720555	19803412.541743558
0.7226398865831676	19794798.081733182
0.7227603265642646	19786182.18597949
0.722880786618692	19777564.854243156
0.7230012667497951	19768946.08628487
0.7231217669609201	19760325.881865256
0.7232422872554135	19751704.240744915
0.7233628276366229	19743081.16268437
0.7234833881078956	19685916.986101735
0.7236039686725803	19610314.645977005
0.7237245693340255	19534699.705462378
0.7238451900955812	19459072.162457522
0.7239658309605971	19383432.014862254
0.7240864919324239	19307779.260575622
0.7242071730144127	19232113.8974966
0.724327874209915	19156435.923523895
0.7244485955222832	19185019.3078797
0.7245693369548704	19230848.27633341
0.7246900985110294	19276684.882948462
0.7248108801941148	19322529.128998067
0.7249316820074803	19368381.015755195
0.7250525039544815	19414240.544493526
0.7251733460384739	19460107.71648665
0.7252942082628137	19505846.432669755
0.7254150906308574	19472731.92505554
0.7255359931459625	19439611.898356725
0.7256569158114868	19406486.351653446
0.7257778586307888	19373355.2840257
0.7258988216072273	19340218.69455336
0.7260198047441617	19307076.582316145
0.7261408080449525	19273928.946393497
0.72626183151296	19238539.950038806
0.7263828751515454	19188286.643630147
0.7265039389640706	19138024.961670432
0.726625022953898	19087754.90276369
0.7267461271243904	19037476.465513773
0.7268672514789111	18987189.64852435
0.7269883960208241	18936894.450398806
0.7271095607534942	18886590.869740203
0.7272307456802866	18828468.17383481
0.7273519508045666	18749237.120226905
0.7274731761297006	18669992.861443434
0.7275944216590555	18590735.3952835
0.7277156873959987	18511464.71954585
0.7278369733438982	18432180.832028776
0.727958279506122	18352883.730530664
0.7280796058860397	18273573.41284887
0.7282009524870207	18203762.359165464
0.7283223193124353	18148009.691062
0.7284437063656539	18092247.730847295
0.7285651136500483	18036476.47697247
0.7286865411689898	17980695.927888773
0.7288079889258514	17924906.082046766
0.7289294569240056	17869106.937897246
0.7290509451668262	17813298.493890304
0.7291724536576875	17809581.239421602
0.7292939823999636	17849034.23065836
0.7294155313970303	17888493.797393735
0.7295371006522632	17927959.94072356
0.7296586901690385	17967432.661743905
0.7297802999507332	18006911.96155107
0.7299019300007252	18046397.84124164
0.7300235803223919	18085890.30191205
0.7301452509191123	18100004.66974711
0.7302669417942654	18102404.59955715
0.7303886529512311	18104804.92935549
0.7305103843933897	18107205.6592088
0.7306321361241218	18109606.78918375
0.7307539081468093	18112008.31934703
0.7308757004648336	18114410.249765337
0.7309975130815778	18116812.580505382
0.7311193460004248	18124585.258464713
0.7312411992247582	18133574.91927994
0.7313630727579622	18142566.07837197
0.7314849666034219	18151558.735990528
0.7316068807645224	18160552.892385345
0.7317288152446498	18169548.547806237
0.7318507700471907	18178545.702503033
0.7319727451755319	18187544.35672561
0.732094740633061	18202039.624828033
0.7322167564231665	18216784.700585764
0.7323387925492371	18231532.233856123
0.7324608490146619	18246282.22504869
0.732582925822831	18261034.674573127
0.7327050229771347	18275789.58283913
0.7328271404809642	18290546.95025653
0.7329492783377112	18299801.75926218
0.7330714365507675	18254937.958073366
0.7331936151235259	18210066.679584365
0.7333158140593796	18165187.922549
0.7334380333617229	18120301.685720727
0.7335602730339499	18075407.96785296
0.7336825330794556	18030506.767698877
0.7338048135016354	17985598.084011517
0.7339271143038857	17925751.394004658
0.734049435489603	17815867.244472608
0.7341717770621846	17705964.780915614
0.7342941390250283	17596044.00028142
0.7344165213815324	17486104.89951716
0.734538924135096	17376147.475569278
0.7346613472891185	17266171.725384213
0.734783790847	17156177.645907417
0.7349062548121412	17030644.148779918
0.7350287391879431	16877655.577235755
0.7351512439778078	16724641.507596022
0.7352737691851374	16571601.935611533
0.735396314813335	16418536.857031578
0.7355188808658037	16265446.267605446
0.7356414673459482	16112330.163080763
0.7357640742571725	15959188.539205434
0.7358867016028818	15869532.536371207
0.7360093493864824	15842584.573663704
0.7361320176113801	15815632.119629122
0.736254706280982	15788675.173518866
0.7363774153986956	15761713.734584223
0.7365001449679286	15734747.802076481
0.7366228949920899	15707777.375246631
0.7367456654745885	15680802.453345645
0.7368684564188344	15634399.55312877
0.7369912678282374	15577011.17612807
0.7371140997062088	15519613.234397849
0.7372369520561599	15462205.72634395
0.7373598248815024	15404788.650372172
0.7374827181856494	15347362.004887637
0.7376056319720137	15289925.788295515
0.7377285662440091	15232479.999000618
0.7378515210050496	15190822.768297268
0.7379744962585505	15153911.772305936
0.738097492007927	15116994.624481946
0.7382205082565949	15080071.32380001
0.738343545007971	15043141.869234635
0.7384666022654723	15006206.259760126
0.7385896800325165	14969264.494350763
0.7387127783125219	14932316.57198045
0.7388358971089073	14910272.37836047
0.7389590364250921	14889720.009355295
0.7390821962644963	14869164.21495527
0.7392053766305403	14848604.994589543
0.7393285775266454	14828042.347687073
0.7394517989562333	14807476.273676766
0.7395750409227259	14786906.77198749
0.7396983034295463	14766809.621022623
0.739821586480118	14757293.17790435
0.7399448900778645	14747775.148712242
0.7400682142262109	14738255.533181908
0.740191558928582	14728734.331048995
0.7403149241884034	14719211.542049067
0.7404383100091014	14709687.165917637
0.7405617163941028	14700161.20239019
0.7406851433468352	14672557.507263564
0.7408085908707264	14562255.200150028
0.7409320589692048	14451934.509318693
0.7410555476456997	14341595.431705462
0.7411790569036406	14231237.964246044
0.7413025867464579	14120862.103875352
0.7414261371775823	14010467.8475279
0.7415497082004452	13900055.19213781
0.7416732998184786	13801595.109127559
0.741796912035115	13728798.71329011
0.7419205448537874	13655990.184720036
0.7420441982779297	13583169.521395205
0.742167872310976	13510336.721293084
0.7422915669563612	13437491.782390948
0.7424152822175206	13364634.702665683
0.7425390180978901	13291765.48009384
0.7426627746009065	13216926.164626323
0.7427865517300065	13139687.497091664
0.7429103494886282	13062435.95644567
0.7430341678802096	12985171.54054296
0.7431580069081896	12907894.247237604
0.7432818665760077	12830604.074383257
0.7434057468871037	12753301.019833498
0.7435296478449182	12675985.081441356
0.7436535694528923	12604317.330143053
0.7437775117144678	12536512.81238787
0.7439014746330868	12468696.993879834
0.7440254582121922	12400869.87273532
0.7441494624552276	12333031.447070586
0.7442734873656368	12265181.71500159
0.7443975329468645	12197320.674643863
0.7445215992023557	12129448.32411275
0.7446456861355559	12047657.356253128
0.7447697937499119	11960729.674570061
0.7448939220488703	11873787.504940066
0.7450180710358784	11786830.844948543
0.7451422407143843	11699859.692180347
0.7452664310878367	11612874.044219937
0.7453906421596846	11525873.89865163
0.7455148739333779	11438859.253059033
0.7456391264123667	11349430.666305954
0.7457633996001021	11259603.5178052
0.7458876935000356	11169761.398112869
0.7460120081156189	11079904.304734094
0.7461363434503048	10990032.235173047
0.7462606995075466	10900145.186933657
0.7463850762907978	10810243.157519698
0.7465094738035127	10720270.558406444
0.7466338920491467	10615741.96822166
0.746758331031155	10511195.956605079
0.7468827907529935	10406632.52065335
0.7470072712181189	10302051.657462293
0.7471317724299886	10197453.364127351
0.7472562943920602	10092837.637743594
0.7473808371077922	9988204.475405345
0.7475054005806435	9883536.106879372
0.7476299848140736	9778740.853856608
0.7477545898115426	9673928.134958318
0.7478792155765113	9569097.947273517
0.7480038621124406	9464250.287890853
0.7481285294227926	9359385.153898316
0.7482532175110298	9254502.542383334
0.7483779263806148	9149602.450433249
0.7485026560350116	9046854.084445383
0.7486274064776842	8949959.477492008
0.748752177712097	8853048.72143765
0.7488769697417158	8756121.81359041
0.749001782570006	8659178.751258645
0.7491266162004343	8562219.531749854
0.7492514706364677	8465244.152371101
0.7493763458815739	8368252.610429021
0.7495012419392209	8270716.060264048
0.7496261588128773	8172402.979221936
0.7497510965060128	8074073.51266625
0.7498760550220971	7975727.657866173
0.7500010343646007	7877365.412090281
0.7501260345369949	7778986.772606712
0.750251055542751	7680591.736683339
0.7503760973853414	7582180.301587252
0.7505011600682389	7481062.708476429
0.750626243594917	7377682.377586383
0.7507513479688495	7274284.816641346
0.7508764731935109	7170870.022769448
0.7510016192723765	7067437.993098546
0.7511267862089218	6963988.724756129
0.7512519740066232	6860522.214868951
0.7513771826689577	6757038.460563399
0.7515024121994025	6655668.707921511
0.7516276626014359	6555275.768353646
0.751752933878536	6454866.096629362
0.7518782260341824	6354439.689959756
0.7520035390718548	6253996.545555661
0.7521288729950334	6153536.660627551
0.7522542278071992	6053060.0323852785
0.7523796035118337	5952566.65803825
0.7525050001124189	5853706.385010492
0.7526304176124378	5755188.440794217
0.7527558560153731	5656654.0769207
0.752881315324709	5558103.290653109
0.7530067955439299	5459536.079254436
0.7531322966765205	5360952.43998733
0.7532578187259665	5262352.3701136485
0.7533833616957542	5163735.866894991
0.75350892558937	5067033.976764015
0.7536345104103016	4970406.773102264
0.7537601161620366	4873763.464906619
0.7538857428480638	4777104.049492848
0.7540113904718717	4680428.524176632
0.7541370590369503	4583736.886272886
0.7542627485467898	4487029.133096094
0.7543884590048808	4391179.5985004585
0.7545141904147151	4304033.072031978
0.7546399427797842	4216872.02114256
0.7547657161035808	4129696.443411313
0.754891510389598	4042506.3364171158
0.7550173256413296	3955301.697738385
0.7551431618622698	3868082.524953228
0.7552690190559135	3780848.815639293
0.7553948972257561	3695067.1448214143
0.7555207963752938	3614193.9254101003
0.755646716508023	3533307.2271289313
0.755772657627441	3452407.047731354
0.7558986197370455	3371493.3849705313
0.756024602840335	3290566.23659927
0.7561506069408084	3209625.6003699466
0.7562766320419653	3128671.474034513
0.7564026781473054	3050170.0760800033
0.75652874526033	2975995.4850850455
0.7566548333845401	2901808.5316582173
0.7567809425234375	2827609.2137391777
0.7569070726805247	2753397.5292671937
0.7570332238593047	2679173.476181141
0.7571593960632813	2604937.052419503
0.7572855892959586	2530688.255920568
0.7574118035608413	2462329.769487058
0.7575380388614347	2399734.679212236
0.7576642952012449	2337129.1564223445
0.7577905725837782	2274513.1993787447
0.7579168710125422	2211886.8063421934
0.7580431904910444	2149249.9755734457
0.7581695310227928	2086602.7053329821
0.7582958926112967	2023944.9938807331
0.7584222752600652	1966573.6448138552
0.7585486789726085	1912235.546373502
0.7586751037524372	1857888.3915833877
0.7588015496030628	1803532.1789340358
0.7589280165279966	1749166.9069160167
0.7590545045307512	1694792.5740193278
0.7591810136148396	1640409.178733824
0.7593075437837755	1586016.7195490259
0.7594340950410726	1537581.9654346474
0.7595606673902461	1490870.3171930138
0.7596872608348112	1444150.8836766263
0.7598138753782836	1397423.6635880377
0.75994051102418	1350688.6556293904
0.7600671677760173	1303945.8585027866
0.7601938456373134	1257195.2709099595
0.7603205446115863	1210436.8915525596
0.7604472647023548	1169240.2359953062
0.7605740059131385	1128590.3236396876
0.7607007682474575	1087933.6362986371
0.7608275517088319	1047270.17284312
0.7609543563007835	1006599.9321436033
0.7610811820268336	965922.9130706612
0.7612080288905045	925239.1144946185
0.7613348968953197	884746.9578152462
0.7614617860448022	848319.2446301875
0.7615886963424764	811885.4601595483
0.7617156277918667	775445.6033915326
0.7618425803964988	738999.6733140255
0.7619695541598982	702547.6689148486
0.7620965490855914	666089.589181632
0.7622235651771058	629625.433101751
0.7623506024379685	594501.3398723329
0.7624776608717082	565271.6721098145
0.7626047404818536	536037.1327360009
0.7627318412719337	506797.7209390086
0.762858963245479	477553.4359066984
0.7629861064060198	448304.2768268802
0.7631132707570876	419050.24288718496
0.7632404563022137	389791.33327519277
0.7633676630449308	362393.170589349
0.7634948909887717	338961.73436201183
0.7636221401372697	315526.392895334
0.7637494104939593	292087.14553838957
0.7638767020623748	268643.9916402528
0.7640040148460518	245196.930549773
0.7641313488485262	221745.961615779
0.7642587040733344	198291.08418693603
0.7643860805240132	177922.8759207056
0.7645134782041005	161239.2593403157
0.7646408971171346	144552.8621571554
0.764768337266654	127863.68390780408
0.7648957986561985	111171.7241287391
0.7650232812893079	94476.98235637983
