#wavelength	surface flux
0.8	57306774.52839017
0.8002000000000001	57904564.73755093
0.8004000500000003	58635996.93485425
0.8006001500125003	59368960.396303184
0.8008003000500035	60102107.09861753
0.8010005001250161	60835437.0876078
0.8012007502500472	61568950.40909425
0.8014010504376099	62385593.44789021
0.8016014007002193	63230225.13689943
0.8018018010503944	64075067.98383089
0.8020022515006572	64920122.04147447
0.8022027520635323	65765387.36263172
0.8024033027515483	66572376.574144505
0.8026039035772362	67341851.35547248
0.8028045545531306	68111518.5054958
0.8030052556917691	68881378.07230702
0.803206007005692	69651430.10400926
0.8034068085074435	70397382.87248205
0.8036076602095705	71075428.71712461
0.8038085621246229	71753644.0732278
0.8040095142651542	72432028.98317043
0.8042105166437206	73110583.48934032
0.8044115692728815	73790489.2697588
0.8046126721651998	74521389.25663073
0.8048138253332411	75252471.9684988
0.8050150287895745	75983737.4510455
0.805216282546772	76715185.74996264
0.8054175866174087	77446816.91095413
0.8056189410140631	78339721.59995493
0.8058203457493168	79278448.60874537
0.8060218008357541	80217410.29928678
0.8062233062859632	81156606.73025131
0.8064248621125346	82096037.96032295
0.806626468328063	83088728.26826055
0.8068281249451449	84127208.13924046
0.8070298319763813	85165947.63018937
0.8072315894343755	86204946.80601026
0.8074333973317341	87244205.73162548
0.8076352556810671	88300085.27446212
0.8078371644949874	89395611.97073103
0.8080391237861113	90491412.54867429
0.8082411335670578	91587487.07676134
0.8084431938504498	92683835.62348156
0.8086453046489125	93788178.49293688
0.8088474659750746	95036534.40350322
0.8090496778415686	96285202.40304887
0.809251940261029	97534182.56959353
0.8094542532460944	98783474.98118088
0.8096566168094059	100033079.7158697
0.8098590309636085	101255881.7158033
0.8100614957213493	102472642.89726618
0.8102640110952797	103689708.26902461
0.8104665770980536	104907077.90712644
0.8106691937423283	106124751.88763827
0.8108718610407639	107282359.05187516
0.8110745790060241	108394092.90333974
0.8112773476507757	109506104.68826817
0.8114801669876885	110618394.47614254
0.8116830370294355	111730962.33646323
0.8118859577886929	112888334.91145262
0.8120889292781401	114138480.46814136
0.8122919515104597	115388938.5612192
0.8124950244983374	116639709.26882036
0.8126981482544621	117890792.66909824
0.8129013227915257	119157285.21409033
0.8131045481222237	120596950.17096885
0.8133078242592543	122036975.04408672
0.8135111512153191	123477359.92342249
0.813714529003123	124918104.89897826
0.8139179576353739	126359210.06077819
0.8141214371247829	127722013.2101436
0.8143249674840641	129069903.11942591
0.814528548725935	130418130.00118473
0.8147321808631167	131766693.93966582
0.8149358639083326	133115595.01913111
0.8151395978743097	134025105.37341598
0.8153433827737784	134637744.45257294
0.8155472186194719	135250536.69149947
0.8157511054241268	135863482.12848562
0.815955043200483	136476580.80183145
0.8161590319612831	136031287.46710098
0.8163630717192736	133646227.60976236
0.8165671624872033	131260571.48746203
0.8167713042778252	128874318.9511288
0.8169754971038948	126487469.85166028
0.8171797409781707	123429544.62401944
0.8173840359134155	115018210.08420199
0.8175883819223938	106604772.7107593
0.8177927790178745	98189231.97796841
0.8179972272126291	89771587.35999213
0.8182017265194322	81351838.33086985
0.8184062769510622	79081525.7210068
0.8186108785203001	77757276.7003768
0.8188155312399301	76432696.61749342
0.8190202351227402	75107785.38958785
0.819224990181521	73782542.93387614
0.8194297964290664	79696437.1742717
0.8196346538781738	89975386.38786142
0.8198395625416434	100256905.33875045
0.8200445224322789	110540994.66938153
0.820249533562887	120827655.02234223
0.8204545959462778	128526778.44065596
0.8206597095952644	132059116.7722934
0.8208648745226633	135592338.18851647
0.8210700907412941	139126442.91009304
0.8212753582639793	142661431.15784642
0.8214806771035456	145949141.44562232
0.8216860472728215	147708695.19892997
0.8218914687846397	149468688.840676
0.822096941651836	151229122.4808334
0.822302465887249	152989996.22939983
0.8225080415037209	154751310.19640434
0.8227136685140968	156459288.2774251
0.8229193469312254	158161588.62870723
0.8231250767679583	159864314.55507773
0.8233308580371503	161567466.1629289
0.8235366907516598	163271043.55868328
0.8237425749243477	165355531.3198062
0.8239485105680789	167642203.6612069
0.824154497695721	169929447.6706915
0.824360536320145	172217263.4911789
0.8245666264542252	174505651.2656213
0.8247727681108388	176046990.9009509
0.8249789613028664	176517982.9814893
0.8251852060431922	176989092.81004822
0.825391502344703	177460320.41606408
0.8255978502202894	177931665.8289819
0.8258042496828445	178146474.80384398
0.8260107007452654	177114877.92268217
0.8262172034204517	176083023.14230114
0.8264237577213068	175050910.3982247
0.8266303636607373	174018539.62596184
0.8268370212516525	172985910.7610064
0.8270437305069654	173116051.73532772
0.8272504914395923	173337108.32412893
0.8274573040624523	173558220.17707738
0.8276641683884679	173779387.30798888
0.8278710844305652	174000609.7306834
0.8280780522016729	174289332.53530887
0.8282850717147234	174608956.5401269
0.8284921429826521	174928660.45094582
0.8286992660183978	175248444.28774267
0.8289064408349024	175568308.07049853
0.8291136674451112	175866261.7808521
0.8293209458619727	176136561.64318317
0.8295282760984382	176406929.08047944
0.829735658167463	176677364.10963538
0.8299430920820048	176947866.74754822
0.8301505778550254	177323649.99795043
0.8303581154994891	178119463.03494224
0.8305657050283641	178915475.02519408
0.8307733464546212	179711686.01844284
0.8309810397912352	180508096.06444123
0.8311887850511829	181304705.21294954
0.8313965822474458	182569086.8911295
0.8316044313930077	183855487.21851817
0.8318123325008561	185142209.14598992
0.8320202855839813	186429252.75394288
0.8322282906553774	187716618.12279797
0.8324363477280413	188809367.92421865
0.8326444568149735	189823909.80002928
0.8328526179291771	190838705.31130767
0.8330608310836596	191853754.5214654
0.8332690962914304	192869057.49392432
0.8334774135655034	193502290.11580548
0.833685782918895	193708612.3856448
0.8338942043646247	193914986.23605144
0.834102677915716	194121411.67992082
0.834311203585195	194327888.73015103
0.8345197813860912	194581676.81280923
0.8347284113314379	194994607.9467168
0.8349370934342709	195407642.31340763
0.8351458277076294	195820779.93868962
0.8353546141645565	196234020.84837863
0.8355634528180977	196647365.06829485
0.8357723436813022	197509621.92772293
0.8359812867672226	198377636.00269273
0.8361902820889144	199245867.08118084
0.8363993296594368	200114315.21743885
0.8366084294918518	200982980.4657312
0.8368175815992247	201378547.30508906
0.8370267859946247	201611198.29054597
0.8372360426911234	201843907.43874916
0.8374453517017962	202076674.76423937
0.8376547130397217	202309500.28156096
0.8378641267179816	202998263.7551201
0.8380735927496613	204139550.6377412
0.8382831111478488	205281122.8420823
0.8384926819256358	206422980.43947384
0.8387023050961173	207565123.50126573
0.8389119806723914	208422157.1804848
0.8391217086675596	208476210.56220204
0.8393314890947265	208530277.4572647
0.8395413219670003	208584357.8690511
0.8397512072974922	208638451.80094048
0.8399611450993165	208708307.97602165
0.8401711353855914	209560257.40760487
0.8403811781694378	210412419.82654577
0.8405912734639802	211264795.2860916
0.8408014212823464	212117383.83950272
0.8410116216376671	212970185.5400521
0.8412218745430766	212428980.46925592
0.8414321800117124	211481975.88650003
0.8416425380567154	210534734.552598
0.8418529486912297	209587256.40836227
0.8420634119284025	208639541.39459127
0.8422739277813847	209050852.9315282
0.8424844962633302	210659831.16625
0.842695117387396	212269211.6455284
0.8429057911667428	213878994.4699267
0.8431165176145345	215489179.74003187
0.8433272967439382	215161520.43101692
0.8435381285681244	210105856.99201134
0.8437490131002665	205048929.6371471
0.8439599503535415	199990738.05044734
0.84417094034113	194931281.91584724
0.8443819830762154	190041712.10159054
0.8445930785719846	188598775.1353692
0.8448042268416277	187155477.43490708
0.8450154278983382	185711818.91002005
0.8452266817553128	184267799.4705019
0.8454379884257517	182823419.0261237
0.8456493479228583	182999839.96178788
0.845860760259839	183566700.4105589
0.846072225449904	184133702.57444212
0.8462837435062666	184700846.48886645
0.8464953144421433	185268132.1892697
0.8467069382707537	186023420.7984086
0.8469186150053215	186925330.17771116
0.847130344659073	187827465.03435877
0.8473421272452377	188729825.4247197
0.8475539627770492	189632411.4051791
0.8477658512677435	190549351.81628343
0.8479777927305605	191496522.07512587
0.8481897871787432	192443929.1265328
0.848401834625538	193391573.0297031
0.8486139350841944	194339453.84384862
0.8488260885679657	195219461.3684589
0.8490382950901076	195269449.00797236
0.8492505546638802	195319449.14439574
0.8494628673025462	195369461.7808532
0.8496752330193721	195419486.92046985
0.8498876518276269	195469524.56637132
0.8501001237405839	192144606.28621444
0.8503126487715191	188145153.80274102
0.850525226933712	184144701.45614892
0.8507378582404455	180143248.99647024
0.8509505427050057	176140796.1736743
0.8511632803406821	172004271.84943908
0.8513760711607672	167775584.20320085
0.8515889151785576	163545839.38504446
0.8518018124073523	159315037.1306871
0.8520147628604541	155083177.1757686
0.8522277665511693	153725406.97255218
0.8524408234928071	157684535.489571
0.8526539336986805	161644653.78872013
0.8528670971821053	165605762.1174443
0.8530803139564007	169567860.723246
0.8532935840348901	173635711.74522635
0.8535069074308987	178589347.4372699
0.8537202841577566	183544221.5382406
0.8539337142287962	188500334.35773715
0.8541471976573534	193457686.20543545
0.8543607344567677	198416277.3910966
0.8545743246403821	198607907.13177827
0.8547879682215422	198042339.94854686
0.8550016652135977	197476631.37351975
0.8552154156299011	196910781.37134883
0.8554292194838088	196344789.90667695
0.8556430767886797	195718705.2259906
0.855856987557877	195056062.924292
0.8560709518047664	194393254.9620184
0.8562849695427177	193730281.297754
0.8564990407851035	193067141.8900733
0.8567131655452999	192018009.3401166
0.8569273438366862	190336423.5057209
0.8571415756726455	188654417.27486634
0.8573558610665638	186971990.54245344
0.8575702000318304	185289143.20335925
0.8577845925818384	184262622.51248074
0.857999038729984	187338131.150089
0.8582135384896665	190414408.66485596
0.858428091874289	193491455.2490018
0.8586426988972576	196569271.09479287
0.8588573595719821	199647856.39454642
0.8590720739118751	198997727.68520784
0.8592868419303532	197907719.17705986
0.8595016636408359	196817438.16678485
0.8597165390567462	195726884.58625764
0.8599314681915105	194636058.36733502
0.8601464510585584	191715547.3321476
0.860361487671323	187823266.99187028
0.8605765780432408	183930013.581509
0.8607917221877518	180035786.85779193
0.8610069201182988	176140586.577395
0.8612221718483286	168289386.31171235
0.8614374773912907	154734517.76586646
0.8616528367606385	141176260.5028878
0.8618682499698288	127614613.67558482
0.8620837170323213	114049576.43657726
0.8622992379615795	102692129.72057286
0.8625148127710699	102273145.41535732
0.8627304414742627	101854056.36406544
0.8629461240846313	101434862.54051067
0.8631618606156526	101015563.91849998
0.8633776510808066	100596160.47183385
0.8635934954935769	106195008.62109849
0.8638093938674504	112288592.04535908
0.8640253462159173	118383698.8654755
0.8642413525524714	124480329.46229686
0.8644574128906095	130578484.21676613
0.8646735272438323	132922579.97913936
0.8648896956256433	133520811.36135799
0.8651059180495498	134119192.3014222
0.8653221945290621	134717722.83672085
0.8655385250776946	135316403.00465417
0.8657549097089641	137432129.04866475
0.8659713484363913	141490344.62018192
0.8661878412735006	145549574.74559385
0.866404388233819	149609819.6785366
0.8666209893308775	153671079.6727107
0.8668376445782103	156830837.83412856
0.8670543539893549	156307755.30087066
0.8672711175778525	155784541.99697906
0.8674879353572469	155261197.88976207
0.8677048073410862	154737722.9465181
0.8679217335429217	154214117.13453797
0.8681387139763074	153675646.4376781
0.8683557486548015	153136309.1763853
0.8685728375919655	152596837.08077654
0.8687899808013633	152057230.11714503
0.8690071782965637	151517488.25177193
0.869224430091138	150267015.40094894
0.8694417361986609	148727089.2974713
0.8696590966327107	147186778.21246815
0.869876511406869	145646082.04969367
0.8700939805347206	144105000.71287924
0.8703115040298544	143135735.77218246
0.870529081905862	142820420.55178234
0.8707467141763385	142505026.50257725
0.8709644008548827	142189553.60485986
0.8711821419550964	141874001.83891824
0.8713999374905854	141746104.61923
0.871617787474958	142266108.64283916
0.8718356919218269	142786242.6674547
0.8720536508448075	143306506.7255764
0.8722716642575187	143826900.84971237
0.8724897321735832	144347425.07237956
0.8727078546066265	146832039.9816254
0.8729260315702784	149347154.32720572
0.873144263078171	151862897.45136976
0.8733625491439405	154379269.51131505
0.8735808897812266	156896270.6642763
0.8737992850036719	157152123.16192037
0.874017734824923	156606955.0784208
0.8742362392586293	156061650.70290053
0.874454798318444	155516210.00128642
0.8746734120180236	154970632.93949696
0.8748920803710283	154669925.8895358
0.875110803391121	154615351.75507808
0.8753295810919689	154560763.9770867
0.875548413487242	154506162.5521508
0.8757673005906139	154451547.47685865
0.8759862424157616	155927512.98533705
0.8762052389763657	161832694.14440852
0.8764242902861098	167739351.5987657
0.8766433963586814	173647485.71748805
0.8768625572077712	179557096.86974192
0.8770817728470732	185413941.910953
0.8773010432902849	187037054.4727114
0.8775203685511077	188660572.81261262
0.8777397486432454	190284497.0320968
0.8779591835804065	191908827.2326378
0.8781786733763015	193533563.51572677
0.8783982180446457	190365940.913871
0.878617817599157	185771768.38197443
0.8788374720535569	181176447.30694708
0.8790571814215703	176579977.40165213
0.8792769457169257	171982358.37888074
0.879496764953355	170055229.7496646
0.8797166391445934	170529598.99342996
0.8799365683043796	171004086.82950625
0.8801565524464557	171478693.28754157
0.8803765915845676	171953418.39719182
0.8805966857324639	172734256.72712037
0.880816834903897	174283856.81519616
0.881037039112623	175833844.3032946
0.8812572983724012	177384219.2882649
0.8814776126969944	178934981.86698213
0.8816979821001687	180477455.21800086
0.8819184065956938	181816058.06908756
0.8821388861973429	183154995.57088843
0.8823594209188923	184494267.80706346
0.882580010774122	185833874.86129692
0.8828006557768155	187173816.8172947
0.8830213559407598	192067822.02664694
0.8832421112797452	197856849.46956038
0.8834629218075651	203647324.16933104
0.8836837875380171	209439246.4877784
0.8839047084849018	215232616.7868063
0.884125684662023	214573755.71890396
0.8843467160831886	208742929.8783177
0.8845678027622095	202910646.3312713
0.8847889447129001	197076904.71333703
0.8850101419490785	191241704.65999934
0.8852313944845657	188796203.7831003
0.885452702333187	193772920.41363734
0.8856740655087704	198750881.2233313
0.8858954840251476	203730086.52322632
0.8861169578961539	208710536.62444404
0.886338487135628	212932883.08192685
0.886560071757412	207051322.30359036
0.8867817117753515	201168291.13505942
0.8870034072032955	195283789.2087337
0.8872251580550963	189397816.1569333
0.8874469643446101	183510371.61186633
0.8876688260856963	182932551.56057277
0.8878907432922178	183453786.51058874
0.8881127159780409	183975151.76934186
0.8883347441570356	184496647.3694103
0.8885568278430749	185018273.34337825
0.8887789670500358	184049504.90398103
0.8890011617917983	182023155.24861503
0.8892234120822464	179996299.00583425
0.8894457179352669	177968936.04899442
0.8896680793647509	175941066.2514138
0.8898904963845921	174970900.31899187
0.8901129690086883	176019585.96887285
0.8903354972509405	177068533.79016605
0.8905580811252535	178117743.84841537
0.8907807206455347	179167216.20917785
0.8910034158256963	180344128.73150104
0.8912261666796527	182657918.82691175
0.8914489732213227	184972287.3698469
0.8916718354646282	187287234.50492013
0.8918947534234944	189602760.37677485
0.8921177271118502	191918865.13009608
0.8923407565436284	192483841.42811394
0.8925638417327644	192763207.8488045
0.8927869826931977	193042644.11110035
0.8930101794388711	193322150.23246172
0.8932334319837308	193601726.23035342
0.8934567403417267	194043971.11894867
0.8936801045268123	194587362.7048707
0.8939035245529441	195130890.1386889
0.8941270004340824	195674553.4543657
0.894350532184191	196218352.68587133
0.8945741198172371	199137183.47913778
0.8947977633471915	205995225.06614307
0.8950214627880284	212854981.16354483
0.8952452181537254	219716452.19996688
0.8954690294582639	226579638.60415214
0.8956928967156286	233084612.8210668
0.8959168199398075	237255408.88276017
0.8961407991447926	241427247.64347
0.8963648343445789	245600129.3638699
0.896588925553165	249774054.30469757
0.8968130727845534	253949022.72676095
0.8970372760527496	254886660.89720574
0.8972615353717629	255419347.6757082
0.8974858507556059	255952167.6259054
0.8977102222182949	256485120.78108996
0.8979346497738496	257018207.17456365
0.8981591334362931	257666532.19481072
0.8983836732196523	258377967.70852384
0.8986082691379572	259089581.08111495
0.8988329212052417	259801372.35704917
0.8990576294355432	260513341.580803
0.8992823938429022	261041296.8654468
0.8995072144413631	261295514.14410567
0.8997320912449734	261549794.9770841
0.8999570242677847	261804139.3802707
0.9001820135238516	262058547.36955813
0.9004070590272328	263174384.7788862
0.9006321607919896	268806074.63205904
0.9008573188321878	274439172.40770096
0.9010825331618959	280073678.457784
0.9013078037951865	285709593.1343805
0.9015331307461353	291346916.7896432
0.9017585140288219	295130185.01791596
0.9019839536573292	298754583.0742883
0.9022094496457435	302379887.2301721
0.9024350020081551	306006097.712099
0.9026606107586572	309633214.7466452
0.902886275911347	312107023.0171603
0.9031119974803249	314025037.50704414
0.9033377754796951	315943531.50055045
0.903563609923565	317862505.11755425
0.903789500826046	319781958.4779636
0.9040154482012526	320121765.5017303
0.904241452063303	318414741.9534237
0.9044675124263188	316707291.64923036
0.9046936293044254	314999414.4824613
0.9049198027117517	313291110.34639966
0.9051460326624297	311281715.98547715
0.9053723191705955	307991525.64319474
0.9055986622503881	304700512.7533298
0.9058250619159507	301408677.1102423
0.9060515181814298	298116018.50824195
0.9062780310609752	294822536.7415934
0.9065046005687405	300180310.4639771
0.906731226718883	306022097.5293416
0.9069579095255627	311865345.0414648
0.907184649002944	317710053.3654665
0.907411445165195	323556222.8665551
0.9076382980264862	327697771.0460599
0.907865207600993	331131821.5590298
0.9080921739028933	334566730.584627
0.9083191969463691	338002498.33748
0.9085462767456058	341439125.0322729
0.9087734133147922	343959060.6880835
0.9090006066681211	345419844.47857964
0.909227856819788	346880993.4650214
0.9094551637839932	348342507.7387118
0.9096825275749393	349804387.3909702
0.9099099482068329	351652584.7406384
0.9101374256938848	354872925.0484411
0.9103649600503083	358094070.4413192
0.9105925512903209	361316021.12054497
0.9108201994281437	364538777.2874439
0.9110479044780008	367762339.1433808
0.9112756664541204	374453276.2521861
0.911503485370734	381225235.25683224
0.9117313612420768	387998887.25122964
0.9119592940823873	394774232.6586235
0.912187283905908	401551271.9023714
0.9124153307268845	403657928.3716742
0.9126434345595664	404069420.6318949
0.9128715954182063	404481015.7651803
0.9130998133170609	404892713.7972492
0.9133280882703902	405304514.7538261
0.913556420292458	406322672.5196877
0.9137848093975312	407966323.38140297
0.9140132555998806	409610385.1558335
