#wavelength	surface flux
0.8	282995.05708606227
0.8002000000000001	288452.54923767486
0.8004000500000003	294241.14333825244
0.8006001500125003	300034.515261529
0.8008003000500035	305829.33552778675
0.8010005001250161	311625.6044991138
0.8012007502500472	317423.3225376753
0.8014010504376099	323135.40397855977
0.8016014007002193	328819.7422812664
0.8018018010503944	334505.50166854856
0.8020022515006572	340192.6824956802
0.8022027520635323	345881.2851180137
0.8024033027515483	351921.93021102285
0.8026039035772362	358307.6797142195
0.8028045545531306	364695.0256547923
0.8030052556917691	371083.96843185334
0.803206007005692	377474.50844460295
0.8034068085074435	383890.61017558584
0.8036076602095705	390375.490772452
0.8038085621246229	396861.9925894622
0.8040095142651542	403350.11603193067
0.8042105166437206	409839.86150525755
0.8044115692728815	416336.77627020405
0.8046126721651998	423073.8952811583
0.8048138253332411	429812.6985718598
0.8050150287895745	436553.1865633903
0.805216282546772	443295.35967691685
0.8054175866174087	450039.21833371825
0.8056189410140631	456858.3402697867
0.8058203457493168	463699.9941384931
0.8060218008357541	470543.3584206579
0.8062233062859632	477388.43354389665
0.8064248621125346	484235.21993591153
0.806626468328063	491398.2779700541
0.8068281249451449	498833.29570826056
0.8070298319763813	506270.17220091063
0.8072315894343755	513708.9079126783
0.8074333973317341	521149.50330837676
0.8076352556810671	528396.4910770729
0.8078371644949874	535174.7670167381
0.8080391237861113	541954.7375253896
0.8082411335670578	548736.4030266643
0.8084431938504498	555519.7639443213
0.8086453046489125	562279.3139066556
0.8088474659750746	568565.662921014
0.8090496778415686	574853.5835226345
0.809251940261029	581143.0761044007
0.8094542532460944	587434.1410593177
0.8096566168094059	593726.7787804664
0.8098590309636085	600728.4926243147
0.8100614957213493	607897.553742131
0.8102640110952797	615068.4071252275
0.8104665770980536	622241.0532216727
0.8106691937423283	629415.4924796446
0.8108718610407639	636792.5176739068
0.8110745790060241	644324.922477667
0.8112773476507757	651859.2103826349
0.8114801669876885	659395.381859577
0.8116830370294355	666933.4373793841
0.8118859577886929	674185.5124626071
0.8120889292781401	680841.4924747667
0.8122919515104597	687499.136481929
0.8124950244983374	694158.4449000933
0.8126981482544621	700819.4181453612
0.8129013227915257	707647.2896367224
0.8131045481222237	716368.8112394122
0.8133078242592543	725092.5132225034
0.8135111512153191	733818.3961310881
0.813714529003123	742546.460510401
0.8139179576353739	751276.7069058103
0.8141214371247829	763041.4204846747
0.8143249674840641	775397.0862325851
0.814528548725935	787755.840896925
0.8147321808631167	800117.6852499476
0.8149358639083326	812482.6200640547
0.8151395978743097	823794.6774052201
0.8153433827737784	834396.1059978997
0.8155472186194719	845000.1849477236
0.8157511054241268	855606.9149172831
0.815955043200483	866216.2965693421
0.8161590319612831	878079.0600778798
0.8163630717192736	892236.5986486865
0.8165671624872033	906397.6766041203
0.8167713042778252	920562.2948290567
0.8169754971038948	934730.4542085564
0.8171797409781707	947722.7105687981
0.8173840359134155	951302.3398013648
0.8175883819223938	954882.8639412355
0.8177927790178745	958464.2832121432
0.8179972272126291	962046.5978378695
0.8182017265194322	965629.8080422488
0.8184062769510622	977729.7984375512
0.8186108785203001	991143.2823964155
0.8188155312399301	1004560.1197262513
0.8190202351227402	1017980.3112654348
0.819224990181521	1031403.8578524945
0.8194297964290664	1046611.6100043134
0.8196346538781738	1062896.5680787654
0.8198395625416434	1079185.5973927297
0.8200445224322789	1095478.6989640293
0.820249533562887	1111775.873810717
0.8204545959462778	1127130.5639162827
0.8206597095952644	1140965.6314815388
0.8208648745226633	1154804.1578136967
0.8210700907412941	1168646.1437774354
0.8212753582639793	1182491.5902376513
0.8214806771035456	1195530.2770799992
0.8216860472728215	1203580.2752314077
0.8218914687846397	1211632.2858823545
0.822096941651836	1219686.3095359684
0.822302465887249	1227742.3466954906
0.8225080415037209	1235800.3978643075
0.8227136685140968	1244181.1949757924
0.8229193469312254	1252600.4970071074
0.8231250767679583	1261021.903863933
0.8233308580371503	1269445.416072468
0.8235366907516598	1277871.0341590617
0.8237425749243477	1295034.442058336
0.8239485105680789	1316832.2065841188
0.824154497695721	1338635.420551019
0.824360536320145	1360444.0853214154
0.8245666264542252	1382258.2022580032
0.8247727681108388	1401040.1510785306
0.8249789613028664	1415476.3494710494
0.8251852060431922	1429916.156913179
0.825391502344703	1444359.5743071625
0.8255978502202894	1458806.6025555078
0.8258042496828445	1473541.6982482763
0.8260107007452654	1489661.9567932072
0.8262172034204517	1505786.245402758
0.8264237577213068	1521914.5650844655
0.8266303636607373	1538046.9168461005
0.8268370212516525	1554183.301695668
0.8270437305069654	1565699.7429361523
0.8272504914395923	1576857.7294811902
0.8274573040624523	1588018.505522867
0.8276641683884679	1599182.0717585443
0.8278710844305652	1610348.4288857938
0.8280780522016729	1624768.0892947519
0.8282850717147234	1640677.1574940218
0.8284921429826521	1656590.202960325
0.8286992660183978	1672507.2266880071
0.8289064408349024	1688428.2296716103
0.8291136674451112	1703634.8433109138
0.8293209458619727	1717939.430541314
0.8295282760984382	1732247.5939185028
0.829735658167463	1746559.3343365525
0.8299430920820048	1760874.6526896884
0.8301505778550254	1775415.1103001542
0.8303581154994891	1790843.5155733363
0.8305657050283641	1806275.777947852
0.8307733464546212	1821711.8983879494
0.8309810397912352	1837151.877858182
0.8311887850511829	1852595.7173232515
0.8313965822474458	1875217.6332681105
0.8316044313930077	1898178.1979840156
0.8318123325008561	1921144.5028411208
0.8320202855839813	1944116.5492744292
0.8322282906553774	1967094.338719348
0.8324363477280413	1985021.9231584512
0.8326444568149735	2000918.4820805232
0.8328526179291771	2016819.0151423072
0.8330608310836596	2032723.5233373805
0.8332690962914304	2048632.0076594816
0.8334774135655034	2061960.5629411067
0.833685782918895	2072406.1423254916
0.8338942043646247	2082854.333104716
0.834102677915716	2093305.1359316427
0.834311203585195	2103758.5514592677
0.8345197813860912	2116335.082171033
0.8347284113314379	2136052.5644770935
0.8349370934342709	2155774.9761537192
0.8351458277076294	2175502.3184332405
0.8353546141645565	2195234.5925483643
0.8355634528180977	2214971.7997320085
0.8357723436813022	2229610.2602911256
0.8359812867672226	2244189.363010203
0.8361902820889144	2258772.1105049527
0.8363993296594368	2273358.5036865803
0.8366084294918518	2287948.5434665084
0.8368175815992247	2310533.3261591643
0.8370267859946247	2335875.970381995
0.8372360426911234	2361224.950265874
0.8374453517017962	2386580.2673947215
0.8376547130397217	2411941.923352848
0.8378641267179816	2434517.539608543
0.8380735927496613	2454328.0328112366
0.8382831111478488	2474143.478637219
0.8384926819256358	2493963.8783246474
0.8387023050961173	2513789.233112015
0.8389119806723914	2533249.398878868
0.8391217086675596	2551672.7196975965
0.8393314890947265	2570100.6463465155
0.8395413219670003	2588533.179977099
0.8397512072974922	2606970.3217411023
0.8399611450993165	2625412.1122830054
0.8401711353855914	2643860.4744549445
0.8403811781694378	2662313.4487174214
0.8405912734639802	2680771.0362234684
0.8408014212823464	2699233.2381264004
0.8410116216376671	2717700.055579806
0.8412218745430766	2735725.572191777
0.8414321800117124	2753625.850384427
0.8416425380567154	2771530.603646633
0.8418529486912297	2789439.8330971594
0.8420634119284025	2807353.5398550327
0.8422739277813847	2837604.267680237
0.8424844962633302	2878728.006802487
0.842695117387396	2919862.0268594655
0.8429057911667428	2961006.33042146
0.8431165176145345	3002160.9200593643
0.8433272967439382	3034029.1565358373
0.8435381285681244	3043228.2727394933
0.8437490131002665	3052429.6887221984
0.8439599503535415	3061633.4050588934
0.84417094034113	3070839.4223246793
0.8443819830762154	3080778.287658288
0.8445930785719846	3105436.5606826125
0.8448042268416277	3130100.9982751794
0.8450154278983382	3154771.601977141
0.8452266817553128	3179448.373330027
0.8454379884257517	3204131.3138757534
0.8456493479228583	3236486.123873523
0.845860760259839	3270695.0149545968
0.846072225449904	3304912.4582584403
0.8462837435062666	3339138.455923117
0.8464953144421433	3373373.01008723
0.8467069382707537	3402044.300150823
0.8469186150053215	3426379.693332514
0.847130344659073	3450721.1703625075
0.8473421272452377	3475068.7327617346
0.8475539627770492	3499422.382051586
0.8477658512677435	3521450.725148371
0.8479777927305605	3538534.165889337
0.8481897871787432	3555621.877490484
0.848401834625538	3572713.861019541
0.8486139350841944	3589810.1175444694
0.8488260885679657	3604357.160865808
0.8490382950901076	3587781.737646349
0.8492505546638802	3571202.170571076
0.8494628673025462	3554618.458604041
0.8496752330193721	3538030.6007089894
0.8498876518276269	3521438.5958494865
0.8501001237405839	3365677.211643847
0.8503126487715191	3182097.0627791695
0.850525226933712	2998471.0188773777
0.8507378582404455	2814799.0684646126
0.8509505427050057	2631081.200064137
0.8511632803406821	2488110.7672752985
0.8513760711607672	2373040.57700778
0.8515889151785576	2257941.6191925155
0.8518018124073523	2142813.886637894
0.8520147628604541	2027657.3721502014
0.8522277665511693	1995674.8442526087
0.8524408234928071	2117557.797112802
0.8526539336986805	2239471.220711243
0.8528670971821053	2361415.1226655915
0.8530803139564007	2483389.5105952844
0.8532935840348901	2622232.394322555
0.8535069074308987	2903315.5215877653
0.8537202841577566	3184468.9196350276
0.8539337142287962	3465692.606031834
0.8541471976573534	3746986.5983500634
0.8543607344567677	4028350.9141664235
0.8545743246403821	4137174.3711893666
0.8547879682215422	4218612.402689351
0.8550016652135977	4300070.793697199
0.8552154156299011	4381549.549302803
0.8554292194838088	4463048.674597369
0.8556430767886797	4523521.474331026
0.855856987557877	4571230.391693182
0.8560709518047664	4618951.236284649
0.8562849695427177	4666684.011087282
0.8564990407851035	4714428.719083628
0.8567131655452999	4758440.929350313
0.8569273438366862	4796328.762751064
0.8571415756726455	4834226.068110174
0.8573558610665638	4872132.847795636
0.8575702000318304	4910049.104175979
0.8577845925818384	4948055.344174246
0.857999038729984	4986573.946833762
0.8582135384896665	5025102.179143934
0.858428091874289	5063640.043512184
0.8586426988972576	5102187.542346517
0.8588573595719821	5140744.678055571
0.8590720739118751	5171252.049618125
0.8592868419303532	5200816.820277715
0.8595016636408359	5230388.98212997
0.8597165390567462	5259968.537022678
0.8599314681915105	5289555.486804117
0.8601464510585584	5300351.554383203
0.860361487671323	5301172.325742331
0.8605765780432408	5301993.302294299
0.8607917221877518	5302814.484090405
0.8610069201182988	5303635.871181959
0.8612221718483286	5285377.6410481725
0.8614374773912907	5239608.700044728
0.8616528367606385	5193828.316806044
0.8618682499698288	5148036.488471522
0.8620837170323213	5102233.212179924
0.8622992379615795	5068929.864823297
0.8625148127710699	5097532.216690567
0.8627304414742627	5126141.7191458065
0.8629461240846313	5154758.373976664
0.8631618606156526	5183382.182971232
0.8633776510808066	5212013.147918043
0.8635934954935769	5264326.594345075
0.8638093938674504	5318593.828240628
0.8640253462159173	5372874.628944654
0.8642413525524714	5427168.999848854
0.8644574128906095	5481476.944345769
0.8646735272438323	5538300.848207391
0.8648896956256433	5596302.635188723
0.8651059180495498	5654318.922616804
0.8653221945290621	5712349.714116687
0.8655385250776946	5770395.013314525
0.8657549097089641	5825225.723547512
0.8659713484363913	5875936.183249166
0.8661878412735006	5926659.32056577
0.866404388233819	5977395.138666697
0.8666209893308775	6028143.640722125
0.8668376445782103	6075951.840183789
0.8670543539893549	6111719.341593767
0.8672711175778525	6147495.784879121
0.8674879353572469	6183281.172275257
0.8677048073410862	6219075.506018257
0.8679217335429217	6254878.788344713
0.8681387139763074	6300266.279551014
0.8683557486548015	6346140.792055393
0.8685728375919655	6392026.773187954
0.8687899808013633	6437924.2258156985
0.8690071782965637	6483833.152806659
0.869224430091138	6519192.618882488
0.8694417361986609	6550263.692443404
0.8696590966327107	6581342.533772704
0.869876511406869	6612429.144812337
0.8700939805347206	6643523.527504716
0.8703115040298544	6677539.152667053
0.870529081905862	6714894.219494161
0.8707467141763385	6752258.625087963
0.8709644008548827	6789632.371783162
0.8711821419550964	6827015.461915011
0.8713999374905854	6864705.771004478
0.871617787474958	6903433.566383083
0.8718356919218269	6942171.043710569
0.8720536508448075	6980918.205407388
0.8722716642575187	7019675.053894608
0.8724897321735832	7058441.591593969
0.8727078546066265	7103611.37508344
0.8729260315702784	7148889.717950902
0.873144263078171	7194179.380404033
0.8733625491439405	7239480.36527278
0.8735808897812266	7284792.675387763
0.8737992850036719	7321800.162617718
0.874017734824923	7355871.457789155
0.8742362392586293	7389951.270784371
0.874454798318444	7424039.603732833
0.8746734120180236	7458136.45876453
0.8748920803710283	7495604.073613784
0.875110803391121	7536459.781772093
0.8753295810919689	7577325.703857464
0.875548413487242	7618201.842423356
0.8757673005906139	7659088.200023892
0.8759862424157616	7707544.598714989
0.8762052389763657	7777887.806000822
0.8764242902861098	7848248.599088429
0.8766433963586814	7918626.982374325
0.8768625572077712	7989022.960256066
0.8770817728470732	8059075.92537442
0.8773010432902849	8100990.747589435
0.8775203685511077	8142916.048510063
0.8777397486432454	8184851.830755871
0.8779591835804065	8226798.09694729
0.8781786733763015	8268754.849705202
0.8783982180446457	8292845.2175276745
0.878617817599157	8311623.572034705
0.8788374720535569	8330406.621130354
0.8790571814215703	8349194.365988271
0.8792769457169257	8367986.807782404
0.879496764953355	8402249.389745608
0.8797166391445934	8450424.985553475
0.8799365683043796	8498612.6252603
0.8801565524464557	8546812.311877048
0.8803765915845676	8595024.048415497
0.8805966857324639	8639725.893905917
0.880816834903897	8675592.84741013
0.881037039112623	8711468.767652731
0.8812572983724012	8747353.65687539
0.8814776126969944	8783247.517320372
0.8816979821001687	8818405.01883984
0.8819184065956938	8836026.0598062
0.8821388861973429	8853651.50603282
0.8823594209188923	8871281.35862098
0.882580010774122	8888915.61867228
0.8828006557768155	8906554.2872886
0.8830213559407598	8961749.365636373
0.8832421112797452	9026402.951949637
0.8834629218075651	9091072.701659441
0.8836837875380171	9155758.61880669
0.8839047084849018	9220460.707433239
0.884125684662023	9269757.266270455
0.8843467160831886	9306707.622018684
0.8845678027622095	9343667.215355853
0.8847889447129001	9380636.04859136
0.8850101419490785	9417614.124035172
0.8852313944845657	9474411.451172976
0.885452702333187	9574584.653638432
0.8856740655087704	9674782.89940449
0.8858954840251476	9775006.194731964
0.8861169578961539	9875254.545883222
0.886338487135628	9965034.2241515
0.886560071757412	9915191.94695791
0.8867817117753515	9865337.209195023
0.8870034072032955	9815470.007747674
0.8872251580550963	9765590.339500021
0.8874469643446101	9715698.201335276
0.8876688260856963	9750478.267525066
0.8878907432922178	9802793.608014598
0.8881127159780409	9855122.02733922
0.8883347441570356	9907463.528768735
0.8885568278430749	9959818.115573552
0.8887789670500358	9987311.835497754
0.8890011617917983	9997167.500363383
0.8892234120822464	10007025.629145233
0.8894457179352669	10016886.22245927
0.8896680793647509	10026749.280921644
0.8898904963845921	10021208.54954935
0.8901129690086883	9986270.891773535
0.8903354972509405	9951324.499583283
0.8905580811252535	9916369.370794958
0.8907807206455347	9881405.50322448
0.8910034158256963	9836981.24931878
0.8912261666796527	9708076.876206612
0.8914489732213227	9579140.277001131
0.8916718354646282	9450171.44364572
0.8918947534234944	9321170.368082097
0.8921177271118502	9192137.042249661
0.8923407565436284	8694025.725254264
0.8925638417327644	8135588.486579294
0.8927869826931977	7577011.638594471
0.8930101794388711	7018295.1463976875
0.8932334319837308	6459438.975077945
0.8934567403417267	6105563.079089589
0.8936801045268123	5879056.6418149555
0.8939035245529441	5652493.577931156
0.8941270004340824	5425873.873281298
0.894350532184191	5199197.513705335
0.8945741198172371	5240973.731778557
0.8947977633471915	5728050.9508410925
0.8950214627880284	6215249.9392083725
0.8952452181537254	6702570.7273224555
0.8954690294582639	7190013.345633859
0.8956928967156286	7686783.208275929
0.8959168199398075	8243416.924222396
0.8961407991447926	8800189.798597991
0.8963648343445789	9357101.866192166
0.896588925553165	9914153.161802925
0.8968130727845534	10471343.720237657
0.8970372760527496	10649317.323243978
0.8972615353717629	10779870.312858064
0.8974858507556059	10910455.94071957
0.8977102222182949	11041074.214988003
0.8979346497738496	11171725.143825077
0.8981591334362931	11378242.399157874
0.8983836732196523	11626282.931398675
0.8986082691379572	11874385.473772371
0.8988329212052417	12122550.041781662
0.8990576294355432	12370776.650933169
0.8992823938429022	12548471.567213468
0.8995072144413631	12621246.972772922
0.8997320912449734	12694040.572183743
0.8999570242677847	12766852.369994398
0.9001820135238516	12839682.37075451
0.9004070590272328	12913546.412446683
0.9006321607919896	12992754.265563631
0.9008573188321878	13071981.920643939
0.9010825331618959	13151229.38263798
0.9013078037951865	13230496.65649753
0.9015331307461353	13309783.747175504
0.9017585140288219	13531589.423516387
0.9019839536573292	13765724.339166597
0.9022094496457435	13999917.788545549
0.9024350020081551	14234169.786287112
0.9026606107586572	14468480.347028034
0.902886275911347	14611927.838474408
0.9031119974803249	14711580.629239062
0.9033377754796951	14811258.333201408
0.903563609923565	14910960.956589699
0.903789500826046	15010688.505633906
0.9040154482012526	15074950.057232289
0.904241452063303	15093252.27414754
0.9044675124263188	15111559.066617018
0.9046936293044254	15129870.435784608
0.9049198027117517	15148186.382794501
0.9051460326624297	15177316.331238357
0.9053723191705955	15252482.597610014
0.9055986622503881	15327667.655548193
0.9058250619159507	15402871.50975086
0.9060515181814298	15478094.164917124
0.9062780310609752	15553335.62574713
0.9065046005687405	15515473.398581699
0.906731226718883	15471290.93612457
0.9069579095255627	15427097.428051887
0.907184649002944	15382892.871602181
0.907411445165195	15338677.264013318
0.9076382980264862	15496594.55390513
0.907865207600993	15738501.331740486
0.9080921739028933	15980468.586270228
0.9083191969463691	16222496.332613563
0.9085462767456058	16464584.585893605
0.9087734133147922	16591784.680241054
0.9090006066681211	16586249.423246115
0.909227856819788	16580712.782436935
0.9094551637839932	16575174.757467546
0.9096825275749393	16569635.347991915
0.9099099482068329	16554673.166046973
0.9101374256938848	16506223.468602581
0.9103649600503083	16457761.658733852
0.9105925512903209	16409287.733412664
0.9108201994281437	16360801.689610096
0.9110479044780008	16312303.524296632
0.9112756664541204	16571723.089139886
0.911503485370734	16838255.968961705
0.9117313612420768	17104855.482003484
0.9119592940823873	17371521.644923437
0.912187283905908	17638254.47438421
0.9124153307268845	17648568.021536507
0.9126434345595664	17565794.73360054
0.9128715954182063	17483000.75234266
0.9130998133170609	17400186.07258943
0.9133280882703902	17317350.689166263
0.913556420292458	17331047.667614028
0.9137848093975312	17444324.67778108
0.9140132555998806	17557630.007200655
0.9142417589137806	17670963.662952594
0.9144703193535092	17784325.652118545
0.9146989369333476	17884081.78699022
