#wavelength	surface flux
0.7	17467809.599605266
0.7001166666666666	17548810.606434446
0.7002333527777778	17623117.803763818
0.700350058336574	17697437.385626048
0.7004667833462966	17771769.354085155
0.7005835278101878	17846113.711205877
0.7007002917314895	17920470.459052667
0.7008170751134447	17994839.599690754
0.7009338779592968	18069221.13518558
0.7010507002722901	18100374.34010078
0.7011675420556689	18078911.646615595
0.701284403312678	18057445.376014866
0.7014012840465635	18035975.527702335
0.7015181842605713	18014502.101081762
0.701635103957948	17993025.095556762
0.701752043141941	17971544.510530848
0.701869001815798	17950060.345407397
0.7019859799827672	17904918.66609205
0.7021029776460976	17843307.657348465
0.7022199948090387	17781686.38010335
0.7023370314748403	17720054.832645386
0.7024540876467528	17658413.013262857
0.702571163328027	17596760.920243863
0.7026882585219152	17535098.55187587
0.7028053732316688	17473425.906446572
0.7029225074605406	17455691.500557058
0.7030396612117841	17454924.677384786
0.7031568344886527	17454157.72640865
0.7032740272944008	17453390.647607353
0.7033912396322832	17452623.440959588
0.7035084715055552	17451856.10644405
0.7036257229174727	17451088.644039426
0.7037429938712924	17450321.0537244
0.7038602843702709	17540871.86379582
0.7039775944176659	17646926.056325614
0.7040949240167356	17752997.924554203
0.7042122731707383	17859087.471427444
0.7043296418829335	17965194.699891888
0.7044470301565806	18071319.612894394
0.70456443799494	18177462.21338232
0.7046818654012724	18283622.50430372
0.7047993123788394	18069305.67733973
0.7049167789309024	17854585.348886378
0.7050342650607243	17639829.233711287
0.7051517707715678	17425037.32585043
0.7052692960666963	17210209.619338375
0.705386840949374	16995346.108208656
0.7055044054228656	16780446.7864934
0.7056219894904361	16607844.346046105
0.7057395931553511	16704232.926661992
0.705857216420877	16800637.572041392
0.7059748592902804	16897058.284861635
0.7060925217668288	16993495.06780078
0.70621020385379	17089947.92353706
0.7063279055544321	17186416.854749177
0.7064456268720246	17282901.864116646
0.7065633678098366	17369371.62849292
0.7066811283711383	17428229.34922233
0.7067989085592001	17487096.87957186
0.7069167083772933	17545974.221176405
0.7070345278286895	17604861.37567126
0.707152366916661	17663758.344691876
0.7072702256444803	17722665.129873928
0.7073881040154211	17781581.732853588
0.7075060020327569	17810576.849611856
0.7076239196997625	17795986.42077414
0.7077418570197124	17781393.560198296
0.7078598139958823	17766798.267479025
0.7079777906315483	17752200.542210955
0.7080957869299869	17737600.383988686
0.7082138028944751	17722997.79240672
0.7083318385282908	17708392.767059475
0.7084498938347124	17691734.503795173
0.708567968817018	17673334.750833344
0.7086860634784875	17654931.931246
0.7088041778224007	17636526.044522043
0.7089223118520377	17618117.090150323
0.7090404655706796	17599705.06761955
0.709158638981608	17581289.97641834
0.709276832088105	17562871.816035252
0.7093950448934531	17591525.506902307
0.7095132774009353	17642634.51102765
0.7096315296138355	17693752.033320364
0.7097498015354378	17744878.075200114
0.7098680931690269	17796012.638086796
0.7099864045178884	17847155.72340069
0.7101047355853081	17898307.332562126
0.7102230863745722	17949467.466991723
0.7103414568889679	17915144.259185456
0.7104598471317828	17861389.564035505
0.7105782571063047	17807625.909769733
0.7106966868158224	17753853.29489492
0.710815136263625	17700071.71791764
0.7109336054530023	17646281.177344162
0.7110520943872445	17592481.671680607
0.7111706030696424	17538673.199432746
0.7112891315034873	17586849.268938184
0.7114076796920712	17639899.77188028
0.7115262476386865	17692959.116572864
0.7116448353466263	17746027.30448953
0.711763442819184	17799104.337104212
0.711882070059654	17852190.21589104
0.7120007170713306	17905284.9423243
0.7121193838575091	17960335.93235545
0.7122380704214853	18035707.132058423
0.7123567767665555	18111090.893627938
0.7124755028960166	18186487.21915775
0.7125942488131658	18261896.110741764
0.7127130145213015	18337317.570474584
0.7128318000237216	18412751.600450456
0.7129506053237256	18488198.202764764
0.7130694304246129	18538652.247203894
0.7131882753296837	18501687.94926171
0.7133071400422386	18464717.49060319
0.7134260245655789	18427740.870201588
0.7135449289030065	18390758.087029908
0.7136638530578235	18353769.14006105
0.7137827970333332	18316774.028267644
0.7139017608328388	18279772.750622284
0.7140207444596443	18265542.229407795
0.7141397479170543	18291941.107053984
0.7142587712083737	18318344.38451308
0.7143778143369084	18344752.06251844
0.7144968773059646	18371164.141803473
0.7146159601188489	18397580.62310171
0.7147350627788687	18424001.507146835
0.7148541852893318	18450426.79467262
0.7149733276535467	18504735.964167524
0.7150924898748222	18587167.227415863
0.715211671956468	18669612.229208093
0.7153308739017941	18752070.971834023
0.715450095714111	18834543.45758368
0.71556933739673	18917029.688747644
0.7156885989529628	18999529.66761679
0.7158078803861218	19082043.396482535
0.7159271816995193	19105738.517405834
0.7160465028964692	19094906.662521124
0.7161658439802853	19084073.002327263
0.7162852049542819	19073237.536523376
0.7164045858217744	19062400.26480851
0.716523986586078	19051561.1868817
0.7166434072505089	19040720.302441906
0.716762847818384	19029877.611188035
0.7168823082930204	19076623.33701222
0.7170017886777359	19140319.652667608
0.7171212889758488	19204026.584375564
0.7172408091906781	19267744.13390549
0.7173603493255433	19331472.303027023
0.7174799093837642	19395211.09351004
0.7175994893686615	19458960.507124834
0.7177190892835562	19522720.545641866
0.7178387091317702	19606131.10062046
0.7179583489166254	19691527.06590749
0.7180780086414448	19776937.263855465
0.7181976883095517	19862361.69683643
0.7183173879242699	19947800.3672229
0.718437107488924	20033253.27738779
0.7185568470068389	20118720.429704405
0.7186766064813399	20202557.28380732
0.7187963859157535	20245290.917978533
0.7189161853134061	20288031.674422108
0.719036004677625	20330779.554325093
0.7191558440117378	20373534.5588747
0.7192757033190732	20416296.68925846
0.7193955826029597	20459065.946663897
0.7195154818667269	20501842.332278945
0.7196354011137046	20532868.308356196
0.7197553403472235	20509765.64450175
0.7198752995706147	20486659.130203336
0.7199952787872098	20463548.76481919
0.720115278000341	20440434.547707483
0.7202352972133411	20417316.478226252
0.7203553364295432	20394194.55573348
0.7204753956522815	20371068.779586922
0.7205954748848902	20348695.049464215
0.7207155741307044	20327984.06807737
0.7208356933930594	20307269.634860333
0.7209558326752915	20286551.749237753
0.7210759919807375	20265830.410634205
0.7211961713127342	20245105.618474253
0.7213163706746197	20224377.372182243
0.7214365900697322	20203645.671182536
0.7215568295014103	20247006.90309348
0.721677088972994	20366853.15085979
0.7217973684878227	20486719.37300053
0.7219176680492374	20606605.5728451
0.7220379876605789	20726511.753722906
0.722158327325189	20846437.918964237
0.7222786870464099	20966384.071899712
0.7223990668275843	21086350.215860724
0.7225194666720555	21145730.037115272
0.7226398865831676	21162166.54083111
0.7227603265642646	21178605.783964198
0.722880786618692	21195047.766971175
0.7230012667497951	21211492.490308642
0.7231217669609201	21227939.954433337
0.7232422872554135	21244390.159802034
0.7233628276366229	21260843.106871657
0.7234833881078956	21229861.385471255
0.7236039686725803	21180864.346329793
0.7237245693340255	21131859.141015224
0.7238451900955812	21082845.768166345
0.7239658309605971	21033824.226422045
0.7240864919324239	20984794.514420725
0.7242071730144127	20935756.63080074
0.724327874209915	20886710.574200246
0.7244485955222832	20969196.13261497
0.7245693369548704	21073444.431480106
0.7246900985110294	21177710.105061565
0.7248108801941148	21281993.156255566
0.7249316820074803	21386293.587957747
0.7250525039544815	21490611.403065383
0.7251733460384739	21594946.604475558
0.7252942082628137	21699111.252967197
0.7254150906308574	21694393.645979293
0.7255359931459625	21689675.252723556
0.7256569158114868	21684956.073068943
0.7257778586307888	21680236.106884383
0.7258988216072273	21675515.354038797
0.7260198047441617	21670793.81440107
0.7261408080449525	21666071.487840068
0.72626183151296	21657574.221390937
0.7263828751515454	21623994.127709124
0.7265039389640706	21590408.437345043
0.726625022953898	21556817.14936588
0.7267461271243904	21523220.262838703
0.7268672514789111	21489617.77683046
0.7269883960208241	21456009.690407913
0.7271095607534942	21422396.002637606
0.7272307456802866	21378122.78102305
0.7273519508045666	21305063.339814436
0.7274731761297006	21231991.72203232
0.7275944216590555	21158907.925647244
0.7277156873959987	21085811.94862941
0.7278369733438982	21012703.78894862
0.727958279506122	20939583.444574747
0.7280796058860397	20866450.91347672
0.7282009524870207	20805119.852415193
0.7283223193124353	20761252.2864304
0.7284437063656539	20717377.409184705
0.7285651136500483	20673495.219459396
0.7286865411689898	20629605.716035888
0.7288079889258514	20585708.897695035
0.7289294569240056	20541804.763217896
0.7290509451668262	20497893.31138496
0.7291724536576875	20539608.746433765
0.7292939823999636	20652288.291603725
0.7294155313970303	20764986.616698105
0.7295371006522632	20877703.72484664
0.7296586901690385	20990439.619179778
0.7297802999507332	21103194.302828588
0.7299019300007252	21215967.77892496
0.7300235803223919	21328760.050600383
0.7301452509191123	21393925.490535073
0.7302669417942654	21437110.02396714
0.7303886529512311	21480301.75482146
0.7305103843933897	21523500.6842976
0.7306321361241218	21566706.813595284
0.7307539081468093	21609920.1439146
0.7308757004648336	21653140.67645554
0.7309975130815778	21696368.41241862
0.7311193460004248	21749091.91274285
0.7312411992247582	21803972.28911058
0.7313630727579622	21858861.812207688
0.7314849666034219	21913760.483558703
0.7316068807645224	21968668.304688245
0.7317288152446498	22023585.277121335
0.7318507700471907	22078511.40238319
0.7319727451755319	22133446.681999233
0.732094740633061	22208833.060162824
0.7322167564231665	22285152.30545573
0.7323387925492371	22361484.270622857
0.7324608490146619	22437828.957784157
0.732582925822831	22514186.369060002
0.7327050229771347	22590556.506570973
0.7328271404809642	22666939.372438274
0.7329492783377112	22732598.355571296
0.7330714365507675	22692716.011382595
0.7331936151235259	22652827.020136535
0.7333158140593796	22612931.380725313
0.7334380333617229	22573029.092040792
0.7335602730339499	22533120.15297481
0.7336825330794556	22493204.56241897
0.7338048135016354	22453282.31926479
0.7339271143038857	22372558.41318064
0.734049435489603	22155129.798905637
0.7341717770621846	21937664.94652821
0.7342941390250283	21720163.850008838
0.7344165213815324	21502626.50330679
0.734538924135096	21285052.900379974
0.7346613472891185	21067443.03518629
0.734783790847	20849796.90168166
0.7349062548121412	20596121.56791297
0.7350287391879431	20278784.98840203
0.7351512439778078	19961395.519460525
0.7352737691851374	19643953.152274575
0.735396314813335	19326457.87802715
0.7355188808658037	19008909.687901206
0.7356414673459482	18691308.573076263
0.7357640742571725	18373654.5247324
0.7358867016028818	18214792.36292462
0.7360093493864824	18212777.317287907
0.7361320176113801	18210761.935810257
0.736254706280982	18208746.218435694
0.7363774153986956	18206730.16510823
0.7365001449679286	18204713.775771886
0.7366228949920899	18202697.050370652
0.7367456654745885	18200679.988848515
0.7368684564188344	18116840.203140244
0.7369912678282374	17986742.154793892
0.7371140997062088	17856622.423439424
0.7372369520561599	17726481.005462945
0.7373598248815024	17596317.89725043
0.7374827181856494	17466133.095186323
0.7376056319720137	17335926.5956552
0.7377285662440091	17205698.395040795
0.7378515210050496	17186058.25807648
0.7379744962585505	17199693.962139335
0.738097492007927	17213331.938819528
0.7382205082565949	17226972.18849583
0.738343545007971	17240614.711547073
0.7384666022654723	17254259.50835217
0.7385896800325165	17267906.57929005
0.7387127783125219	17281555.92473977
0.7388358971089073	17224325.892298564
0.7389590364250921	17159976.71581167
0.7390821962644963	17095616.814461976
0.7392053766305403	17031246.186462153
0.7393285775266454	16966864.830024283
0.7394517989562333	16902472.74336028
0.7395750409227259	16838069.924681935
0.7396983034295463	16782780.68628814
0.739821586480118	16930459.390304707
0.7399448900778645	17078162.707438312
0.7400682142262109	17225890.64179189
0.740191558928582	17373643.197467707
0.7403149241884034	17521420.37856935
0.7404383100091014	17669222.189201213
0.7405617163941028	17817048.633468088
0.7406851433468352	17905257.070080463
0.7408085908707264	17720629.44892806
0.7409320589692048	17535971.05650555
0.7410555476456997	17351281.887684155
0.7411790569036406	17166561.93733476
0.7413025867464579	16981811.20032692
0.7414261371775823	16797029.671529528
0.7415497082004452	16612217.345810812
0.7416732998184786	16474966.852372246
0.741796912035115	16439789.054783048
0.7419205448537874	16404605.394227594
0.7420441982779297	16369415.869728714
0.742167872310976	16334220.480309052
0.7422915669563612	16299019.224991154
0.7424152822175206	16263812.10279738
0.7425390180978901	16228599.112749929
0.7426627746009065	16160045.070251385
0.7427865517300065	16050841.626172755
0.7429103494886282	15941619.981519997
0.7430341678802096	15832380.133259881
0.7431580069081896	15723122.078358397
0.7432818665760077	15613845.81378094
0.7434057468871037	15504551.336492812
0.7435296478449182	15395238.64345853
0.7436535694528923	15308080.672643784
0.7437775117144678	15236086.233729005
0.7439014746330868	15164079.79574118
0.7440254582121922	15092061.356680296
0.7441494624552276	15020030.914546207
0.7442734873656368	14947988.467338443
0.7443975329468645	14875934.013056086
0.7445215992023557	14803867.549698027
0.7446456861355559	14732512.966153631
0.7447697937499119	14661413.152361922
0.7448939220488703	14590301.488601265
0.7450180710358784	14519177.972896712
0.7451422407143843	14448042.603272865
0.7452664310878367	14376895.377754014
0.7453906421596846	14305736.29436432
0.7455148739333779	14234565.351127371
0.7456391264123667	14198407.05571767
0.7457633996001021	14167842.95934554
0.7458876935000356	14137273.768957293
0.7460120081156189	14106699.48370404
0.7461363434503048	14076120.102736564
0.7462606995075466	14045535.625205565
0.7463850762907978	14014946.050261691
0.7465094738035127	13984160.884012107
0.7466338920491467	13903538.666509965
0.746758331031155	13822903.011971494
0.7468827907529935	13742253.918157363
0.7470072712181189	13661591.382827593
0.7471317724299886	13580915.403741919
0.7472562943920602	13500225.978659788
0.7473808371077922	13419523.105340071
0.7475054005806435	13339061.926122617
0.7476299848140736	13260158.92726699
0.7477545898115426	13181242.777911536
0.7478792155765113	13102313.475864505
0.7480038621124406	13023371.01893386
0.7481285294227926	12944415.40492708
0.7482532175110298	12865446.631651215
0.7483779263806148	12786464.696913248
0.7485026560350116	12708406.226943886
0.7486274064776842	12632869.69698316
0.748752177712097	12557320.577600913
0.7488769697417158	12481758.866698608
0.749001782570006	12406184.56217791
0.7491266162004343	12330597.661939815
0.7492514706364677	12254998.163884979
0.7493763458815739	12179386.065913724
0.7495012419392209	12095528.584549025
0.7496261588128773	11999821.52261046
0.7497510965060128	11904098.509494837
0.7498760550220971	11808359.542543732
0.7500010343646007	11712604.61909812
0.7501260345369949	11616833.736498551
0.750251055542751	11521046.892085327
0.7503760973853414	11425244.083197974
0.7505011600682389	11321798.051611908
0.750626243594917	11211966.195029719
0.7507513479688495	11102116.033138264
0.7508764731935109	10992247.562886458
0.7510016192723765	10882360.781222913
0.7511267862089218	10772455.685095862
0.7512519740066232	10662532.271452751
0.7513771826689577	10552590.537240636
0.7515024121994025	10444768.042534277
0.7516276626014359	10337924.229466783
0.751752933878536	10231062.609097298
0.7518782260341824	10124183.178457715
0.7520035390718548	10017285.934579644
0.7521288729950334	9910370.874494316
0.7522542278071992	9803437.995232299
0.7523796035118337	9696487.293823685
0.7525050001124189	9583442.745920563
0.7526304176124378	9469057.95849626
0.7527558560153731	9354654.106940866
0.752881315324709	9240231.188076768
0.7530067955439299	9125789.198726151
0.7531322966765205	9011328.135710796
0.7532578187259665	8896847.995851569
0.7533833616957542	8782348.775969038
0.75350892558937	8648264.219060821
0.7536345104103016	8513237.253550587
0.7537601161620366	8378187.783546173
0.7538857428480638	8243115.805296626
0.7540113904718717	8108021.3150508795
0.7541370590369503	7972904.309056788
0.7542627485467898	7837764.7835616125
0.7543884590048808	7702563.828413149
0.7545141904147151	7566952.36075148
0.7546399427797842	7431318.291178753
0.7547657161035808	7295661.615927741
0.754891510389598	7159982.331230862
0.7550173256413296	7024280.433319813
0.7551431618622698	6888555.9184258105
0.7552690190559135	6752808.7827793555
0.7553948972257561	6616338.469151253
0.7555207963752938	6477493.916254881
0.755646716508023	6338626.222599773
0.755772657627441	6199735.384329007
0.7558986197370455	6060821.397585176
0.756024602840335	5921884.258510256
0.7561506069408084	5782923.9632454915
0.7562766320419653	5643940.507931392
0.7564026781473054	5506533.722924062
0.75652874526033	5371919.318182471
0.7566548333845401	5237282.4777066875
0.7567809425234375	5102623.197757538
0.7569070726805247	4967941.474595142
0.7570332238593047	4833237.304478902
0.7571593960632813	4698510.683667515
0.7572855892959586	4563761.60841932
0.7574118035608413	4435956.9028378995
0.7575380388614347	4314946.771519184
0.7576642952012449	4193916.4718452035
0.7577905725837782	4072866.0004547853
0.7579168710125422	3951795.353985586
0.7580431904910444	3830704.529075264
0.7581695310227928	3709593.5223609423
0.7582958926112967	3588462.330478683
0.7584222752600652	3475347.142800237
0.7585486789726085	3366829.5886225225
0.7586751037524372	3258293.9481857372
0.7588015496030628	3149740.218475334
0.7589280165279966	3041168.39647686
0.7590545045307512	2932578.47917472
0.7591810136148396	2823970.463553032
0.7593075437837755	2715344.346595247
0.7594340950410726	2620124.1859517596
0.7595606673902461	2528782.966222886
0.7596872608348112	2437426.522957299
0.7598138753782836	2346054.853617935
0.75994051102418	2254667.9556669295
0.7600671677760173	2163265.8265663367
0.7601938456373134	2071848.4637774902
0.7603205446115863	1980415.864761564
0.7604472647023548	1903945.7301624112
0.7605740059131385	1828951.6324480493
0.7607007682474575	1753945.0357173283
0.7608275517088319	1678925.937887319
0.7609543563007835	1603894.3368741714
0.7610811820268336	1528850.2305942334
0.7612080288905045	1453793.6169633928
0.7613348968953197	1379349.575471503
0.7614617860448022	1317718.420344837
0.7615886963424764	1256076.9933588991
0.7617156277918667	1194425.2928018565
0.7618425803964988	1132763.316961337
0.7619695541598982	1071091.0641248606
0.7620965490855914	1009408.5325796234
0.7622235651771058	947715.7206123908
0.7623506024379685	889005.1261867809
0.7624776608717082	843401.1994035529
0.7626047404818536	797789.6719658591
0.7627318412719337	752170.5426070039
0.762858963245479	706543.8100598936
0.7629861064060198	660909.4730573547
0.7631132707570876	615267.5303319347
0.7632404563022137	569617.9806161013
0.7633676630449308	527480.946712843
0.7634948909887717	492830.0653678328
0.7636221401372697	458173.4088759768
0.7637494104939593	423510.97627467284
0.7638767020623748	388842.7666013187
0.7640040148460518	354168.7788929795
0.7641313488485262	319489.01218669023
0.7642587040733344	284803.46551924385
0.7643860805240132	254933.54935843375
0.7645134782041005	230812.0440333266
0.7646408971171346	206686.51845732186
0.764768337266654	182556.97196039662
0.7648957986561985	158423.40387238073
