#wavelength	surface flux
0.8	22637271.9744844
0.8002000000000001	22903788.53388559
0.8004000500000003	23194680.81734657
0.8006001500125003	23485891.369671695
0.8008003000500035	23777174.724634927
0.8010005001250161	24068530.900437035
0.8012007502500472	24359959.91528267
0.8014010504376099	24650337.117863897
0.8016014007002193	24940410.1848168
0.8018018010503944	25230555.770036437
0.8020022515006572	25520773.89165251
0.8022027520635323	25811064.567798737
0.8024033027515483	26097706.98986252
0.8026039035772362	26380774.807326786
0.8028045545531306	26663913.391745433
0.8030052556917691	26947122.76081032
0.803206007005692	27230402.93221722
0.8034068085074435	27510046.287309058
0.8036076602095705	27779366.50467522
0.8038085621246229	28048754.05209551
0.8040095142651542	28318208.946402825
0.8042105166437206	28587731.204433624
0.8044115692728815	28857222.280171834
0.8046126721651998	29122541.366543956
0.8048138253332411	29387926.782687455
0.8050150287895745	29653378.54518524
0.805216282546772	29918896.670623578
0.8054175866174087	30184481.175593134
0.8056189410140631	30482866.01372152
0.8058203457493168	30790591.27531372
0.8060218008357541	31098393.468220927
0.8062233062859632	31406272.61167651
0.8064248621125346	31714228.72491775
0.806626468328063	32029275.268394608
0.8068281249451449	32350424.271058206
0.8070298319763813	32671653.560972862
0.8072315894343755	32992963.158209756
0.8074333973317341	33314353.082846083
0.8076352556810671	33631191.76588845
0.8078371644949874	33936960.65030835
0.8080391237861113	34242805.97694942
0.8082411335670578	34548727.76492197
0.8084431938504498	34854726.033341825
0.8086453046489125	35161763.6095841
0.8088474659750746	35486803.7099852
0.8090496778415686	35811925.070411816
0.809251940261029	36137127.71117831
0.8094542532460944	36462411.65260527
0.8096566168094059	36787776.915017225
0.8098590309636085	37137009.087322645
0.8100614957213493	37491895.774212286
0.8102640110952797	37846871.18277369
0.8104665770980536	38201935.33518737
0.8106691937423283	38557088.25363929
0.8108718610407639	38908235.107795894
0.8110745790060241	39256338.629864015
0.8112773476507757	39604529.177812956
0.8114801669876885	39952806.773398794
0.8116830370294355	40301171.43838332
0.8118859577886929	40644631.70597135
0.8120889292781401	40977810.29861413
0.8122919515104597	41311072.18590505
0.8124950244983374	41644417.3886678
0.8126981482544621	41977845.92773119
0.8129013227915257	42316486.273531795
0.8131045481222237	42713932.811428465
0.8133078242592543	43111478.71095965
0.8135111512153191	43509123.99696561
0.813714529003123	43906868.69429313
0.8139179576353739	44304712.827795036
0.8141214371247829	44772781.116960905
0.8143249674840641	45254564.78097232
0.814528548725935	45736468.89089945
0.8147321808631167	46218493.47685471
0.8149358639083326	46700638.56895631
0.8151395978743097	47104293.47715989
0.8153433827737784	47454936.59832214
0.8155472186194719	47805667.38026455
0.8157511054241268	48156485.84490238
0.815955043200483	48507392.01415661
0.8161590319612831	48616400.42454158
0.8163630717192736	48282027.18182832
0.8165671624872033	47947570.34580474
0.8167713042778252	47613029.89557184
0.8169754971038948	47278405.81022621
0.8171797409781707	46725915.99705161
0.8173840359134155	44434666.3330401
0.8175883819223938	42142843.856615245
0.8177927790178745	39850448.42456996
0.8179972272126291	37557479.893666066
0.8182017265194322	35263938.12063176
0.8184062769510622	34617340.40706756
0.8186108785203001	34224109.594364904
0.8188155312399301	33830780.4739596
0.8190202351227402	33437353.021273762
0.819224990181521	33043827.211724997
0.8194297964290664	35178020.23725576
0.8196346538781738	38836384.15444827
0.8198395625416434	42495662.66261864
0.8200445224322789	46155855.990417585
0.820249533562887	49816964.3665474
0.8204545959462778	52678366.7231748
0.8206597095952644	54251906.06745362
0.8208648745226633	55825838.79656973
0.8210700907412941	57400165.00886787
0.8212753582639793	58974884.80271748
0.8214806771035456	60426284.33820553
0.8216860472728215	61115818.13728027
0.8218914687846397	61805524.31980481
0.822096941651836	62495402.92887534
0.822302465887249	63185454.00759774
0.8225080415037209	63875677.59909019
0.8227136685140968	64482138.41857217
0.8229193469312254	65079222.43930215
0.8231250767679583	65676455.73103751
0.8233308580371503	66273838.33109548
0.8235366907516598	66871370.2768039
0.8237425749243477	67578268.31543128
0.8239485105680789	68343229.8547994
0.824154497695721	69108382.63455188
0.824360536320145	69873726.70249945
0.8245666264542252	70639262.10646395
0.8247727681108388	71316027.51639979
0.8249789613028664	71865552.680898
0.8251852060431922	72415215.2266878
0.825391502344703	72965015.1881138
0.8255978502202894	73514952.59953065
0.8258042496828445	74074600.44634378
0.8260107007452654	74680879.91602886
0.8262172034204517	75287310.95558074
0.8264237577213068	75893893.60289267
0.8266303636607373	76500627.89586669
0.8268370212516525	77107513.87241367
0.8270437305069654	77618648.74046226
0.8272504914395923	78122417.20935063
0.8274573040624523	78626311.62035634
0.8276641683884679	79130332.00496435
0.8278710844305652	79634478.39466912
0.8280780522016729	80159912.20114832
0.8282850717147234	80695150.1937713
0.8284921429826521	81230521.99589191
0.8286992660183978	81766027.64096346
0.8289064408349024	82301667.1624459
0.8291136674451112	82862001.86404032
0.8293209458619727	83453447.18032312
0.8295282760984382	84045040.35793422
0.829735658167463	84636781.43384041
0.8299430920820048	85228670.44501482
0.8301505778550254	85811606.32551134
0.8303581154994891	86358362.77303159
0.8305657050283641	86905255.90966427
0.8307733464546212	87452285.7695807
0.8309810397912352	87999452.386963
0.8311887850511829	88546755.79599854
0.8313965822474458	89172649.16487907
0.8316044313930077	89802340.43204719
0.8318123325008561	90432189.1220327
0.8320202855839813	91062195.2741904
0.8322282906553774	91692358.92788619
0.8324363477280413	92327314.76095168
0.8326444568149735	92964295.22206777
0.8328526179291771	93601434.9282984
0.8330608310836596	94238733.91945653
0.8332690962914304	94876192.23536162
0.8334774135655034	95451607.91811281
0.833685782918895	95957685.78064834
0.8338942043646247	96463890.16264918
0.834102677915716	96970221.0957459
0.834311203585195	97476678.61157548
0.8345197813860912	98000735.6033423
0.8347284113314379	98583738.89535642
0.8349370934342709	99166887.93819322
0.8351458277076294	99750182.76829001
0.8353546141645565	100333623.42209531
0.8355634528180977	100917209.93606381
0.8357723436813022	101379858.41413306
0.8359812867672226	101841127.47627904
0.8361902820889144	102302511.85569032
0.8363993296594368	102764011.58119659
0.8366084294918518	103225626.6816344
0.8368175815992247	103824535.60177024
0.8370267859946247	104470839.90456103
0.8372360426911234	105117305.78342733
0.8374453517017962	105763933.2787633
0.8376547130397217	106410722.430973
0.8378641267179816	106992586.99523251
0.8380735927496613	107510014.51144187
0.8382831111478488	108027571.38452998
0.8384926819256358	108545257.64683609
0.8387023050961173	109063073.33070822
0.8389119806723914	109578503.4653145
0.8391217086675596	110086984.41668493
0.8393314890947265	110595592.4882928
0.8395413219670003	111104327.71191862
0.8397512072974922	111613190.11935072
0.8399611450993165	112117919.7512363
0.8401711353855914	112411225.92756815
0.8403811781694378	112704605.430444
0.8405912734639802	112998058.27819565
0.8408014212823464	113291584.48915938
0.8410116216376671	113585184.0816758
0.8412218745430766	114113483.39390264
0.8414321800117124	114710181.98610523
0.8416425380567154	115307029.75295614
0.8418529486912297	115904026.73174891
0.8420634119284025	116501172.95978588
0.8422739277813847	117318975.78253143
0.8424844962633302	118331258.55097088
0.842695117387396	119343794.39010116
0.8429057911667428	120356583.36319128
0.8431165176145345	121369625.53352514
0.8433272967439382	122114231.79981755
0.8435381285681244	122203616.8377102
0.8437490131002665	122293024.22186232
0.8439599503535415	122382453.95786043
0.84417094034113	122471906.05129258
0.8443819830762154	122573323.76775822
0.8445930785719846	122915364.83255488
0.8448042268416277	123257491.40761754
0.8450154278983382	123599703.51432392
0.8452266817553128	123942001.17405696
0.8454379884257517	124284384.40820496
0.8456493479228583	125051815.98720771
0.845860760259839	125921775.56146745
0.846072225449904	126791952.62562075
0.8462837435062666	127662347.23404028
0.8464953144421433	128532959.4411124
0.8467069382707537	129265240.57307288
0.8469186150053215	129889710.29679325
0.847130344659073	130514336.13794471
0.8473421272452377	131139118.13555586
0.8475539627770492	131764056.32866704
0.8477658512677435	132280549.77025153
0.8479777927305605	132566572.44207212
0.8481897871787432	132852666.6195606
0.848401834625538	133138832.32059361
0.8486139350841944	133425069.56305172
0.8488260885679657	133638708.36804923
0.8490382950901076	132966579.1200714
0.8492505546638802	132294281.83978124
0.8494628673025462	131621816.48517124
0.8496752330193721	130949183.01422161
0.8498876518276269	130276381.38490513
0.8501001237405839	124943049.60617921
0.8503126487715191	118678094.40030152
0.850525226933712	112411572.95562583
0.8507378582404455	106143484.88058905
0.8509505427050057	99873829.78352988
0.8511632803406821	94459632.75131994
0.8513760711607672	89630987.68697143
0.8515889151785576	84801135.46134931
0.8518018124073523	79970075.77267483
0.8520147628604541	75137808.31908104
0.8522277665511693	73285662.40341684
0.8524408234928071	76946662.18115735
0.8526539336986805	80608577.20884326
0.8528670971821053	84271407.71528633
0.8530803139564007	87935153.92935169
0.8532935840348901	91805668.76147683
0.8535069074308987	97415682.30848448
0.8537202841577566	103027098.35888359
0.8539337142287962	108639917.26329593
0.8541471976573534	114254139.37243088
0.8543607344567677	119869765.03709413
0.8545743246403821	119617681.38320903
0.8547879682215422	118433452.4476739
0.8550016652135977	117248927.45490503
0.8552154156299011	116064106.3308879
0.8554292194838088	114878989.00158891
0.8556430767886797	113955212.89633498
0.855856987557877	113190065.22884834
0.8560709518047664	112424726.27444533
0.8562849695427177	111659195.98530342
0.8564990407851035	110893474.313589
0.8567131655452999	109856267.06074855
0.8569273438366862	108374275.98629797
0.8571415756726455	106891914.4140785
0.8573558610665638	105409182.25146544
0.8575702000318304	103926079.40581334
0.8577845925818384	102963673.12335408
0.857999038729984	105255804.80096033
0.8582135384896665	107548509.51148547
0.858428091874289	109841787.39818837
0.8586426988972576	112135638.60436232
0.8588573595719821	114430063.27333862
0.8590720739118751	113483542.92965172
0.8592868419303532	112154601.22509478
0.8595016636408359	110825327.2851117
0.8597165390567462	109495721.02664405
0.8599314681915105	108165782.36661147
0.8601464510585584	105753994.80439842
0.860361487671323	102767542.93057531
0.8605765780432408	99780344.44378462
0.8607917221877518	96792399.15736978
0.8610069201182988	93803706.88463415
0.8612221718483286	88817371.78390326
0.8614374773912907	80950994.77272303
0.8616528367606385	73082651.16729215
0.8618682499698288	65212340.47595492
0.8620837170323213	57340062.206946164
0.8622992379615795	50760888.60590122
0.8625148127710699	50588889.02307025
0.8627304414742627	50416846.440343566
0.8629461240846313	50244760.84697117
0.8631618606156526	50072632.232200414
0.8633776510808066	49900460.58527599
0.8635934954935769	52619874.75427438
0.8638093938674504	55577000.82427722
0.8640253462159173	58534866.17579746
0.8642413525524714	61493470.99365552
0.8644574128906095	64452815.462717414
0.8646735272438323	65782734.45066573
0.8648896956256433	66354913.8761116
0.8651059180495498	66927236.346413866
0.8653221945290621	67499701.89733316
0.8655385250776946	68072310.56464098
0.8657549097089641	69313528.1226976
0.8659713484363913	71410839.07625745
0.8661878412735006	73508674.35755667
0.866404388233819	75607034.09767592
0.8666209893308775	77705918.42772923
0.8668376445782103	79321811.54081847
0.8670543539893549	78964634.63176005
0.8672711175778525	78607368.42847411
0.8674879353572469	78250012.90863776
0.8677048073410862	77892568.0499213
0.8679217335429217	77535033.82998995
0.8681387139763074	77923942.69148882
0.8683557486548015	78350034.61110435
0.8685728375919655	78776233.05370031
0.8687899808013633	79202538.04590599
0.8690071782965637	79628949.61436027
0.869224430091138	79242658.8993212
0.8694417361986609	78525540.70324089
0.8696590966327107	77808243.2276117
0.869876511406869	77090766.42761359
0.8700939805347206	76373110.25841582
0.8703115040298544	75961368.40661554
0.870529081905862	75899477.30400676
0.8707467141763385	75837570.72862236
0.8709644008548827	75775648.67659411
0.8711821419550964	75713711.1440529
0.8713999374905854	75650408.5203008
0.871617787474958	75582432.1094697
0.8718356919218269	75514438.70453581
0.8720536508448075	75446428.3012507
0.8722716642575187	75378400.89536479
0.8724897321735832	75310356.48262739
0.8727078546066265	76512280.79843
0.8729260315702784	77733826.24446014
0.873144263078171	78955677.07685049
0.8733625491439405	80177833.37194905
0.8735808897812266	81400295.20612185
0.8737992850036719	81461828.03673446
0.874017734824923	81112086.04241377
0.8742362392586293	80762256.61259465
0.874454798318444	80412339.72541809
0.8746734120180236	80062335.35901976
0.8748920803710283	79751498.93292968
0.875110803391121	79480032.77581777
0.8753295810919689	79208498.75216642
0.875548413487242	78936896.84500915
0.8757673005906139	78665227.03737509
0.8759862424157616	79218131.97382128
0.8762052389763657	82157317.59476972
0.8764242902861098	85097238.01212136
0.8766433963586814	88037893.40957813
0.8768625572077712	90979283.97088517
0.8770817728470732	93886927.40382878
0.8773010432902849	94102993.02868603
0.8775203685511077	94319112.66994978
0.8777397486432454	94535286.34112358
0.8779591835804065	94751514.05571546
0.8781786733763015	94967795.82723567
0.8783982180446457	93168546.34367278
0.878617817599157	90769248.08757079
0.8788374720535569	88369350.0069059
0.8790571814215703	85968851.95172144
0.8792769457169257	83567753.77202314
0.879496764953355	82722964.84359157
0.8797166391445934	83277728.64128877
0.8799365683043796	83832631.12993544
0.8801565524464557	84387672.34420428
0.8803765915845676	84942852.31877719
0.8805966857324639	85451827.83506344
0.880816834903897	85844530.2361275
0.881037039112623	86237330.81279197
0.8812572983724012	86630229.58960058
0.8814776126969944	87023226.59110355
0.8816979821001687	87426008.71288852
0.8819184065956938	88056922.10477859
0.8821388861973429	88687993.22501726
0.8823594209188923	89319222.11303538
0.882580010774122	89950608.80827524
0.8828006557768155	90582153.35018924
0.8830213559407598	92361369.22580878
0.8832421112797452	94429641.18554571
0.8834629218075651	96498430.21327133
0.8836837875380171	98567736.43825449
0.8839047084849018	100637559.98979424
0.884125684662023	100554772.59748355
0.8843467160831886	98746507.08207665
0.8845678027622095	96937789.50029092
0.8847889447129001	95128619.73910938
0.8850101419490785	93318997.6854879
0.8852313944845657	94247695.4625887
0.885452702333187	101171461.92701037
0.8856740655087704	108096959.33304712
0.8858954840251476	115024188.11343354
0.8861169578961539	121953148.70101184
0.886338487135628	128123897.58273073
0.886560071757412	124183305.89712615
0.8867817117753515	120241729.06360027
0.8870034072032955	116299166.83586423
0.8872251580550963	112355618.96757588
0.8874469643446101	108411085.21231802
0.8876688260856963	107853296.41933902
0.8878907432922178	107996502.54572928
0.8881127159780409	108139744.47365105
0.8883347441570356	108283022.21205498
0.8885568278430749	108426335.76989336
0.8887789670500358	107207914.80468708
0.8890011617917983	105023185.23690818
0.8892234120822464	102837909.48673634
0.8894457179352669	100652087.41762874
0.8896680793647509	98465718.89300212
0.8898904963845921	96997998.85879867
0.8901129690086883	96902155.0433934
0.8903354972509405	96806287.26703429
0.8905580811252535	96710395.52373102
0.8907807206455347	96614479.80749206
0.8910034158256963	96629996.03098433
0.8912261666796527	97641593.65139894
0.8914489732213227	98653444.17121895
0.8916718354646282	99665547.6536699
0.8918947534234944	100677904.16199048
0.8921177271118502	101690513.7594375
0.8923407565436284	101613606.99480793
0.8925638417327644	101358909.96344751
0.8927869826931977	101104149.25782917
0.8930101794388711	100849324.86203444
0.8932334319837308	100594436.76014079
0.8934567403417267	100702976.57046483
0.8936801045268123	101037410.7779912
0.8939035245529441	101371928.59406923
0.8941270004340824	101706530.03960142
0.894350532184191	102041215.13549489
0.8945741198172371	104784077.33273056
0.8947977633471915	111521160.95294093
0.8950214627880284	118259928.84405605
0.8952452181537254	125000381.42713997
0.8954690294582639	131742519.1233737
0.8956928967156286	138092494.12515903
0.8959168199398075	141888121.91521767
0.8961407991447926	145684698.61222482
0.8963648343445789	149482224.4534061
0.896588925553165	153280699.6760455
0.8968130727845534	157080124.5174911
0.8970372760527496	156550534.12863582
0.8972615353717629	155479045.51236326
0.8974858507556059	154407289.0239365
0.8977102222182949	153335264.59638792
0.8979346497738496	152262972.1627319
0.8981591334362931	151558411.90574214
0.8983836732196523	151054926.192298
0.8986082691379572	150551314.60742587
0.8988329212052417	150047577.1196575
0.8990576294355432	149543713.69751674
0.8992823938429022	148996952.79326618
0.8995072144413631	148386459.38954595
0.8997320912449734	147775813.362475
0.8999570242677847	147165014.67389742
0.9001820135238516	146554063.28564766
0.9004070590272328	146840430.4099156
0.9006321607919896	151831719.60453624
0.9008573188321878	156824256.62146062
0.9010825331618959	161818041.77263683
0.9013078037951865	166813075.37010163
0.9015331307461353	171809357.72596318
0.9017585140288219	176631332.9754256
0.9019839536573292	181439392.6101352
0.9022094496457435	186248654.25975
0.9024350020081551	191059118.22478268
0.9026606107586572	195870784.80580506
0.902886275911347	197850527.48979974
0.9031119974803249	198465000.78140682
0.9033377754796951	199079627.69133678
0.903563609923565	199694408.257994
0.903789500826046	200309342.51979324
0.9040154482012526	198967523.1815792
0.904241452063303	195090365.80465847
0.9044675124263188	191212239.1383944
0.9046936293044254	187333142.94046432
0.9049198027117517	183453076.96848288
0.9051460326624297	180029033.44697833
0.9053723191705955	178550114.15182936
0.9055986622503881	177070825.126858
0.9058250619159507	175591166.27963033
0.9060515181814298	174111137.51768994
0.9062780310609752	172630738.74856007
0.9065046005687405	178126000.78747392
0.906731226718883	184011808.78148574
0.9069579095255627	189899088.22748834
0.907184649002944	195787839.4933529
0.907411445165195	201678062.94703993
0.9076382980264862	204998254.4620272
0.907865207600993	207251334.97095913
0.9080921739028933	209504978.75001767
0.9083191969463691	211759185.9400206
0.9085462767456058	214013956.68182212
0.9087734133147922	214145330.6295887
0.9090006066681211	211823536.73169082
0.909227856819788	209501162.38532153
0.9094551637839932	207178207.44536245
0.9096825275749393	204854671.76666912
0.9099099482068329	203621856.91390294
0.9101374256938848	206267239.0569689
0.9103649600503083	208913282.5455694
0.9105925512903209	211559987.5450415
0.9108201994281437	214207354.22076628
0.9110479044780008	216855382.73815694
0.9112756664541204	221795161.9028765
0.911503485370734	226788618.62745193
0.9117313612420768	231783323.71620852
0.9119592940823873	236779277.48123577
0.912187283905908	241776480.23470587
0.9124153307268845	243020891.05310526
0.9126434345595664	242903115.43523082
0.9128715954182063	242785310.373452
0.9130998133170609	242667475.86040768
0.9133280882703902	242549611.8887351
0.913556420292458	241784617.33207923
0.9137848093975312	240352066.58806473
0.9140132555998806	238919157.7063644
0.9142417589137806	237485890.59744358
0.9144703193535092	236052265.17174459
0.9146989369333476	234972540.38379288
