#wavelength	surface flux
0.7	78631335.54718584
0.7001166666666666	79000386.62436593
0.7002333527777778	80197328.64445817
0.700350058336574	81394470.15488651
0.7004667833462966	82591811.18889837
0.7005835278101878	83789351.77975254
0.7007002917314895	84987091.96070324
0.7008170751134447	86185031.76501727
0.7009338779592968	87383171.2259648
0.7010507002722901	88077914.04566543
0.7011675420556689	88159929.40136221
0.701284403312678	88241958.4262848
0.7014012840465635	88324001.12271167
0.7015181842605713	88406057.49292125
0.701635103957948	88488127.53919248
0.701752043141941	88570211.26380475
0.701869001815798	88652308.6690379
0.7019859799827672	88742163.35694796
0.7021029776460976	88837422.13005902
0.7022199948090387	88932696.77963239
0.7023370314748403	89027987.30831398
0.7024540876467528	89123293.71875033
0.702571163328027	89218616.01358826
0.7026882585219152	89313954.1954756
0.7028053732316688	89409308.26705977
0.7029225074605406	89077765.00019698
0.7030396612117841	88581315.69897282
0.7031568344886527	88084783.65619838
0.7032740272944008	87588168.8580838
0.7033912396322832	87091471.29083595
0.7035084715055552	86594690.9406607
0.7036257229174727	86097827.79376024
0.7037429938712924	85600881.83633482
0.7038602843702709	86423557.55720833
0.7039775944176659	87470201.93172736
0.7040949240167356	88517020.74697591
0.7042122731707383	89564014.03202644
0.7043296418829335	90611181.81595841
0.7044470301565806	91658524.12785418
0.70456443799494	92706040.99680114
0.7046818654012724	93753732.45189354
0.7047993123788394	89366746.26571934
0.7049167789309024	84972792.18104103
0.7050342650607243	80578105.77067515
0.7051517707715678	76182686.91257627
0.7052692960666963	71786535.48466988
0.705386840949374	67389651.3648607
0.7055044054228656	62992034.431024395
0.7056219894904361	59308039.806590535
0.7057395931553511	60163082.72201336
0.705857216420877	61018268.14458943
0.7059748592902804	61873596.09806879
0.7060925217668288	62729066.606207915
0.70621020385379	63584679.69276492
0.7063279055544321	64440435.38150195
0.7064456268720246	65296333.696188405
0.7065633678098366	66021944.03602926
0.7066811283711383	66388466.97910639
0.7067989085592001	66755051.00934071
0.7069167083772933	67121696.13691317
0.7070345278286895	67488402.37200712
0.707152366916661	67855169.724807
0.7072702256444803	68221998.20549858
0.7073881040154211	68588887.82427077
0.7075060020327569	68859093.7738182
0.7076239196997625	68988450.69767645
0.7077418570197124	69117829.18102188
0.7078598139958823	69247229.22744788
0.7079777906315483	69376650.8405484
0.7080957869299869	69506094.02391768
0.7082138028944751	69635558.78115077
0.7083318385282908	69765045.1158435
0.7084498938347124	69614308.92353383
0.708567968817018	69225950.92744635
0.7086860634784875	68837528.20502575
0.7088041778224007	68449040.74548443
0.7089223118520377	68060488.5380337
0.7090404655706796	67671871.57188194
0.709158638981608	67283189.83623537
0.709276832088105	66894443.32029946
0.7093950448934531	66867589.593032256
0.7095132774009353	67013352.8647345
0.7096315296138355	67159140.43031542
0.7097498015354378	67304952.2938239
0.7098680931690269	67450788.45930949
0.7099864045178884	67596648.93082283
0.7101047355853081	67742533.71241474
0.7102230863745722	67888442.80813682
0.7103414568889679	67863339.50337933
0.7104598471317828	67799368.44263089
0.7105782571063047	67735386.72003902
0.7106966868158224	67671394.33382675
0.710815136263625	67607391.28221677
0.7109336054530023	67543377.56343149
0.7110520943872445	67479353.1756931
0.7111706030696424	67415318.11722337
0.7112891315034873	67868309.01486574
0.7114076796920712	68346044.71758972
0.7115262476386865	68823860.04293084
0.7116448353466263	69301755.0041592
0.711763442819184	69779729.614548
0.711882070059654	70257783.88737229
0.7120007170713306	70735917.83590841
0.7121193838575091	71195366.54590356
0.7122380704214853	71459178.43985623
0.7123567767665555	71723034.30245762
0.7124755028960166	71986934.14103623
0.7125942488131658	72250877.96292108
0.7127130145213015	72514865.77544363
0.7128318000237216	72778897.58593412
0.7129506053237256	73042973.40172674
0.7130694304246129	73221539.22328734
0.7131882753296837	73101007.8587437
0.7133071400422386	72980456.40563925
0.7134260245655789	72859884.86062604
0.7135449289030065	72739293.22035529
0.7136638530578235	72618681.48147789
0.7137827970333332	72498049.64064384
0.7139017608328388	72377397.69450301
0.7140207444596443	72433959.1032903
0.7141397479170543	72806696.84789068
0.7142587712083737	73179496.71544798
0.7143778143369084	73552358.71631683
0.7144968773059646	73925282.86085258
0.7146159601188489	74298269.1594123
0.7147350627788687	74671317.62235513
0.7148541852893318	75044428.26004165
0.7149733276535467	75480379.66629969
0.7150924898748222	75979708.2515083
0.715211671956468	76479120.05814789
0.7153308739017941	76978615.10008898
0.715450095714111	77478193.3912035
0.71556933739673	77977854.94536659
0.7156885989529628	78477599.77645531
0.7158078803861218	78977427.89834996
0.7159271816995193	79239229.78493065
0.7160465028964692	79361319.86046717
0.7161658439802853	79483430.2843496
0.7162852049542819	79605561.05996932
0.7164045858217744	79727712.1907184
0.716523986586078	79849883.6799892
0.7166434072505089	79972075.53117484
0.716762847818384	80094287.74766904
0.7168823082930204	80516646.41203783
0.7170017886777359	81027371.28479424
0.7171212889758488	81538181.27836245
0.7172408091906781	82049076.40692973
0.7173603493255433	82560056.68468527
0.7174799093837642	83071122.12582015
0.7175994893686615	83582272.74452876
0.7177190892835562	84093508.55500692
0.7178387091317702	84796352.0216092
0.7179583489166254	85518538.20245227
0.7180780086414448	86240844.74765937
0.7181976883095517	86963271.67729066
0.7183173879242699	87685819.01141028
0.718437107488924	88408486.77008577
0.7185568470068389	89131274.97338797
0.7186766064813399	89848630.82237929
0.7187963859157535	90427273.51803675
0.7189161853134061	91006012.65414345
0.719036004677625	91584848.2467729
0.7191558440117378	92163780.31200075
0.7192757033190732	92742808.86590695
0.7193955826029597	93321933.92457145
0.7195154818667269	93901155.50407957
0.7196354011137046	94377424.19906346
0.7197553403472235	94379314.31562577
0.7198752995706147	94381204.7472075
0.7199952787872098	94383095.49386115
0.720115278000341	94384986.55563925
0.7202352972133411	94386877.93259431
0.7203553364295432	94388769.62477885
0.7204753956522815	94390661.63224544
0.7205954748848902	94358099.59968942
0.7207155741307044	94249573.16372861
0.7208356933930594	94141028.64002866
0.7209558326752915	94032466.02557473
0.7210759919807375	93923885.3173516
0.7211961713127342	93815286.51234388
0.7213163706746197	93706669.60753517
0.7214365900697322	93598034.5999091
0.7215568295014103	93998239.82061462
0.721677088972994	95005665.45863572
0.7217973684878227	96013259.00092813
0.7219176680492374	97021020.4754788
0.7220379876605789	98028949.91027461
0.722158327325189	99037047.33330992
0.7222786870464099	100045312.77258189
0.7223990668275843	101053746.25609414
0.7225194666720555	101628723.1021005
0.7226398865831676	101896475.09003255
0.7227603265642646	102164271.70329526
0.722880786618692	102432112.94932744
0.7230012667497951	102699998.8355671
0.7231217669609201	102967929.3694545
0.7232422872554135	103235904.55843064
0.7233628276366229	103503924.40993875
0.7234833881078956	103588282.63889937
0.7236039686725803	103602908.73784876
0.7237245693340255	103617537.27448127
0.7238451900955812	103632168.24920325
0.7239658309605971	103646801.662421
0.7240864919324239	103661437.51454097
0.7242071730144127	103676075.80596964
0.724327874209915	103690716.5371135
0.7244485955222832	104715344.28294894
0.7245693369548704	105907135.216633
0.7246900985110294	107099124.7821376
0.7248108801941148	108291313.01257294
0.7249316820074803	109483699.9410427
0.7250525039544815	110676285.60066915
0.7251733460384739	111869070.0245724
0.7252942082628137	113060534.25594985
0.7254150906308574	113372046.1889027
0.7255359931459625	113683610.04051109
0.7256569158114868	113995225.81942816
0.7257778586307888	114306893.53430855
0.7258988216072273	114618613.19380799
0.7260198047441617	114930384.80658367
0.7261408080449525	115242208.38129534
0.72626183151296	115516685.20575222
0.7263828751515454	115542671.81856795
0.7265039389640706	115568662.76248579
0.726625022953898	115594658.03822765
0.7267461271243904	115620657.64651546
0.7268672514789111	115646661.58807132
0.7269883960208241	115672669.8636174
0.7271095607534942	115698682.4738761
0.7272307456802866	115680409.90740831
0.7273519508045666	115542497.63286783
0.7274731761297006	115404562.37294832
0.7275944216590555	115266604.12381881
0.7277156873959987	115128622.88164777
0.7278369733438982	114990618.64260277
0.727958279506122	114852591.40285166
0.7280796058860397	114714541.15856041
0.7282009524870207	114710615.76988165
0.7283223193124353	114905109.35649607
0.7284437063656539	115099635.35870785
0.7285651136500483	115294193.78192031
0.7286865411689898	115488784.63153626
0.7288079889258514	115683407.91296093
0.7289294569240056	115878063.63159874
0.7290509451668262	116072751.79285653
0.7291724536576875	116989953.52185524
0.7292939823999636	118505961.49893981
0.7294155313970303	120022222.14402361
0.7295371006522632	121538735.49921452
0.7296586901690385	123055501.6066301
0.7297802999507332	124572520.50839625
0.7299019300007252	126089792.24664995
0.7300235803223919	127607316.8635226
0.7301452509191123	128671670.81251393
0.7302669417942654	129526915.67771938
0.7303886529512311	130382303.08373597
0.7305103843933897	131237833.05432045
0.7306321361241218	132093505.6132327
0.7307539081468093	132949320.78423962
0.7308757004648336	133805278.59110655
0.7309975130815778	134661379.057609
0.7311193460004248	135761486.30631006
0.7312411992247582	136916984.62500596
0.7313630727579622	138072675.52675474
0.7314849666034219	139228559.04365495
0.7316068807645224	140384635.2078073
0.7317288152446498	141540904.05132085
0.7318507700471907	142697365.60630894
0.7319727451755319	143854019.90488905
0.732094740633061	145537419.265266
0.7322167564231665	147244804.7428837
0.7323387925492371	148952474.78474775
0.7324608490146619	150660429.438285
0.732582925822831	152368668.75093156
0.7327050229771347	154077192.77012825
0.7328271404809642	155786001.54332992
0.7329492783377112	157380029.59948018
0.7330714365507675	157843107.50554845
0.7331936151235259	158306262.5912676
0.7333158140593796	158769494.8695005
0.7334380333617229	159232804.35311383
0.7335602730339499	159696191.05497462
0.7336825330794556	160159654.9879525
0.7338048135016354	160623196.1649183
0.7339271143038857	160353048.8056123
0.734049435489603	157624237.86843443
0.7341717770621846	154894972.12943324
0.7342941390250283	152165251.51281026
0.7344165213815324	149435075.94275224
0.734538924135096	146704445.34342852
0.7346613472891185	143973359.63900852
0.734783790847	141241818.7536368
0.7349062548121412	137867790.67979074
0.7350287391879431	133358382.6076777
0.7351512439778078	128848222.9675434
0.7352737691851374	124337311.63414118
0.735396314813335	119825648.48217939
0.7355188808658037	115313233.38636643
0.7356414673459482	110800066.22136159
0.7357640742571725	106286146.8618324
0.7358867016028818	104316128.67828389
0.7360093493864824	104858856.96328057
0.7361320176113801	105401675.7029907
0.736254706280982	105944584.91249076
0.7363774153986956	106487584.60685979
0.7365001449679286	107030674.80117676
0.7366228949920899	107573855.51052657
0.7367456654745885	108117126.74999459
0.7368684564188344	106933214.17501536
0.7369912678282374	104772885.21456434
0.7371140997062088	102612196.19928569
0.7372369520561599	100451147.0691691
0.7373598248815024	98289737.76420237
0.7374827181856494	96127968.22434784
0.7376056319720137	93965838.38956985
0.7377285662440091	91803348.19981904
0.7378515210050496	91976010.45385446
0.7379744962585505	92851386.25438601
0.738097492007927	93726907.9508841
0.7382205082565949	94602575.5676644
0.738343545007971	95478389.12904732
0.7384666022654723	96354348.65935801
0.7385896800325165	97230454.18292244
0.7387127783125219	98106705.72407524
0.7388358971089073	96661204.04798584
0.7389590364250921	94982569.1961492
0.7390821962644963	93303654.571836
0.7392053766305403	91624460.12842119
0.7393285775266454	89944985.81926459
0.7394517989562333	88265231.59772153
0.7395750409227259	86585197.41714425
0.7396983034295463	85185362.90793891
0.739821586480118	90024774.24507326
0.7399448900778645	94864992.15075418
0.7400682142262109	99706016.7594341
0.740191558928582	104547848.20554367
0.7403149241884034	109390486.62355709
0.7404383100091014	114233932.14797473
0.7405617163941028	119078184.91331004
0.7406851433468352	122438316.89587498
0.7408085908707264	119005819.68820134
0.7409320589692048	115572750.3976614
0.7410555476456997	112139108.9289036
0.7411790569036406	108704895.18657017
0.7413025867464579	105270109.07527871
0.7414261371775823	101834750.49963443
0.7415497082004452	98398819.36423019
0.7416732998184786	96212145.62874717
0.741796912035115	96706238.98886229
0.7419205448537874	97200414.69787064
0.7420441982779297	97694672.76949716
0.742167872310976	98189013.2174694
0.7422915669563612	98683436.05551627
0.7424152822175206	99177941.29736936
0.7425390180978901	99672528.95676246
0.7426627746009065	99008711.30083258
0.7427865517300065	96932503.4882352
0.7429103494886282	94855949.64100021
0.7430341678802096	92779049.70145895
0.7431580069081896	90701803.6119279
0.7432818665760077	88624211.3147123
0.7434057468871037	86546272.75211559
0.7435296478449182	84467987.8664263
0.7436535694528923	82934516.75413036
0.7437775117144678	81773968.91062118
0.7439014746330868	80613227.64247315
0.7440254582121922	79452292.91744609
0.7441494624552276	78291164.70329773
0.7442734873656368	77129842.9677806
0.7443975329468645	75968327.67863996
0.7445215992023557	74806618.80361792
0.7446456861355559	74157012.13686466
0.7447697937499119	73696013.38232282
0.7448939220488703	73234937.79465531
0.7450180710358784	72773785.36105694
0.7451422407143843	72312556.06871958
0.7452664310878367	71851249.90483308
0.7453906421596846	71389866.85658641
0.7455148739333779	70928406.91116488
0.7456391264123667	71904980.0110323
0.7457633996001021	73111661.70269603
0.7458876935000356	74318544.50797719
0.7460120081156189	75525628.46039024
0.7461363434503048	76732913.59346262
0.7462606995075466	77940399.94072492
0.7463850762907978	79148087.53570996
0.7465094738035127	80352131.85429853
0.7466338920491467	80550661.95003821
0.746758331031155	80749225.13412738
0.7468827907529935	80947821.41208032
0.7470072712181189	81146450.78941293
0.7471317724299886	81345113.2716418
0.7472562943920602	81543808.86428423
0.7473808371077922	81742537.57285894
0.7475054005806435	81992694.79187275
0.7476299848140736	82559469.14393032
0.7477545898115426	83126337.95838001
0.7478792155765113	83693301.2509656
0.7480038621124406	84260359.03743282
0.7481285294227926	84827511.33353099
0.7482532175110298	85394758.15501244
0.7483779263806148	85962099.51763003
0.7485026560350116	86469778.60747075
0.7486274064776842	86815812.688914
0.748752177712097	87161904.44270352
0.7488769697417158	87508053.87845275
0.749001782570006	87854261.00577419
0.7491266162004343	88200525.8342834
0.7492514706364677	88546848.37359752
0.7493763458815739	88893228.63333522
0.7495012419392209	88900260.62136142
0.7496261588128773	88419357.2069795
0.7497510965060128	87938373.64202818
0.7498760550220971	87457309.91314957
0.7500010343646007	86976166.00698271
0.7501260345369949	86494941.9101646
0.750251055542751	86013637.6093309
0.7503760973853414	85532253.09111342
0.7505011600682389	85135798.98301218
0.750626243594917	84810260.74049358
0.7507513479688495	84484668.24160169
0.7508764731935109	84159021.47729322
0.7510016192723765	83833320.43852395
0.7511267862089218	83507565.11624853
0.7512519740066232	83181755.50141926
0.7513771826689577	82855891.58498736
0.7515024121994025	83063428.14750981
0.7516276626014359	83519725.90089189
0.751752933878536	83976099.7038987
0.7518782260341824	84432549.56920618
0.7520035390718548	84889075.50949141
0.7521288729950334	85345677.53743313
0.7522542278071992	85802355.66571288
0.7523796035118337	86259109.90701422
0.7525050001124189	86824439.06156407
0.7526304176124378	87413458.49741957
0.7527558560153731	88002576.10318027
0.752881315324709	88591791.8952092
0.7530067955439299	89181105.88987033
0.7531322966765205	89770518.10352978
0.7532578187259665	90360028.55255836
0.7533833616957542	90949637.25332841
0.75350892558937	90896714.24280795
0.7536345104103016	90813564.11349767
0.7537601161620366	90730400.12583254
0.7538857428480638	90647222.27750273
0.7540113904718717	90564030.5661983
0.7541370590369503	90480824.98960868
0.7542627485467898	90397605.5454229
0.7543884590048808	90300793.60500243
0.7545141904147151	90068557.92889532
0.7546399427797842	89836283.54684258
0.7547657161035808	89603970.45239279
0.754891510389598	89371618.63909394
0.7550173256413296	89139228.10049276
0.7551431618622698	88906798.83013523
0.7552690190559135	88674330.821566
0.7553948972257561	88347848.59152336
0.7555207963752938	87705871.652219
0.755646716508023	87063787.71675846
0.755772657627441	86421596.76730844
0.7558986197370455	85779298.78603344
0.756024602840335	85136893.75509503
0.7561506069408084	84494381.6566515
0.7562766320419653	83851762.47285762
0.7564026781473054	83049666.28885612
0.75652874526033	81966987.92202586
0.7566548333845401	80884129.10880058
0.7567809425234375	79801089.81910679
0.7569070726805247	78717870.02286534
0.7570332238593047	77634469.68999134
0.7571593960632813	76550888.79039416
0.7572855892959586	75467127.2939803
0.7574118035608413	74518837.0764349
0.7575380388614347	73703101.49700288
0.7576642952012449	72887229.96164066
0.7577905725837782	72071222.44769038
0.7579168710125422	71255078.93248634
0.7580431904910444	70438799.39336278
0.7581695310227928	69622383.80765039
0.7582958926112967	68805832.1526727
0.7584222752600652	67212834.36512375
0.7585486789726085	65173610.58683901
0.7586751037524372	63134046.93792379
0.7588015496030628	61094143.36172977
0.7589280165279966	59053899.80161041
0.7590545045307512	57013316.20089771
0.7591810136148396	54972392.502918266
0.7593075437837755	52931128.65098615
0.7594340950410726	51923877.75029264
0.7595606673902461	51216562.65486324
0.7596872608348112	50509129.673583895
0.7598138753782836	49801578.78680845
0.75994051102418	49093909.974884555
0.7600671677760173	48386123.21815921
0.7601938456373134	47678218.49697389
0.7603205446115863	46970195.79166876
0.7604472647023548	45839765.7670467
0.7605740059131385	44667171.82990056
0.7607007682474575	43494382.46043043
0.7608275517088319	42321397.62606798
0.7609543563007835	41148217.29423054
0.7610811820268336	39974841.432338506
0.7612080288905045	38801270.00780507
0.7613348968953197	37620578.63701226
0.7614617860448022	36297618.09070215
0.7615886963424764	34974437.050965846
0.7617156277918667	33651035.48105754
0.7618425803964988	32327413.34421982
0.7619695541598982	31003570.60369298
0.7620965490855914	29679507.222710364
0.7622235651771058	28355223.16449605
0.7623506024379685	27032775.012168393
0.7624776608717082	25719120.841308184
0.7626047404818536	24405247.728086106
0.7627318412719337	23091155.63601408
0.762858963245479	21776844.528592557
0.7629861064060198	20462314.36931967
0.7631132707570876	19147565.121685542
0.7632404563022137	17832596.749177992
0.7633676630449308	16582177.552345896
0.7634948909887717	15469420.237591203
0.7636221401372697	14356477.463285498
0.7637494104939593	13243349.198516361
0.7638767020623748	12130035.41237137
0.7640040148460518	11016536.073927417
0.7641313488485262	9902851.152260434
0.7642587040733344	8788980.616438575
0.7643860805240132	7843835.647354167
0.7645134782041005	7100094.864446581
0.7646408971171346	6356230.124741536
0.764768337266654	5612241.407580145
0.7648957986561985	4868128.692298986
0.7650232812893079	4123891.958232046
0.7651507851695227	3379531.1847094214
0.7652783103003843	2635046.351057967
0.7654058566854343	2166343.822641623
0.7655334243282153	1885600.59341074
0.7656610132322699	1604810.573642017
0.765788623401142	1323973.755536402
