#wavelength	surface flux
0.8	83139487.4458478
0.8002000000000001	84176231.05118637
0.8004000500000003	85458047.41063136
0.8006001500125003	86742657.08224776
0.8008003000500035	88027587.90628216
0.8010005001250161	89312839.96302316
0.8012007502500472	90598413.33277649
0.8014010504376099	92518530.65703392
0.8016014007002193	94651573.19239986
0.8018018010503944	96785148.98839961
0.8020022515006572	98919258.17834933
0.8022027520635323	101053900.8955947
0.8024033027515483	103015321.09493667
0.8026039035772362	104806957.36610477
0.8028045545531306	106599041.54634075
0.8030052556917691	108391573.74762265
0.803206007005692	110184554.08195329
0.8034068085074435	111668212.45796731
0.8036076602095705	112283910.42993802
0.8038085621246229	112899762.32640123
0.8040095142651542	113515768.18583894
0.8042105166437206	114131928.04674129
0.8044115692728815	114765833.39066684
0.8046126721651998	116156536.17077401
0.8048138253332411	117547586.6265751
0.8050150287895745	118938984.84499143
0.805216282546772	120330730.91296199
0.8054175866174087	121722824.9174488
0.8056189410140631	123470933.26912305
0.8058203457493168	125320155.28547108
0.8060218008357541	127169839.60732085
0.8062233062859632	129019986.35025197
0.8064248621125346	130870595.62986758
0.806626468328063	132684287.31393018
0.8068281249451449	134466327.31003195
0.8070298319763813	136248812.81613493
0.8072315894343755	138031743.94361308
0.8074333973317341	139815120.80387378
0.8076352556810671	141644076.75247967
0.8078371644949874	143582133.19511434
0.8080391237861113	145520674.15186012
0.8082411335670578	147459699.7438439
0.8084431938504498	149399210.0922277
0.8086453046489125	151362420.08305162
0.8088474659750746	153758338.20672032
0.8090496778415686	156154855.30992314
0.809251940261029	158551971.54240003
0.8094542532460944	160949687.05393708
0.8096566168094059	163348001.99434927
0.8098590309636085	165571457.47628716
0.8100614957213493	167754401.2017613
0.8102640110952797	169937890.66316715
0.8104665770980536	172121925.99693918
0.8106691937423283	174306507.3395455
0.8108718610407639	176167608.61419073
0.8110745790060241	177781409.32579795
0.8112773476507757	179395613.48758447
0.8114801669876885	181010221.20041102
0.8116830370294355	182625232.56516483
0.8118859577886929	184258559.55456805
0.8120889292781401	185929498.61671054
0.8122919515104597	187600855.41361845
0.8124950244983374	189272630.04972565
0.8126981482544621	190944822.62949166
0.8129013227915257	192653406.65831882
0.8131045481222237	194774318.7734275
0.8133078242592543	196895761.1165652
0.8135111512153191	199017733.8202881
0.813714529003123	201140237.01718718
0.8139179576353739	203263270.83988586
0.8141214371247829	205224645.43196294
0.8143249674840641	207155059.00079787
0.814528548725935	209085955.17302382
0.8147321808631167	211017334.06929547
0.8149358639083326	212949195.81029058
0.8151395978743097	214338978.54635757
0.8153433827737784	215362531.09699613
0.8155472186194719	216386339.535772
0.8157511054241268	217410403.92665732
0.815955043200483	218434724.3336411
0.8161590319612831	218971743.84252548
0.8163630717192736	218615508.8744819
0.8165671624872033	218259184.84769672
0.8167713042778252	217902771.73990446
0.8169754971038948	217546269.52883512
0.8171797409781707	216502662.45808885
0.8173840359134155	209974135.10487708
0.8175883819223938	203443975.6198345
0.8177927790178745	196912183.59491694
0.8179972272126291	190378758.62199143
0.8182017265194322	183843700.2928293
0.8184062769510622	182312162.5288787
0.8186108785203001	181550461.05183986
0.8188155312399301	180788569.1494328
0.8190202351227402	180026486.7740493
0.819224990181521	179264213.87807244
0.8194297964290664	182707938.68244523
0.8196346538781738	188687796.93593675
0.8198395625416434	194669150.15398926
0.8200445224322789	200651998.7103488
0.820249533562887	206636342.9788457
0.8204545959462778	210190835.5258861
0.8206597095952644	209833028.03762123
0.8208648745226633	209475131.097484
0.8210700907412941	209117144.68311182
0.8212753582639793	208759068.7721364
0.8214806771035456	208591870.0046221
0.8216860472728215	209601216.74137357
0.8218914687846397	210610815.8148093
0.822096941651836	211620667.28801388
0.822302465887249	212630771.2240862
0.8225080415037209	213641127.68614307
0.8227136685140968	215279955.18484294
0.8229193469312254	216990508.31391472
0.8231250767679583	218701489.08126932
0.8233308580371503	220412897.59381482
0.8235366907516598	222124733.95848972
0.8237425749243477	224365763.99991813
0.8239485105680789	226887609.42461252
0.824154497695721	229410085.31066144
0.824360536320145	231933191.81568238
0.8245666264542252	234456929.09732944
0.8247727681108388	235904445.90253574
0.8249789613028664	235810070.68955854
0.8251852060431922	235715671.882778
0.825391502344703	235621249.4762958
0.8255978502202894	235526803.4642119
0.8258042496828445	234981282.18547451
0.8260107007452654	232245060.39834753
0.8262172034204517	229508154.55577657
0.8264237577213068	226770564.48674423
0.8266303636607373	224032290.02019343
0.8268370212516525	221293330.98502734
0.8270437305069654	220758376.24411345
0.8272504914395923	220395569.8839245
0.8274573040624523	220032672.82214546
0.8276641683884679	219669685.0361013
0.8278710844305652	219306606.5031102
0.8280780522016729	219082447.3742794
0.8282850717147234	218921773.49868298
0.8284921429826521	218761059.45461783
0.8286992660183978	218600305.2320415
0.8289064408349024	218439510.82090968
0.8291136674451112	218203725.266417
0.8293209458619727	217873371.3799388
0.8295282760984382	217542934.90498942
0.829735658167463	217212415.8209209
0.8299430920820048	216881814.10708183
0.8301505778550254	216712987.54367176
0.8303581154994891	217190140.65492818
0.8305657050283641	217667413.05446285
0.8307733464546212	218144804.77209708
0.8309810397912352	218622315.83766147
0.8311887850511829	219099946.28099132
0.8313965822474458	220181941.33907893
0.8316044313930077	221292253.1122995
0.8318123325008561	222402842.46346438
0.8320202855839813	223513709.4619665
0.8322282906553774	224624854.17721838
0.8324363477280413	225519195.8153527
0.8326444568149735	226326365.04916552
0.8328526179291771	227133736.07528585
0.8330608310836596	227941308.94416395
0.8332690962914304	228749083.70625818
0.8334774135655034	229086828.3406564
0.833685782918895	228899392.74539697
0.8338942043646247	228711910.29123884
0.834102677915716	228524380.96646705
0.834311203585195	228336804.7593642
0.8345197813860912	228177603.39385024
0.8347284113314379	228114032.44804913
0.8349370934342709	228050445.6095116
0.8351458277076294	227986842.87426454
0.8353546141645565	227923224.23833355
0.8355634528180977	227859589.6977436
0.8357723436813022	228518123.24929446
0.8359812867672226	229185738.56650954
0.8361902820889144	229853520.7875536
0.8363993296594368	230521469.95415312
0.8366084294918518	231189586.10804453
0.8368175815992247	231221584.51875648
0.8370267859946247	231034447.91814145
0.8372360426911234	230847264.53337637
0.8374453517017962	230660034.3527651
0.8376547130397217	230472757.3646087
0.8378641267179816	230843939.0883458
0.8380735927496613	231769396.27839893
0.8382831111478488	232695084.83274907
0.8384926819256358	233621004.80923727
0.8387023050961173	234547156.2657204
0.8389119806723914	235117945.0522016
0.8391217086675596	234688118.2408873
0.8393314890947265	234258183.97287056
0.8395413219670003	233828142.2212867
0.8397512072974922	233397992.9592647
0.8399611450993165	232990786.8917743
0.8401711353855914	233728170.1283917
0.8403811781694378	234465737.7108181
0.8405912734639802	235203489.68514025
0.8408014212823464	235941426.09745637
0.8410116216376671	236679546.9938754
0.8412218745430766	235767228.0161787
0.8414321800117124	234374412.95247382
0.8416425380567154	232981249.68500236
0.8418529486912297	231587738.1267137
0.8420634119284025	230193878.19053665
0.8422739277813847	230205433.96367654
0.8424844962633302	231455525.41221428
0.842695117387396	232705929.3836126
0.8429057911667428	233956645.9560038
0.8431165176145345	235207675.2075387
0.8433272967439382	234347538.07978666
0.8435381285681244	228336702.79010174
0.8437490131002665	222324364.79159576
0.8439599503535415	216310523.7085939
0.84417094034113	210295179.16531694
0.8443819830762154	204453587.79931918
0.8445930785719846	202141103.55292594
0.8448042268416277	199828041.1854724
0.8450154278983382	197514400.55242726
0.8452266817553128	195200181.50922406
0.8454379884257517	192885383.91125977
0.8456493479228583	192657903.3581488
0.845860760259839	192933156.32338122
0.846072225449904	193208478.10185492
0.8462837435062666	193483868.71077332
0.8464953144421433	193759328.1673441
0.8467069382707537	194389696.58822665
0.8469186150053215	195296809.5609631
0.847130344659073	196204149.31194293
0.8473421272452377	197111715.89785966
0.8475539627770492	198019509.3754238
0.8477658512677435	199011891.29757643
0.8479777927305605	200183651.8435336
0.8481897871787432	201355705.32962698
0.848401834625538	202528051.82909256
0.8486139350841944	203700691.41518226
0.8488260885679657	204831618.13436577
0.8490382950901076	205450789.03069094
0.8492505546638802	206070114.7197405
0.8494628673025462	206689595.24021214
0.8496752330193721	207309230.6308148
0.8498876518276269	207929020.93026423
0.8501001237405839	208099733.5611947
0.8503126487715191	208180814.15031078
0.850525226933712	208261915.00957415
0.8507378582404455	208343036.1440523
0.8509505427050057	208424177.5588141
0.8511632803406821	208284474.65634304
0.8513760711607672	207993485.01938933
0.8515889151785576	207702422.63502592
0.8518018124073523	207411287.48506665
0.8520147628604541	207120079.55132008
0.8522277665511693	207165353.19097847
0.8524408234928071	207833054.7846437
0.8526539336986805	208500923.30370757
0.8528670971821053	209168958.78990123
0.8530803139564007	209837161.28496566
0.8532935840348901	210468934.89432913
0.8535069074308987	210791795.06426376
0.8537202841577566	211114735.94924113
0.8539337142287962	211437757.5694398
0.8541471976573534	211760859.94504333
0.8543607344567677	212084043.0962408
0.8545743246403821	210427592.45012295
0.8547879682215422	208456326.38695234
0.8550016652135977	206484567.5072662
0.8552154156299011	204512315.68786004
0.8554292194838088	202539570.8054976
0.8556430767886797	201207851.8654624
0.855856987557877	200265313.4670209
0.8560709518047664	199322539.4339804
0.8562849695427177	198379529.7074313
0.8564990407851035	197436284.22845027
0.8567131655452999	196202147.7908385
0.8569273438366862	194491454.66033673
0.8571415756726455	192780333.856552
0.8573558610665638	191068785.27256572
0.8575702000318304	189356808.8014353
0.8577845925818384	188367453.1659077
0.857999038729984	191894279.5553597
0.8582135384896665	195421987.6514082
0.858428091874289	198950577.67448094
0.8586426988972576	202480049.8450585
0.8588573595719821	206010404.38367993
0.8590720739118751	205391686.24427095
0.8592868419303532	204283521.29936415
0.8595016636408359	203175079.31322113
0.8597165390567462	202066360.21658194
0.8599314681915105	200957363.94016832
0.8601464510585584	199099121.60873353
0.860361487671323	196842867.30281258
0.8605765780432408	194586048.9333158
0.8607917221877518	192328666.3592248
0.8610069201182988	190070719.43949088
0.8612221718483286	188804189.45497635
0.8614374773912907	188967418.30266076
0.8616528367606385	189130687.95755705
0.8618682499698288	189293998.42986718
0.8620837170323213	189457349.72979534
0.8622992379615795	189475105.4388437
0.8625148127710699	188772166.69718063
0.8627304414742627	188069052.2208321
0.8629461240846313	187365761.9658644
0.8631618606156526	186662295.88833284
0.8633776510808066	185958653.94428208
0.8635934954935769	186641743.8133063
0.8638093938674504	187438691.7893092
0.8640253462159173	188235839.0023061
0.8642413525524714	189033185.50210622
0.8644574128906095	189830731.33853114
0.8646735272438323	188103283.68805808
0.8648896956256433	185201119.51978916
0.8651059180495498	182298229.810478
0.8653221945290621	179394614.37874228
0.8655385250776946	176490273.04314458
0.8657549097089641	176015104.47946388
0.8659713484363913	178650621.81433788
0.8661878412735006	181286798.02854678
0.866404388233819	183923633.2868089
0.8666209893308775	186561127.75388438
0.8668376445782103	188804965.12229344
0.8670543539893549	189439957.75565556
0.8672711175778525	190075109.13717645
0.8674879353572469	190710419.306542
0.8677048073410862	191345888.30345017
0.8679217335429217	191981516.16760793
0.8681387139763074	189501761.26706335
0.8683557486548015	186866614.2550872
0.8685728375919655	184230808.45635483
0.8687899808013633	181594343.70617852
0.8690071782965637	178957219.83981124
0.869224430091138	178252339.37682548
0.8694417361986609	178333778.35251793
0.8696590966327107	178415237.68795428
0.869876511406869	178496717.38822448
0.8700939805347206	178578217.4584197
0.8703115040298544	179241467.9761845
0.870529081905862	180569970.0677488
0.8707467141763385	181898804.28483558
0.8709644008548827	183227970.71047655
0.8711821419550964	184557469.42772314
0.8713999374905854	185937968.05448645
0.871617787474958	187493683.04828322
0.8718356919218269	189049786.97082984
0.8720536508448075	190606279.9193572
0.8722716642575187	192163161.9911208
0.8724897321735832	193720433.283403
0.8727078546066265	195768171.77020422
0.8729260315702784	197823877.88378063
0.873144263078171	199880097.92388323
0.8733625491439405	201936832.0189961
0.8735808897812266	203994080.2976335
0.8737992850036719	204590880.28153375
0.874017734824923	204670380.53237388
0.8742362392586293	204749900.6582767
0.874454798318444	204829440.66421098
0.8746734120180236	204909000.55514675
0.8748920803710283	205006590.68357697
0.875110803391121	205122303.89265147
0.8753295810919689	205238046.03002828
0.875548413487242	205353817.10293946
0.8757673005906139	205469617.11861885
0.8759862424157616	206208934.389728
0.8762052389763657	208752529.32601008
0.8764242902861098	211296760.16102445
0.8766433963586814	213841627.05374825
0.8768625572077712	216387130.16319603
0.8770817728470732	218919636.6759597
0.8773010432902849	220388348.22477695
0.8775203685511077	221857426.9514835
0.8777397486432454	223326872.9478699
0.8779591835804065	224796686.30575716
0.8781786733763015	226266867.11698198
0.8783982180446457	226628648.6962748
0.878617817599157	226660683.32920367
0.8788374720535569	226692725.97079077
0.8790571814215703	226724776.62303826
0.8792769457169257	226756835.28794882
0.879496764953355	226940736.05139208
0.8797166391445934	227261191.60406396
0.8799365683043796	227581727.270624
0.8801565524464557	227902343.0711007
0.8803765915845676	228223039.02552783
0.8805966857324639	228525913.3143729
0.880816834903897	228783899.26754072
0.881037039112623	229041949.71719694
0.8812572983724012	229300064.67946556
0.8814776126969944	229558244.17047483
0.8816979821001687	229883059.94982162
0.8819184065956938	231775066.9795709
0.8821388861973429	233667547.01107955
0.8823594209188923	235560500.16259426
0.882580010774122	237453926.552396
0.8828006557768155	239347826.2987962
0.8830213559407598	242505775.95045066
0.8832421112797452	245982317.3879506
0.8834629218075651	249459727.9608078
0.8836837875380171	252938007.88630927
0.8839047084849018	256417157.38179266
0.884125684662023	256936619.4710301
0.8843467160831886	255083702.94177023
0.8845678027622095	253230323.18337804
0.8847889447129001	251376480.0800459
0.8850101419490785	249522173.5159383
0.8852313944845657	246602784.28223878
0.885452702333187	241352344.58299822
0.8856740655087704	236100592.2738336
0.8858954840251476	230847527.0265931
0.8861169578961539	225593148.51304322
0.886338487135628	220505497.36676008
0.886560071757412	217652763.75111753
0.8867817117753515	214799316.95207116
0.8870034072032955	211945156.79132372
0.8872251580550963	209090283.09053943
0.8874469643446101	206234695.6713282
0.8876688260856963	206455064.08412766
0.8878907432922178	207312243.81924394
0.8881127159780409	208169637.84929344
0.8883347441570356	209027246.2278515
0.8885568278430749	209885069.0085033
0.8887789670500358	210614189.9152764
0.8890011617917983	211252043.25571474
0.8892234120822464	211890056.05948848
0.8894457179352669	212528228.36646262
0.8896680793647509	213166560.21651402
0.8898904963845921	214371316.64471844
0.8901129690086883	216656822.77858925
0.8903354972509405	218942900.28899297
0.8905580811252535	221229549.31877607
0.8907807206455347	223516770.0108135
0.8910034158256963	225749022.7830343
0.8912261666796527	227485477.10298488
0.8914489732213227	229222365.53651592
0.8916718354646282	230959688.19215706
0.8918947534234944	232697445.17846042
0.8921177271118502	234435636.60400927
0.8923407565436284	234838978.92450306
0.8925638417327644	235024601.008714
0.8927869826931977	235210269.49844608
0.8930101794388711	235395984.40530056
0.8932334319837308	235581745.74088174
0.8934567403417267	235775436.41457906
0.8936801045268123	235974073.8039811
0.8939035245529441	236172760.85273036
0.8941270004340824	236371497.5732419
0.894350532184191	236570283.9779335
0.8945741198172371	237368526.0589404
0.8947977633471915	239161011.01844838
0.8950214627880284	240953944.09919617
0.8952452181537254	242747325.41321307
0.8954690294582639	244541155.07255957
0.8956928967156286	246334017.56870914
0.8959168199398075	248118141.4069955
0.8961407991447926	249902711.27624193
0.8963648343445789	251687727.28795558
0.896588925553165	253473189.55367115
0.8968130727845534	255259098.18495342
0.8970372760527496	256957697.7622976
0.8972615353717629	258645742.0053612
0.8974858507556059	260334208.25948572
0.8977102222182949	262023096.63017336
0.8979346497738496	263712407.22295457
0.8981591334362931	265523830.03141284
0.8983836732196523	267402255.0339778
0.8986082691379572	269281149.64279217
0.8988329212052417	271160513.9752587
0.8990576294355432	273040348.14881
0.8992823938429022	274778388.76648647
0.8995072144413631	276305336.1273026
0.8997320912449734	277832665.2249583
0.8999570242677847	279360376.1548881
0.9001820135238516	280888469.0125505
0.9004070590272328	282511624.687947
0.9006321607919896	284631535.1787264
0.9008573188321878	286751975.6471306
0.9010825331618959	288872946.22565097
0.9013078037951865	290994447.0468163
0.9015331307461353	293116478.24318576
0.9017585140288219	294018204.5996964
0.9019839536573292	294815002.6749007
0.9022094496457435	295611999.9496233
0.9024350020081551	296409196.4736654
0.9026606107586572	297206592.2968383
0.902886275911347	298328483.2665677
0.9031119974803249	299606987.856559
0.9033377754796951	300885812.0726978
0.903563609923565	302164955.99489003
0.903789500826046	303444419.7030637
0.9040154482012526	304763150.88243073
0.904241452063303	306132664.966518
0.9044675124263188	307502521.4291259
0.9046936293044254	308872720.35584927
0.9049198027117517	310243261.83230495
0.9051460326624297	311330323.33282995
0.9053723191705955	311209073.89246976
0.9055986622503881	311087794.13974965
0.9058250619159507	310966484.0670913
0.9060515181814298	310845143.66691476
0.9062780310609752	310723772.93163824
0.9065046005687405	311817848.3097911
0.906731226718883	312980005.0446983
0.9069579095255627	314142452.3187877
0.907184649002944	315305190.2046957
0.907411445165195	316468218.7750764
0.9076382980264862	318325682.8246726
0.907865207600993	320471888.257744
0.9080921739028933	322618630.24217314
0.9083191969463691	324765908.912098
0.9085462767456058	326913724.4016914
0.9087734133147922	328816896.08399326
0.9090006066681211	330437356.7410017
0.909227856819788	332058222.51317227
0.9094551637839932	333679493.50178814
0.9096825275749393	335301169.8081506
0.9099099482068329	336943450.41214025
0.9101374256938848	338657928.75089854
0.9103649600503083	340372835.7092407
0.9105925512903209	342088171.3943221
0.9108201994281437	343803935.91332656
0.9110479044780008	345520129.3734588
0.9112756664541204	348321548.1733133
0.911503485370734	351148498.1237318
0.9117313612420768	353976154.8116378
0.9119592940823873	356804518.413715
0.912187283905908	359633589.10669357
0.9124153307268845	361258840.24918014
0.9126434345595664	362447324.8759419
0.9128715954182063	363636106.62385917
0.9130998133170609	364825185.5672141
0.9133280882703902	366014561.78030473
0.913556420292458	368192857.44909555
0.9137848093975312	371391278.2729419
