#wavelength	surface flux
0.8	17891370.1302503
0.8002000000000001	18118678.79486767
0.8004000500000003	18352415.473666005
0.8006001500125003	18586274.94189586
0.8008003000500035	18820192.87499279
0.8010005001250161	19054169.287573107
0.8012007502500472	19288204.194256227
0.8014010504376099	19515943.49076209
0.8016014007002193	19741611.286384463
0.8018018010503944	19967335.498955745
0.8020022515006572	20193116.142580267
0.8022027520635323	20418953.231365502
0.8024033027515483	20642859.252906185
0.8026039035772362	20864873.552425485
0.8028045545531306	21086943.355519675
0.8030052556917691	21309068.67606475
0.803206007005692	21531249.52793976
0.8034068085074435	21752032.430544354
0.8036076602095705	21968796.170632314
0.8038085621246229	22185614.10165513
0.8040095142651542	22402486.23716083
0.8042105166437206	22619412.590700336
0.8044115692728815	22836192.01094801
0.8046126721651998	23044373.17012858
0.8048138253332411	23252606.37459878
0.8050150287895745	23460891.63737029
0.805216282546772	23669228.971457437
0.8054175866174087	23877618.389877997
0.8056189410140631	24094794.77981574
0.8058203457493168	24314497.999769974
0.8060218008357541	24534256.145528913
0.8062233062859632	24754069.2308244
0.8064248621125346	24973937.269391064
0.806626468328063	25194952.558116
0.8068281249451449	25416961.239749167
0.8070298319763813	25639025.423553012
0.8072315894343755	25861145.123402644
0.8074333973317341	26083320.35317732
0.8076352556810671	26299286.284666337
0.8078371644949874	26500225.686607458
0.8080391237861113	26701215.323399115
0.8082411335670578	26902255.207599845
0.8084431938504498	27103345.351771835
0.8086453046489125	27304225.712987732
0.8088474659750746	27500314.526944987
0.8090496778415686	27696452.363105997
0.809251940261029	27892639.233725905
0.8094542532460944	28088875.151063636
0.8096566168094059	28285160.127380475
0.8098590309636085	28490088.916068442
0.8100614957213493	28697080.60629262
0.8102640110952797	28904124.044439383
0.8104665770980536	29111219.24344576
0.8106691937423283	29318366.216251973
0.8108718610407639	29523494.717837457
0.8110745790060241	29727091.483943574
0.8112773476507757	29930739.14924139
0.8114801669876885	30134437.72645548
0.8116830370294355	30338187.228313755
0.8118859577886929	30536490.66967381
0.8120889292781401	30723426.18193852
0.8122919515104597	30910408.428081285
0.8124950244983374	31097437.419785593
0.8126981482544621	31284513.1687378
0.8129013227915257	31473470.11798236
0.8131045481222237	31683478.825937018
0.8133078242592543	31893540.03606869
0.8135111512153191	32103653.761502836
0.813714529003123	32313820.01536837
0.8139179576353739	32524038.8107974
0.8141214371247829	32769056.140674714
0.8143249674840641	33020872.554778848
0.814528548725935	33272751.92298635
0.8147321808631167	33524694.261036254
0.8149358639083326	33776699.58467059
0.8151395978743097	33994705.46781588
0.8153433827737784	34189751.8376019
0.8155472186194719	34384846.96898029
0.8157511054241268	34579990.874141484
0.815955043200483	34775183.56527911
0.8161590319612831	34893157.1196331
0.8163630717192736	34869576.09514154
0.8165671624872033	34845989.17539388
0.8167713042778252	34822396.35891625
0.8169754971038948	34798797.6442345
0.8171797409781707	34673755.83592408
0.8173840359134155	33738878.23181344
0.8175883819223938	32803766.908302844
0.8177927790178745	31868421.806960836
0.8179972272126291	30932842.869343247
0.8182017265194322	29997030.0369922
0.8184062769510622	29668689.458345715
0.8186108785203001	29433783.78529501
0.8188155312399301	29198819.385826357
0.8190202351227402	28963796.24525758
0.819224990181521	28728714.348903805
0.8194297964290664	29693516.14577452
0.8196346538781738	31381822.33462275
0.8198395625416434	33070550.600017518
0.8200445224322789	34759701.04747935
0.820249533562887	36449273.78255254
0.8204545959462778	37692109.43141434
0.8206597095952644	38215564.67882141
0.8208648745226633	38739150.790040724
0.8210700907412941	39262867.79778776
0.8212753582639793	39786715.734786205
0.8214806771035456	40268127.660018936
0.8216860472728215	40487395.51865678
0.8218914687846397	40706718.1942593
0.822096941651836	40926095.700530834
0.822302465887249	41145528.051178806
0.8225080415037209	41365015.25991456
0.8227136685140968	41553775.33078242
0.8229193469312254	41739088.190229736
0.8231250767679583	41924447.37789198
0.8233308580371503	42109852.905351035
0.8235366907516598	42295304.78419209
0.8237425749243477	42545570.73594868
0.8239485105680789	42830227.27904321
0.824154497695721	43114954.98627334
0.824360536320145	43399753.87543032
0.8245666264542252	43684623.96430959
0.8247727681108388	43939013.10339328
0.8249789613028664	44149709.38585495
0.8251852060431922	44360458.342387415
0.825391502344703	44571259.98615892
0.8255978502202894	44782114.33034156
0.8258042496828445	44990678.59722491
0.8260107007452654	45187917.076253034
0.8262172034204517	45385204.8649007
0.8264237577213068	45582541.975495584
0.8266303636607373	45779928.42036821
0.8268370212516525	45977364.21185195
0.8270437305069654	46139737.391241066
0.8272504914395923	46299407.391585946
0.8274573040624523	46459117.30943095
0.8276641683884679	46618867.15475527
0.8278710844305652	46778656.93754111
0.8280780522016729	46957837.6426706
0.8282850717147234	47145908.43776762
0.8284921429826521	47334026.25056321
0.8286992660183978	47522191.09281215
0.8289064408349024	47710402.97627152
0.8291136674451112	47897124.04395878
0.8293209458619727	48081952.61648977
0.8295282760984382	48266827.396163635
0.829735658167463	48451748.394532636
0.8299430920820048	48636715.623151
0.8301505778550254	48822359.06915462
0.8303581154994891	49010563.34303172
0.8305657050283641	49198814.66797748
0.8307733464546212	49387113.055754334
0.8309810397912352	49575458.51812843
0.8311887850511829	49763851.066867754
0.8313965822474458	49984302.009296976
0.8316044313930077	50206293.87801992
0.8318123325008561	50428341.244710244
0.8320202855839813	50650444.12324214
0.8322282906553774	50872602.527493685
0.8324363477280413	51063370.47566309
0.8326444568149735	51241526.06889473
0.8328526179291771	51419726.201024465
0.8330608310836596	51597970.8831875
0.8332690962914304	51776260.12652085
0.8334774135655034	51934692.43357158
0.833685782918895	52070933.71004901
0.8338942043646247	52207209.04684549
0.834102677915716	52343518.452476256
0.834311203585195	52479861.935458325
0.8345197813860912	52624961.436980754
0.8347284113314379	52799456.054385476
0.8349370934342709	52973994.29544445
0.8351458277076294	53148576.171063475
0.8353546141645565	53323201.692151695
0.8355634528180977	53497870.869620115
0.8357723436813022	53641103.47667941
0.8359812867672226	53783983.19116703
0.8361902820889144	53926898.6255832
0.8363993296594368	54069849.788858026
0.8366084294918518	54212836.68992371
0.8368175815992247	54409718.18646043
0.8370267859946247	54625198.444071986
0.8372360426911234	54840732.57174788
0.8374453517017962	55056320.582955666
0.8376547130397217	55271962.49116623
0.8378641267179816	55464968.43677003
0.8380735927496613	55635508.381509386
0.8382831111478488	55806090.96123482
0.8384926819256358	55976716.186605096
0.8387023050961173	56147384.06828187
0.8389119806723914	56314392.507094644
0.8391217086675596	56471023.75124112
0.8393314890947265	56627694.15319852
0.8395413219670003	56784403.722756416
0.8397512072974922	56941152.46970682
0.8399611450993165	57097498.86292757
0.8401711353855914	57231957.57864597
0.8403811781694378	57366449.90904326
0.8405912734639802	57500975.862523176
0.8408014212823464	57635535.447491534
0.8410116216376671	57770128.672356114
0.8412218745430766	57906343.2439897
0.8414321800117124	58043053.8282516
0.8416425380567154	58179798.59015964
0.8418529486912297	58316577.53825819
0.8420634119284025	58453390.68109364
0.8422739277813847	58672341.723647505
0.8424844962633302	58963684.046449095
0.842695117387396	59255099.20483101
0.8429057911667428	59546587.21700254
0.8431165176145345	59838148.10117725
0.8433272967439382	60045419.11203509
0.8435381285681244	60046957.76656962
0.8437490131002665	60048496.80576779
0.8439599503535415	60050036.229725756
0.84417094034113	60051576.038539715
0.8443819830762154	60059664.481861785
0.8445930785719846	60199669.99439093
0.8448042268416277	60339710.508298114
0.8450154278983382	60479786.03233377
0.8452266817553128	60619896.57525042
0.8454379884257517	60760042.14580281
0.8456493479228583	60968756.34853061
0.845860760259839	61194026.44334086
0.846072225449904	61419352.85567481
0.8462837435062666	61644735.59961189
0.8464953144421433	61870174.689235084
0.8467069382707537	62061123.10919115
0.8469186150053215	62225190.91780542
0.847130344659073	62389299.74337188
0.8473421272452377	62553449.59614459
0.8475539627770492	62717640.486380644
0.8477658512677435	62866207.25780456
0.8479777927305605	62981548.25260701
0.8481897871787432	63096918.08265813
0.848401834625538	63212316.75516683
0.8486139350841944	63327744.277343586
0.8488260885679657	63424829.41888671
0.8490382950901076	63297999.96823515
0.8492505546638802	63171138.81022085
0.8494628673025462	63044245.9369171
0.8496752330193721	62917321.34039483
0.8498876518276269	62790365.0127236
0.8501001237405839	61410334.633796826
0.8503126487715191	59779829.99478519
0.850525226933712	58148917.729614705
0.8507378582404455	56517597.73637795
0.8509505427050057	54885869.91314193
0.8511632803406821	53280599.36412552
0.8513760711607672	51693325.24423419
0.8515889151785576	50105654.305810414
0.8518018124073523	48517586.449653365
0.8520147628604541	46929121.57653321
0.8522277665511693	46440470.94068415
0.8524408234928071	47986406.05020576
0.8526539336986805	49532727.64350517
0.8528670971821053	51079435.817203
0.8530803139564007	52626530.667942435
0.8532935840348901	54239953.457201086
0.8535069074308987	56410686.43492023
0.8537202841577566	58581962.095885634
0.8539337142287962	60753780.57576652
0.8541471976573534	62926142.01026601
0.8543607344567677	65099046.53512453
0.8545743246403821	65699024.16804129
0.8547879682215422	66049266.756751195
0.8550016652135977	66399596.90610822
0.8552154156299011	66750014.63800262
0.8554292194838088	67100519.97433024
0.8556430767886797	67323983.71536295
0.855856987557877	67470313.81663969
0.8560709518047664	67616680.50044167
0.8562849695427177	67763083.77591464
0.8564990407851035	67909523.65220654
0.8567131655452999	68011651.40980777
0.8569273438366862	68041137.82739568
0.8571415756726455	68070631.616588
0.8573558610665638	68100132.77922761
0.8575702000318304	68129641.31715786
0.8577845925818384	68195560.21718523
0.857999038729984	68488882.05198756
0.8582135384896665	68782277.21724853
0.858428091874289	69075745.73130083
0.8586426988972576	69369287.61248156
0.8588573595719821	69662902.8791327
0.8590720739118751	69662081.93349805
0.8592868419303532	69626537.21889685
0.8595016636408359	69590983.61811702
0.8597165390567462	69555421.12893699
0.8599314681915105	69519849.74913464
0.8601464510585584	69026370.6317317
0.860361487671323	68289718.63418907
0.8605765780432408	67552882.47364724
0.8607917221877518	66815862.10406469
0.8610069201182988	66078657.47938993
0.8612221718483286	64137906.81791529
0.8614374773912907	60461862.175774224
0.8616528367606385	56784898.52247362
0.8618682499698288	53107015.628257364
0.8620837170323213	49428213.263318166
0.8622992379615795	46361687.1208988
0.8625148127710699	46328866.04366975
0.8627304414742627	46296036.7611714
0.8629461240846313	46263199.27135242
0.8631618606156526	46230353.572160974
0.8633776510808066	46197499.66154474
0.8635934954935769	47682969.86939832
0.8638093938674504	49293271.89216381
0.8640253462159173	50903976.490434945
0.8642413525524714	52515083.764855616
0.8644574128906095	54126593.81609455
0.8646735272438323	55087311.286151364
0.8648896956256433	55745445.00351264
0.8651059180495498	56403743.25430329
0.8653221945290621	57062206.07965601
0.8655385250776946	57720833.52071599
0.8657549097089641	58473336.88993614
0.8659713484363913	59345999.412377745
0.8661878412735006	60218880.10045036
0.866404388233819	61091979.00869487
0.8666209893308775	61965296.191666044
0.8668376445782103	62665917.84856643
0.8670543539893549	62660965.4390592
0.8672711175778525	62656011.79144959
0.8674879353572469	62651056.90542809
0.8677048073410862	62646100.78068508
0.8679217335429217	62641143.41691088
0.8681387139763074	62953893.53616884
0.8683557486548015	63282504.80284982
0.8685728375919655	63611198.22234786
0.8687899808013633	63939973.815200076
0.8690071782965637	64268831.60195092
0.869224430091138	64162639.551364906
0.8694417361986609	63879366.27096521
0.8696590966327107	63596022.17224548
0.869876511406869	63312607.237501055
0.8700939805347206	63029121.449023075
0.8703115040298544	62871766.3363609
0.870529081905862	62858656.76219005
0.8707467141763385	62845543.91062567
0.8709644008548827	62832427.78084839
0.8711821419550964	62819308.372038685
0.8713999374905854	62815532.22423859
0.871617787474958	62844013.28780162
0.8718356919218269	62872501.47163057
0.8720536508448075	62900996.77750549
0.8722716642575187	62929499.207206845
0.8724897321735832	62958008.76251565
0.8727078546066265	63455901.06777535
0.8729260315702784	63961058.58906574
0.873144263078171	64466342.39973591
0.8733625491439405	64971752.5313588
0.8735808897812266	65477289.01551479
0.8737992850036719	65536458.41766907
0.874017734824923	65437501.96806328
0.8742362392586293	65338520.779345125
0.874454798318444	65239514.8453298
0.8746734120180236	65140484.15983098
0.8748920803710283	65086524.62480633
0.875110803391121	65077868.69054276
0.8753295810919689	65069210.59229561
0.875548413487242	65060550.3295239
0.8757673005906139	65051887.90168649
0.8759862424157616	65352021.2224645
0.8762052389763657	66545750.91438676
0.8764242902861098	67739779.03873117
0.8766433963586814	68934105.67010699
0.8768625572077712	70128730.88314103
0.8770817728470732	71310078.97707309
0.8773010432902849	71431760.11927538
0.8775203685511077	71553471.6817634
0.8777397486432454	71675213.67214188
0.8779591835804065	71796986.09801811
0.8781786733763015	71918788.96700065
0.8783982180446457	71316044.0356819
0.878617817599157	70497599.93185732
0.8788374720535569	69678951.21700716
0.8790571814215703	68860097.8399785
0.8792769457169257	68041039.74960557
0.879496764953355	67817402.737128
0.8797166391445934	68129216.56913973
0.8799365683043796	68441108.35460947
0.8801565524464557	68753078.11302559
0.8803765915845676	69065125.8638816
0.8805966857324639	69349067.90729466
0.880816834903897	69562291.88226764
0.881037039112623	69775569.16323446
0.8812572983724012	69988899.76352148
0.8814776126969944	70202283.69645868
0.8816979821001687	70413034.23836105
0.8819184065956938	70560591.22626728
0.8821388861973429	70708185.10342064
0.8823594209188923	70855815.87904315
0.882580010774122	71003483.56235948
0.8828006557768155	71151188.16259675
0.8830213559407598	71767030.99429238
0.8832421112797452	72500760.01654494
0.8834629218075651	73234672.47105263
0.8836837875380171	73968768.40367417
0.8839047084849018	74703047.86027896
0.884125684662023	74704626.90042776
0.8843467160831886	74118893.42035758
0.8845678027622095	73533013.50691739
0.8847889447129001	72946987.12349874
0.8850101419490785	72360814.23348431
0.8852313944845657	72557837.48465987
0.885452702333187	74469551.05032367
0.8856740655087704	76381742.54437861
0.8858954840251476	78294412.08630656
0.8861169578961539	80207559.79561909
0.886338487135628	81914072.36615738
0.886560071757412	80864868.94987814
0.8867817117753515	79815403.23274484
0.8870034072032955	78765675.14918181
0.8872251580550963	77715684.6335991
0.8874469643446101	76665431.62038685
0.8876688260856963	76620138.19446486
0.8878907432922178	76782877.0519154
0.8881127159780409	76945656.59408022
0.8883347441570356	77108476.83113076
0.8885568278430749	77271337.7732404
0.8887789670500358	76986996.27661468
0.8890011617917983	76385321.18845133
0.8892234120822464	75783495.6815157
0.8894457179352669	75181519.7182038
0.8896680793647509	74579393.2609006
0.8898904963845921	74156817.47671677
0.8901129690086883	74077010.67747374
0.8903354972509405	73997183.92653091
0.8905580811252535	73917337.2189003
0.8907807206455347	73837470.54959288
0.8910034158256963	73781237.83815257
0.8912261666796527	73936385.33741987
0.8914489732213227	74091571.62356201
0.8916718354646282	74246796.70627585
0.8918947534234944	74402060.59526022
0.8921177271118502	74557363.30021673
0.8923407565436284	73899822.06409568
0.8925638417327644	73109513.16008538
0.8927869826931977	72319006.6788488
0.8930101794388711	71528302.57099196
0.8932334319837308	70737400.7871083
0.8934567403417267	70230636.72428031
0.8936801045268123	69900426.97987805
0.8939035245529441	69570134.68303993
0.8941270004340824	69239759.81312747
0.894350532184191	68909302.3494976
0.8945741198172371	69599819.16303892
0.8947977633471915	71983809.66493316
0.8950214627880284	74368396.16445278
0.8952452181537254	76753578.81059584
0.8954690294582639	79139357.75240189
0.8956928967156286	81370752.6148469
0.8959168199398075	82596936.93307804
0.8961407991447926	83823427.79738906
0.8963648343445789	85050225.28441611
0.896588925553165	86277329.47081424
0.8968130727845534	87504740.43325911
0.8970372760527496	87536434.15999489
0.8972615353717629	87418489.11098164
0.8974858507556059	87300514.57570614
0.8977102222182949	87182510.54679684
0.8979346497738496	87064477.01688027
0.8981591334362931	87088931.41154023
0.8983836732196523	87191331.35279389
0.8986082691379572	87293756.89403279
0.8988329212052417	87396208.04165702
0.8990576294355432	87498684.80206822
0.8992823938429022	87547648.07132204
0.8995072144413631	87517017.72808518
0.8997320912449734	87486379.72726253
0.8999570242677847	87455734.06693968
0.9001820135238516	87425080.74520174
0.9004070590272328	87532220.71955511
0.9006321607919896	88361787.12080607
0.9008573188321878	89191560.91365817
0.9010825331618959	90021542.14995809
0.9013078037951865	90851730.88156722
0.9015331307461353	91682127.16035882
0.9017585140288219	92518537.14229634
0.9019839536573292	93355656.32152283
0.9022094496457435	94192984.78054354
0.9024350020081551	95030522.57167993
0.9026606107586572	95868269.74726385
0.902886275911347	96185288.57877848
0.9031119974803249	96251258.39400116
0.9033377754796951	96317244.70167764
0.903563609923565	96383247.505931
0.903789500826046	96449266.81088549
0.9040154482012526	96292645.13655883
0.904241452063303	95847550.97742416
0.9044675124263188	95402345.54474983
0.9046936293044254	94957028.81071739
0.9049198027117517	94511600.74750122
0.9051460326624297	94155564.5026064
0.9053723191705955	94180564.59089303
0.9055986622503881	94205570.92920169
0.9058250619159507	94230583.51909494
0.9060515181814298	94255602.36213568
0.9062780310609752	94280627.45988716
0.9065046005687405	94915773.45982166
0.906731226718883	95585114.73853715
0.9069579095255627	96254623.35257143
0.907184649002944	96924299.34375928
0.907411445165195	97594142.75394562
0.9076382980264862	98126198.82074475
0.907865207600993	98601095.52686514
0.9080921739028933	99076110.95716192
0.9083191969463691	99551245.14131619
0.9085462767456058	100026498.10901675
0.9087734133147922	100113724.4760659
0.9090006066681211	99752659.88550653
0.909227856819788	99391505.02879998
0.9094551637839932	99030259.88337876
0.9096825275749393	98668924.42667131
0.9099099482068329	98434553.88659242
0.9101374256938848	98651681.31721821
0.9103649600503083	98868863.02970158
0.9105925512903209	99086099.037613
0.9108201994281437	99303389.35452665
0.9110479044780008	99520733.99401927
0.9112756664541204	100155541.89019462
0.911503485370734	100800062.90494737
0.9117313612420768	101444745.0499538
0.9119592940823873	102089588.3654963
0.912187283905908	102734592.89186788
0.9124153307268845	102860764.7815358
0.9126434345595664	102798603.7688992
0.9128715954182063	102736427.2160095
0.9130998133170609	102674235.11898154
0.9133280882703902	102612027.47392935
0.913556420292458	102559379.17318502
0.9137848093975312	102516592.4422135
0.9140132555998806	102473795.01455927
0.9142417589137806	102430986.8875481
0.9144703193535092	102388168.05850516
0.9146989369333476	102367755.32396096
0.9149276116675811	102414947.25174473
0.9151563435704979	102462150.97751041
