#wavelength	surface flux
0.8	40320392.48016986
0.8002000000000001	40657318.3796795
0.8004000500000003	41107491.69564235
0.8006001500125003	41558920.61452265
0.8008003000500035	42010462.39063271
0.8010005001250161	42462117.052187
0.8012007502500472	42913884.62740603
0.8014010504376099	43602388.68806478
0.8016014007002193	44370326.53271152
0.8018018010503944	45138456.361819424
0.8020022515006572	45906778.223384954
0.8022027520635323	46675292.16541521
0.8024033027515483	47382771.85103886
0.8026039035772362	48030428.93556124
0.8028045545531306	48678247.93435479
0.8030052556917691	49326228.88789834
0.803206007005692	49974371.836679704
0.8034068085074435	50518626.943444386
0.8036076602095705	50771351.044130854
0.8038085621246229	51024138.3258423
0.8040095142651542	51276988.80437433
0.8042105166437206	51529902.495525904
0.8044115692728815	51790547.47258809
0.8046126721651998	52381074.273604326
0.8048138253332411	52971748.70632034
0.8050150287895745	53562570.80764508
0.805216282546772	54153540.614494994
0.8054175866174087	54744658.16379631
0.8056189410140631	55565982.52988799
0.8058203457493168	56452633.855938934
0.8060218008357541	57339506.84482026
0.8062233062859632	58226601.55194924
0.8064248621125346	59113918.03275441
0.806626468328063	60044258.18376843
0.8068281249451449	61011592.52339469
0.8070298319763813	61979168.696607046
0.8072315894343755	62946986.76386198
0.8074333973317341	63915046.785634086
0.8076352556810671	64919401.69808215
0.8078371644949874	66010792.99116283
0.8080391237861113	67102457.13206704
0.8082411335670578	68194394.18900579
0.8084431938504498	69286604.23020993
0.8086453046489125	70401958.20107545
0.8088474659750746	71943405.76786266
0.8090496778415686	73485238.69654362
0.809251940261029	75027457.08345565
0.8094542532460944	76570061.02496572
0.8096566168094059	78113050.61745942
0.8098590309636085	79785759.82296906
0.8100614957213493	81489158.85307358
0.8102640110952797	83192983.73293586
0.8104665770980536	84897234.56901877
0.8106691937423283	86601911.46781135
0.8108718610407639	88128084.65991837
0.8110745790060241	89517821.11058983
0.8112773476507757	90907904.99537516
0.8114801669876885	92298336.40113133
0.8116830370294355	93689115.41473812
0.8118859577886929	95073423.40318373
0.8120889292781401	96443914.68919471
0.8122919515104597	97814748.59802711
0.8124950244983374	99185925.21533678
0.8126981482544621	100557444.6268006
0.8129013227915257	101976899.59282714
0.8131045481222237	103941652.82421528
0.8133078242592543	105906897.24391147
0.8135111512153191	107872632.97471206
0.813714529003123	109838860.13944559
0.8139179576353739	111805578.86097063
0.8141214371247829	114148024.77073005
0.8143249674840641	116563820.76846747
0.814528548725935	118980220.71520287
0.8147321808631167	121397224.76192823
0.8149358639083326	123814833.05966452
0.8151395978743097	125939012.58316447
0.8153433827737784	127865062.00106439
0.8155472186194719	129791592.9313181
0.8157511054241268	131718605.494304
0.815955043200483	133646099.81043197
0.8161590319612831	135876134.63908726
0.8163630717192736	138660212.6128932
0.8165671624872033	141444986.60618952
0.8167713042778252	144230456.7929869
0.8169754971038948	147016623.34733236
0.8171797409781707	149092645.58722302
0.8173840359134155	145494324.1244747
0.8175883819223938	141895103.08136487
0.8177927790178745	138294982.23299217
0.8179972272126291	134693961.35440645
0.8182017265194322	131092040.22060472
0.8184062769510622	131292911.19003229
0.8186108785203001	132079164.36832951
0.8188155312399301	132865614.10992025
0.8190202351227402	133652260.46394727
0.819224990181521	134439103.47956228
0.8194297964290664	137602404.64070395
0.8196346538781738	142198783.99191624
0.8198395625416434	146796312.43796453
0.8200445224322789	151394990.26612625
0.820249533562887	155994817.76374364
0.8204545959462778	159004216.79032454
0.8206597095952644	159452765.65391147
0.8208648745226633	159901426.65471464
0.8210700907412941	160350199.82076794
0.8212753582639793	160799085.18011227
0.8214806771035456	161335602.86995012
0.8216860472728215	162411485.19130373
0.8218914687846397	163487636.48323774
0.822096941651836	164564056.8129953
0.822302465887249	165640746.24783468
0.8225080415037209	166717704.85503334
0.8227136685140968	168761912.35836768
0.8229193469312254	170916403.31436667
0.8231250767679583	173071432.8931054
0.8233308580371503	175227001.22923762
0.8235366907516598	177383108.45745546
0.8237425749243477	180061453.43036407
0.8239485105680789	183016977.48115596
0.824154497695721	185973240.41295865
0.824360536320145	188930242.41049486
0.8245666264542252	191887983.65853032
0.8247727681108388	193830401.2254435
0.8249789613028664	194318110.77797222
0.8251852060431922	194805942.25788948
0.825391502344703	195293895.69567648
0.8255978502202894	195781971.12182337
0.8258042496828445	195963055.42917353
0.8260107007452654	194652668.42647538
0.8262172034204517	193341953.8270279
0.8264237577213068	192030911.54893017
0.8266303636607373	190719541.51026237
0.8268370212516525	189407843.62908554
0.8270437305069654	189644650.07923022
0.8272504914395923	190002546.90568948
0.8274573040624523	190360533.20635542
0.8276641683884679	190718609.00359625
0.8278710844305652	191076774.3197868
0.8280780522016729	191475508.95165396
0.8282850717147234	191892846.49707195
0.8284921429826521	192310288.37687588
0.8286992660183978	192727834.61715007
0.8289064408349024	193145485.24398404
0.8291136674451112	193447929.16945678
0.8293209458619727	193605047.16929924
0.8295282760984382	193762204.44864148
0.829735658167463	193919401.0173037
0.8299430920820048	194076636.88510793
0.8301505778550254	194308330.54314074
0.8303581154994891	194837108.07584745
0.8305657050283641	195366017.80293787
0.8307733464546212	195895059.75745964
0.8309810397912352	196424233.9724709
0.8311887850511829	196953540.48103487
0.8313965822474458	198323956.66821015
0.8316044313930077	199733749.666896
0.8318123325008561	201143895.1138328
0.8320202855839813	202554393.09713066
0.8322282906553774	203965243.70492446
0.8324363477280413	205325662.1392089
0.8326444568149735	206665974.86209595
0.8328526179291771	208006622.66316217
0.8330608310836596	209347605.62618065
0.8332690962914304	210688923.83493814
0.8334774135655034	211474710.9527401
0.833685782918895	211639773.4713671
0.8338942043646247	211804877.25562364
0.834102677915716	211970022.31582636
0.834311203585195	212135208.662294
0.8345197813860912	212364890.75872004
0.8347284113314379	212811589.9932455
0.8349370934342709	213258400.90257934
0.8351458277076294	213705323.51463997
0.8353546141645565	214152357.85735434
0.8355634528180977	214599503.95865422
0.8357723436813022	215282502.09807432
0.8359812867672226	215968581.77846807
0.8361902820889144	216654832.97878158
0.8363993296594368	217341255.7418954
0.8366084294918518	218027850.11070022
0.8368175815992247	218454382.63683924
0.8370267859946247	218791394.7088232
0.8372360426911234	219128491.03382507
0.8374453517017962	219465671.63290817
0.8376547130397217	219802936.52714097
0.8378641267179816	220417215.64979285
0.8380735927496613	221306434.80329317
0.8382831111478488	222195876.26158136
0.8384926819256358	223085540.0802336
0.8387023050961173	223975426.3148413
0.8389119806723914	224558957.7451974
0.8391217086675596	224279826.42700982
0.8393314890947265	224000625.32599288
0.8395413219670003	223721354.42470068
0.8397512072974922	223442013.70568296
0.8399611450993165	223177056.15041527
0.8401711353855914	223629763.11737794
0.8403811781694378	224082583.26108223
0.8405912734639802	224535516.60982257
0.8408014212823464	224988563.1919003
0.8410116216376671	225441723.0356235
0.8412218745430766	225079103.29805997
0.8414321800117124	224478999.56424907
0.8416425380567154	223878745.80450442
0.8418529486912297	223278341.9813197
0.8420634119284025	222677788.0571797
0.8422739277813847	223456923.6130155
0.8424844962633302	225451946.19952703
0.842695117387396	227447467.5416826
0.8429057911667428	229443487.7641738
0.8431165176145345	231440006.9917216
0.8433272967439382	231446240.23706946
0.8435381285681244	226596398.10753152
0.8437490131002665	221745343.51746225
0.8439599503535415	216893076.1637485
0.84417094034113	212039595.74319282
0.8443819830762154	207344412.61095718
0.8445930785719846	205861411.53301057
0.8448042268416277	204378039.70479533
0.8450154278983382	202894297.0336232
0.8452266817553128	201410183.42678338
0.8454379884257517	199925698.7915417
0.8456493479228583	200324043.74702275
0.845860760259839	201175985.65331236
0.846072225449904	202028140.54507852
0.8462837435062666	202880508.47556782
0.8464953144421433	203733089.49804023
0.8467069382707537	204677996.50966
0.8469186150053215	205694938.88089883
0.847130344659073	206712135.48773074
0.8473421272452377	207729586.39371338
0.8475539627770492	208747291.66242352
0.8477658512677435	209752866.05304152
0.8479777927305605	210732393.27426797
0.8481897871787432	211712165.3772995
0.848401834625538	212692182.4233573
0.8486139350841944	213672444.47367603
0.8488260885679657	214613123.69135642
0.8490382950901076	215068550.1393326
0.8492505546638802	215524090.44392103
0.8494628673025462	215979744.63358545
0.8496752330193721	216435512.73679793
0.8498876518276269	216891394.78203562
0.8501001237405839	216498278.7981646
0.8503126487715191	215935566.86735648
0.850525226933712	215372714.25856593
0.8507378582404455	214809720.93662325
0.8509505427050057	214246586.8663497
0.8511632803406821	212411171.1362853
0.8513760711607672	209704113.00238314
0.8515889151785576	206996378.1039433
0.8518018124073523	204287966.27178112
0.8520147628604541	201578877.33666247
0.8522277665511693	199749897.60481915
0.8524408234928071	199549368.7476711
0.8526539336986805	199348789.7583087
0.8528670971821053	199148160.62419897
0.8530803139564007	198947481.33280596
0.8532935840348901	198601983.59100327
0.8535069074308987	197033757.36848518
0.8537202841577566	195465139.08941016
0.8539337142287962	193896128.65576515
0.8541471976573534	192326725.96951276
0.8543607344567677	190756930.9325885
0.8545743246403821	183838687.8901704
0.8547879682215422	176069382.93936443
0.8550016652135977	168298135.66232178
0.8552154156299011	160524945.57345942
0.8554292194838088	152749812.18706924
0.8556430767886797	148194295.30832818
0.855856987557877	145593685.87260768
0.8560709518047664	142992426.28452986
0.8562849695427177	140390516.38155407
0.8564990407851035	137787956.0011018
0.8567131655452999	134809630.26183268
0.8569273438366862	131215921.9558515
0.8571415756726455	127621315.22279315
0.8573558610665638	124025809.83805022
0.8575702000318304	120429405.57696502
0.8577845925818384	118175641.37783015
0.857999038729984	124313554.31387734
0.8582135384896665	130453001.72815715
0.858428091874289	136593984.00429088
0.8586426988972576	142736501.52599198
0.8588573595719821	148880554.67707562
0.8590720739118751	146327265.7266975
0.8592868419303532	142747714.7321952
0.8595016636408359	139167268.84994426
0.8597165390567462	135585927.85622397
0.8599314681915105	132003691.52725431
0.8601464510585584	127915342.22561038
0.860361487671323	123557804.96025646
0.8605765780432408	119199178.31058747
0.8607917221877518	114839462.00425248
0.8610069201182988	110478655.76884209
0.8612221718483286	107043203.56082502
0.8614374773912907	104942487.22159378
0.8616528367606385	102841245.70327832
0.8618682499698288	100739478.87458193
0.8620837170323213	98637186.60417873
0.8622992379615795	96707694.49181555
0.8625148127710699	95635442.64536794
0.8627304414742627	94562922.73595862
0.8629461240846313	93490134.69657177
0.8631618606156526	92417078.460175
0.8633776510808066	91343753.9597193
0.8635934954935769	92287886.75094338
0.8638093938674504	93397652.19399767
0.8640253462159173	94507695.07841268
0.8642413525524714	95618015.47354877
0.8644574128906095	96728613.44878341
0.8646735272438323	95409525.68397065
0.8648896956256433	92960107.83999139
0.8651059180495498	90510077.641551
0.8653221945290621	88059434.93556334
0.8655385250776946	85608179.56889576
0.8657549097089641	85243243.00532746
0.8659713484363913	87549946.4378168
0.8661878412735006	89857226.5461653
0.866404388233819	92165083.47454059
0.8666209893308775	94473517.36714691
0.8668376445782103	96372406.75317104
0.8670543539893549	96597856.35617034
0.8672711175778525	96823362.32157055
0.8674879353572469	97048924.66346185
0.8677048073410862	97274543.39593871
0.8679217335429217	97500218.53309883
0.8681387139763074	95713269.30725746
0.8683557486548015	93825888.49062674
0.8685728375919655	91938035.82878955
0.8687899808013633	90049711.203791
0.8690071782965637	88160914.49763376
0.869224430091138	87553802.83199674
0.8694417361986609	87468247.54844463
0.8696590966327107	87382670.87607165
0.869876511406869	87297072.80953056
0.8700939805347206	87211453.34347288
0.8703115040298544	87618627.75480151
0.870529081905862	88589334.39350012
0.8707467141763385	89560283.70885807
0.8709644008548827	90531475.76154481
0.8711821419550964	91502910.61224413
0.8713999374905854	92429589.48580174
0.871617787474958	93201193.43369311
0.8718356919218269	93972990.28257215
0.8720536508448075	94744980.08066346
0.8722716642575187	95517162.87620384
0.8724897321735832	96289538.71744344
0.8727078546066265	98057775.62059185
0.8729260315702784	99841601.9589391
0.873144263078171	101625874.25386904
0.8733625491439405	103410592.61687288
0.8735808897812266	105195757.15946816
0.8737992850036719	105663747.0517068
0.874017734824923	105665174.26928246
0.8742362392586293	105666601.8436625
0.874454798318444	105668029.77493614
0.8746734120180236	105669458.06319259
0.8748920803710283	105506854.00428969
0.875110803391121	105179372.05675933
0.8753295810919689	104851808.2387419
0.875548413487242	104524162.52976997
0.8757673005906139	104196434.90937078
0.8759862424157616	104531598.37859967
0.8762052389763657	106785189.3639978
0.8764242902861098	109039343.74714072
0.8766433963586814	111294061.66888003
0.8768625572077712	113549343.27010046
0.8770817728470732	115788653.04188906
0.8773010432902849	116737460.82557845
0.8775203685511077	117686505.81121513
0.8777397486432454	118635788.05809705
0.8779591835804065	119585307.62554184
0.8781786733763015	120535064.57287721
0.8783982180446457	120511273.89745757
0.878617817599157	120197794.41986373
0.8788374720535569	119884236.57240064
0.8790571814215703	119570600.33547576
0.8792769457169257	119256885.68949164
0.879496764953355	119379979.44882828
0.8797166391445934	119895893.94059771
0.8799365683043796	120411937.41099013
0.8801565524464557	120928109.89225014
0.8803765915845676	121444411.41663095
0.8805966857324639	121738074.84594198
0.880816834903897	121472287.34180085
0.881037039112623	121206433.39078358
0.8812572983724012	120940512.97627857
0.8814776126969944	120674526.08166982
0.8816979821001687	120514953.46212251
0.8819184065956938	122861916.23998313
0.8821388861973429	125209465.75854063
0.8823594209188923	127557602.1644755
0.882580010774122	129906325.60451081
0.8828006557768155	132255636.2254074
0.8830213559407598	135411130.83804685
0.8832421112797452	138770030.06274238
0.8834629218075651	142129769.01224205
0.8836837875380171	145490347.8964801
0.8839047084849018	148851766.92543977
0.884125684662023	149919064.51868874
0.8843467160831886	149147510.1616275
0.8845678027622095	148375762.915977
0.8847889447129001	147603822.73351496
0.8850101419490785	146831689.56600744
0.8852313944845657	146974108.70714703
0.885452702333187	149118828.81244913
0.8856740655087704	151264085.09777725
0.8858954840251476	153409877.69717613
0.8861169578961539	155556206.74472386
0.886338487135628	157409148.12011713
0.886560071757412	155351183.10128108
0.8867817117753515	153292703.59119037
0.8870034072032955	151233709.4612212
0.8872251580550963	149174200.58272195
0.8874469643446101	147114176.8270018
0.8876688260856963	147143606.5767938
0.8878907432922178	147605589.45197842
0.8881127159780409	148067687.8228815
0.8883347441570356	148529901.7183779
0.8885568278430749	148992231.16734767
0.8887789670500358	148856205.76828206
0.8890011617917983	148295607.21245825
0.8892234120822464	147734868.50699526
0.8894457179352669	147173989.61685637
0.8896680793647509	146612970.50699446
0.8898904963845921	146824028.53175563
0.8901129690086883	148508550.4269961
0.8903354972509405	150193493.45271
0.8905580811252535	151878857.7141816
0.8907807206455347	153564643.3167163
0.8910034158256963	155299986.91051462
0.8912261666796527	157474895.866194
0.8914489732213227	159650348.54911292
0.8916718354646282	161826345.09520468
0.8918947534234944	164002885.64043087
0.8921177271118502	166179970.32079202
0.8923407565436284	168022182.70309818
0.8925638417327644	169810140.07565102
0.8927869826931977	171598544.43754756
0.8930101794388711	173387395.90053448
0.8932334319837308	175176694.57638687
0.8934567403417267	176690723.21418723
0.8936801045268123	178033804.47429854
0.8939035245529441	179377221.50472394
0.8941270004340824	180720974.3894075
0.894350532184191	182065063.21231186
0.8945741198172371	184155747.80649427
0.8947977633471915	187484537.84902316
0.8950214627880284	190814160.08906257
0.8952452181537254	194144614.73466
0.8954690294582639	197475901.99392083
0.8956928967156286	200645467.37070182
0.8959168199398075	202760903.01454854
0.8961407991447926	204876867.51730675
0.8963648343445789	206993361.01119062
0.896588925553165	209110383.62844676
0.8968130727845534	211227935.50135747
0.8970372760527496	212688728.72367668
0.8972615353717629	214067647.17411032
0.8974858507556059	215446910.3541567
0.8977102222182949	216826518.34999773
0.8979346497738496	218206471.2478385
0.8981591334362931	220034644.98440963
0.8983836732196523	222108208.5359094
0.8986082691379572	224182290.47829568
0.8988329212052417	226256890.9411676
0.8990576294355432	228332010.054157
0.8992823938429022	230125697.14761993
0.8995072144413631	231500607.65474996
0.8997320912449734	232875861.88950628
0.8999570242677847	234251459.93782097
0.9001820135238516	235627401.88564783
0.9004070590272328	237404066.34702748
0.9006321607919896	241280095.8130505
0.9008573188321878	245157094.286444
0.9010825331618959	249035062.00945398
0.9013078037951865	252913999.22439533
0.9015331307461353	256793906.17363837
0.9017585140288219	259404230.75128847
0.9019839536573292	261905771.9430533
0.9022094496457435	264407938.52011427
0.9024350020081551	266910730.63882232
0.9026606107586572	269414148.45555925
0.902886275911347	271715453.3146821
0.9031119974803249	273919599.2806766
0.9033377754796951	276124296.2831626
0.903563609923565	278329544.45989823
0.903789500826046	280535343.94867957
0.9040154482012526	282120539.582296
0.904241452063303	282901479.0531373
0.9044675124263188	283682613.75884616
0.9046936293044254	284463943.7482313
0.9049198027117517	285245469.0701142
0.9051460326624297	285921558.47324216
0.9053723191705955	286148014.2493191
0.9055986622503881	286374526.63933986
0.9058250619159507	286601095.65745807
0.9060515181814298	286827721.31783104
0.9062780310609752	287054403.6346189
0.9065046005687405	289396398.0963262
0.906731226718883	291856981.90577394
0.9069579095255627	294318180.8611709
0.907184649002944	296779995.1163069
0.907411445165195	299242424.8250091
0.9076382980264862	302576867.56566256
0.907865207600993	306274033.65350693
0.9080921739028933	309972124.03287214
0.9083191969463691	313671138.9348316
0.9085462767456058	317371078.5905184
0.9087734133147922	320264494.3122336
0.9090006066681211	322226019.87805253
0.909227856819788	324188035.82526034
0.9094551637839932	326150542.2764576
0.9096825275749393	328113539.3542671
0.9099099482068329	330410490.98582757
0.9101374256938848	333893152.99856955
0.9103649600503083	337376685.67681307
0.9105925512903209	340861089.2382255
0.9108201994281437	344346363.90053195
0.9110479044780008	347832509.88149995
0.9112756664541204	353759506.527062
0.911503485370734	359743835.61386925
0.9117313612420768	365729660.7829482
0.9119592940823873	371716982.40831757
0.912187283905908	377705800.8640952
0.9124153307268845	380880991.8516211
0.9126434345595664	383035250.9291001
0.9128715954182063	385190048.57134646
0.9130998133170609	387345384.91300446
0.9133280882703902	389501260.08874774
0.913556420292458	393116897.6380604
0.9137848093975312	398238357.74011636
0.9140132555998806	403361098.2071972
