#wavelength	surface flux
0.7	224085.03636144256
0.7001166666666666	224424.06977137658
0.7002333527777778	224564.2986512334
0.700350058336574	224704.55090257016
0.7004667833462966	224844.82652928194
0.7005835278101878	224985.12553526525
0.7007002917314895	225125.447924416
0.7008170751134447	225265.79370063156
0.7009338779592968	225406.16286780976
0.7010507002722901	225541.48917750272
0.7011675420556689	225670.672749294
0.701284403312678	225799.8778516804
0.7014012840465635	225929.10448825068
0.7015181842605713	226058.35266259368
0.701635103957948	226187.622378299
0.701752043141941	226316.91363895693
0.701869001815798	226446.22644815847
0.7019859799827672	226739.15473011284
0.7021029776460976	227145.9839905946
0.7022199948090387	227552.88105595362
0.7023370314748403	227959.84593749003
0.7024540876467528	228366.87864650664
0.702571163328027	228773.9791943074
0.7026882585219152	229181.14759220055
0.7028053732316688	229588.38385149275
0.7029225074605406	230135.44784411107
0.7030396612117841	230736.57070579712
0.7031568344886527	231337.79375462688
0.7032740272944008	231939.1170072977
0.7033912396322832	232540.54048051097
0.7035084715055552	233142.06419096916
0.7036257229174727	233743.68815537935
0.7037429938712924	234345.41239045083
0.7038602843702709	234495.39927673293
0.7039775944176659	234568.77619126282
0.7040949240167356	234642.16533527846
0.7042122731707383	234715.5667108181
0.7043296418829335	234788.98031992035
0.7044470301565806	234862.40616462412
0.70456443799494	234935.8442469686
0.7046818654012724	235009.2945689935
0.7047993123788394	235479.83641404644
0.7049167789309024	235950.91234883587
0.7050342650607243	236422.06679628187
0.7051517707715678	236893.29976946884
0.7052692960666963	237364.61128148445
0.705386840949374	237836.00134541857
0.7055044054228656	238307.46997436407
0.7056219894904361	238721.90357320997
0.7057395931553511	238773.45534420293
0.705857216420877	238825.01570715773
0.7059748592902804	238876.58466350634
0.7060925217668288	238928.16221468104
0.70621020385379	238979.74836211427
0.7063279055544321	239031.34310723867
0.7064456268720246	239082.94645148737
0.7065633678098366	239175.88942362348
0.7066811283711383	239382.67429342913
0.7067989085592001	239589.49362737974
0.7069167083772933	239796.3474312192
0.7070345278286895	240003.23571069282
0.707152366916661	240210.15847154637
0.7072702256444803	240417.11571952645
0.7073881040154211	240624.10746038152
0.7075060020327569	240890.06061804818
0.7076239196997625	241241.87616325976
0.7077418570197124	241593.75034439517
0.7078598139958823	241945.68317122743
0.7079777906315483	242297.67465353117
0.7080957869299869	242649.7248010817
0.7082138028944751	243001.83362365662
0.7083318385282908	243354.00113103556
0.7084498938347124	243418.99511488082
0.708567968817018	243240.47858747898
0.7086860634784875	243061.93230732236
0.7088041778224007	242883.35626945226
0.7089223118520377	242704.7504689094
0.7090404655706796	242526.11490073323
0.709158638981608	242347.44955996212
0.709276832088105	242168.75444163423
0.7093950448934531	242265.1232557386
0.7095132774009353	242492.7032916891
0.7096315296138355	242720.32125764567
0.7097498015354378	242947.97715992984
0.7098680931690269	243175.67100486418
0.7099864045178884	243403.40279877296
0.7101047355853081	243631.17254798068
0.7102230863745722	243858.9802588131
0.7103414568889679	244072.4904909285
0.7104598471317828	244282.77895685646
0.7105782571063047	244493.10247086192
0.7106966868158224	244703.46103878636
0.710815136263625	244913.8546664721
0.7109336054530023	245124.28335976257
0.7110520943872445	245334.74712450185
0.7111706030696424	245545.24596653538
0.7112891315034873	245445.6520184005
0.7114076796920712	245331.24437728155
0.7115262476386865	245216.8176682224
0.7116448353466263	245102.37188804516
0.711763442819184	244987.90703357116
0.711882070059654	244873.42310162133
0.7120007170713306	244758.92008901623
0.7121193838575091	244645.84881065218
0.7122380704214853	244547.89034823986
0.7123567767665555	244449.9155594172
0.7124755028960166	244351.92444146302
0.7125942488131658	244253.91699165595
0.7127130145213015	244155.89320727362
0.7128318000237216	244057.8530855942
0.7129506053237256	243959.79662389436
0.7130694304246129	243858.36724737185
0.7131882753296837	243745.18520750795
0.7133071400422386	243631.9843039707
0.7134260245655789	243518.76453361628
0.7135449289030065	243405.52589330007
0.7136638530578235	243292.26837987723
0.7137827970333332	243178.991990202
0.7139017608328388	243065.6967211285
0.7140207444596443	242929.31226824503
0.7141397479170543	242751.74995685095
0.7142587712083737	242574.15805173857
0.7143778143369084	242396.53654797518
0.7144968773059646	242218.88544062778
0.7146159601188489	242041.20472476256
0.7147350627788687	241863.4943954447
0.7148541852893318	241685.75444773867
0.7149733276535467	241363.49332731767
0.7150924898748222	240895.4764478783
0.715211671956468	240427.38156562558
0.7153308739017941	239959.2086675588
0.715450095714111	239490.9577406759
0.71556933739673	239022.62877197177
0.7156885989529628	238554.2217484396
0.7158078803861218	238085.73665706947
0.7159271816995193	237197.66945086257
0.7160465028964692	236063.23153771277
0.7161658439802853	234928.60455157747
0.7162852049542819	233793.7884609447
0.7164045858217744	232658.7832342961
0.716523986586078	231523.58884011023
0.7166434072505089	230388.20524685923
0.716762847818384	229252.63242300894
0.7168823082930204	228404.83685166622
0.7170017886777359	227641.61850420063
0.7171212889758488	226878.27295367757
0.7172408091906781	226114.8001788959
0.7173603493255433	225351.2001586515
0.7174799093837642	224587.47287173753
0.7175994893686615	223823.61829694206
0.7177190892835562	223059.63641305114
0.7178387091317702	223217.72348495355
0.7179583489166254	223468.40961676033
0.7180780086414448	223719.13752958924
0.7181976883095517	223969.90723040362
0.7183173879242699	224220.71872616818
0.718437107488924	224471.57202384874
0.7185568470068389	224722.46713041235
0.7186766064813399	224952.6972154429
0.7187963859157535	224665.24910353904
0.7189161853134061	224377.75308361655
0.719036004677625	224090.2091476907
0.7191558440117378	223802.61728777573
0.7192757033190732	223514.9774958837
0.7193955826029597	223227.28976402667
0.7195154818667269	222939.55408421412
0.7196354011137046	222638.9666858787
0.7197553403472235	222279.3783780589
0.7198752995706147	221919.7301388546
0.7199952787872098	221560.02195827683
0.720115278000341	221200.25382633568
0.7202352972133411	220840.42573303916
0.7203553364295432	220480.53766839427
0.7204753956522815	220120.58962240478
0.7205954748848902	219971.21801277122
0.7207155741307044	220286.19610650546
0.7208356933930594	220601.22669658813
0.7209558326752915	220916.3097917692
0.7210759919807375	221231.4454007999
0.7211961713127342	221546.63353243168
0.7213163706746197	221861.87419541925
0.7214365900697322	222177.167398517
0.7215568295014103	222102.76362027432
0.721677088972994	221563.31059350245
0.7217973684878227	221023.76765789365
0.7219176680492374	220484.13479846163
0.7220379876605789	219944.41200022004
0.722158327325189	219404.5992481785
0.7222786870464099	218864.69652734528
0.7223990668275843	218324.70382272502
0.7225194666720555	217608.8405737664
0.7226398865831676	216768.27794098394
0.7227603265642646	215927.57521443136
0.722880786618692	215086.73237075587
0.7230012667497951	214245.749386607
0.7231217669609201	213404.62623862733
0.7232422872554135	212563.3629034571
0.7233628276366229	211721.95935772953
0.7234833881078956	211392.39412558253
0.7236039686725803	211257.1524622153
0.7237245693340255	211121.88825857104
0.7238451900955812	210986.60151089262
0.7239658309605971	210851.29221542305
0.7240864919324239	210715.96036840408
0.7242071730144127	210580.60596607724
0.724327874209915	210445.22900468364
0.7244485955222832	209220.0078833708
0.7245693369548704	207814.38976480838
0.7246900985110294	206408.5373765616
0.7248108801941148	205002.45067957972
0.7249316820074803	203596.12963481972
0.7250525039544815	202189.57420321662
0.7251733460384739	200782.78434570803
0.7252942082628137	199377.5953526236
0.7254150906308574	199035.62014579494
0.7255359931459625	198693.5879430984
0.7256569158114868	198351.49873503466
0.7257778586307888	198009.35251210272
0.7258988216072273	197667.1492648004
0.7260198047441617	197324.8889836239
0.7261408080449525	196982.57165906666
0.72626183151296	196638.39641500774
0.7263828751515454	196282.19601649704
0.7265039389640706	195925.93625125333
0.726625022953898	195569.61710938183
0.7267461271243904	195213.23858098654
0.7268672514789111	194856.80065617006
0.7269883960208241	194500.3033250331
0.7271095607534942	194143.74657767406
0.7272307456802866	193735.42217101267
0.7273519508045666	193187.3532914957
0.7274731761297006	192639.19306716573
0.7275944216590555	192090.9414827984
0.7277156873959987	191542.5985231668
0.7278369733438982	190994.16417304103
0.727958279506122	190445.63841719172
0.7280796058860397	189897.02124038243
0.7282009524870207	189087.3247377191
0.7283223193124353	187891.4631332557
0.7284437063656539	186695.4022185273
0.7285651136500483	185499.14196031122
0.7286865411689898	184302.68232538787
0.7288079889258514	183106.02328052247
0.7289294569240056	181909.16479248565
0.7290509451668262	180712.10682803282
0.7291724536576875	179672.06093891326
0.7292939823999636	178762.10843045262
0.7294155313970303	177852.00426323875
0.7295371006522632	176941.74841199728
0.7296586901690385	176031.34085144795
0.7297802999507332	175120.78155630562
0.7299019300007252	174210.0705012784
0.7300235803223919	173299.2076610778
0.7301452509191123	172658.75430819683
0.7302669417942654	172143.07704231315
0.7303886529512311	171627.3138302183
0.7305103843933897	171111.46465758802
0.7306321361241218	170595.52951009598
0.7307539081468093	170079.5083734118
0.7308757004648336	169563.40123320595
0.7309975130815778	169047.20807514276
0.7311193460004248	168595.20161774277
0.7312411992247582	168157.6703521448
0.7313630727579622	167720.06616466935
0.7314849666034219	167282.38904316223
0.7316068807645224	166844.63897546844
0.7317288152446498	166406.81594942982
0.7318507700471907	165968.91995288664
0.7319727451755319	165530.95097367757
0.732094740633061	164663.97367879734
0.7322167564231665	163777.54108371204
0.7323387925492371	162890.96074986082
0.7324608490146619	162004.2326526209
0.732582925822831	161117.35676736454
0.7327050229771347	160230.33306946166
0.7328271404809642	159343.1615342749
0.7329492783377112	158460.1563905541
0.7330714365507675	157619.4177559265
0.7331936151235259	156778.5389981933
0.7333158140593796	155937.52009400146
0.7334380333617229	155096.361019991
0.7335602730339499	154255.0617528011
0.7336825330794556	153413.62226906652
0.7338048135016354	152572.0425454196
0.7339271143038857	151804.62626892162
0.734049435489603	151286.0504700446
0.7341717770621846	150767.38824186768
0.7342941390250283	150248.63956998632
0.7344165213815324	149729.8044399932
0.734538924135096	149210.8828374776
0.7346613472891185	148691.874748029
0.734783790847	148172.78015723193
0.7349062548121412	147446.11042667893
0.7350287391879431	146352.5749676146
0.7351512439778078	145258.8572526382
0.7352737691851374	144164.9572513773
0.735396314813335	143070.87493344853
0.7355188808658037	141976.6102684686
0.7356414673459482	140882.16322604226
0.7357640742571725	139787.53377577628
0.7358867016028818	138789.27957622515
0.7360093493864824	137886.21842642056
0.7361320176113801	136983.00676642553
0.736254706280982	136079.64457115385
0.7363774153986956	135176.13181551514
0.7365001449679286	134272.46847441897
0.7366228949920899	133368.65452276525
0.7367456654745885	132464.68993545292
0.7368684564188344	131563.51278040386
0.7369912678282374	130663.84597742435
0.7371140997062088	129764.02922997733
0.7372369520561599	128864.06251307153
0.7373598248815024	127963.94580171494
0.7374827181856494	127063.67907090495
0.7376056319720137	126163.26229563975
0.7377285662440091	125262.69545091188
0.7378515210050496	124177.21945674671
0.7379744962585505	123035.97417091939
0.738097492007927	121894.53867754473
0.7382205082565949	120752.91294492187
0.738343545007971	119611.09694134381
0.7384666022654723	118469.09063509732
0.7385896800325165	117326.8939944682
0.7387127783125219	116184.50698773087
0.7388358971089073	115623.02960956826
0.7389590364250921	115119.74442681982
0.7390821962644963	114616.3753632072
0.7392053766305403	114112.92240475139
0.7393285775266454	113609.38553746881
0.7394517989562333	113105.76474737452
0.7395750409227259	112602.0600204827
0.7396983034295463	112083.00227850507
0.739821586480118	111224.18632822335
0.7399448900778645	110365.22724195162
0.7400682142262109	109506.12499582957
0.740191558928582	108646.87956600075
0.7403149241884034	107787.49092860095
0.7404383100091014	106927.95905976139
0.7405617163941028	106068.28393561089
0.7406851433468352	105183.28632873035
0.7408085908707264	104182.9524214141
0.7409320589692048	103182.45179178046
0.7410555476456997	102181.78441204107
0.7411790569036406	101180.95025440579
0.7413025867464579	100179.94929107728
0.7414261371775823	99178.78149425461
0.7415497082004452	98177.44683613324
0.7416732998184786	97179.37830330966
0.741796912035115	96188.50791754643
0.7419205448537874	95197.47238671915
0.7420441982779297	94206.27168330344
0.742167872310976	93214.90577976956
0.7422915669563612	92223.37464858513
0.7424152822175206	91231.67826221243
0.7425390180978901	90239.81659310928
0.7426627746009065	89350.02220233357
0.7427865517300065	88584.7083587019
0.7429103494886282	87819.26696276217
0.7430341678802096	87053.69799325704
0.7431580069081896	86288.0014289237
0.7432818665760077	85522.17724849521
0.7434057468871037	84756.22543070398
0.7435296478449182	83990.14595427687
0.7436535694528923	83165.30402955733
0.7437775117144678	82300.18733371767
0.7439014746330868	81434.92645176334
0.7440254582121922	80569.52135966127
0.7441494624552276	79703.97203337683
0.7442734873656368	78838.27844887154
0.7443975329468645	77972.44058210148
0.7445215992023557	77106.45840902037
0.7446456861355559	76253.95056400278
0.7447697937499119	75406.31738650383
0.7448939220488703	74558.54293680882
0.7450180710358784	73710.62719137296
0.7451422407143843	72862.57012664608
0.7452664310878367	72014.37171907429
0.7453906421596846	71166.03194510215
0.7455148739333779	70317.55078116739
0.7456391264123667	69511.01462106901
0.7457633996001021	68711.0734236908
0.7458876935000356	67910.99890277827
0.7460120081156189	67110.79103611379
0.7461363434503048	66310.44980147116
0.7462606995075466	65509.975176622014
0.7463850762907978	64709.36713933661
0.7465094738035127	63908.756346368726
0.7466338920491467	63142.1970150807
0.746758331031155	62375.509923903366
0.7468827907529935	61608.69505154509
0.7470072712181189	60841.75237670805
0.7471317724299886	60074.68187809173
0.7472562943920602	59307.48353439285
0.7473808371077922	58540.157324302665
0.7475054005806435	57774.47082097217
0.7476299848140736	57019.544391898344
0.7477545898115426	56264.49214175284
0.7478792155765113	55509.31404956546
0.7480038621124406	54754.010094363315
0.7481285294227926	53998.5802551688
0.7482532175110298	53243.0245110003
0.7483779263806148	52487.34284087549
0.7485026560350116	51743.89571284517
0.7486274064776842	51033.777877640925
0.748752177712097	50323.54168946543
0.7488769697417158	49613.187128590405
0.749001782570006	48902.714175289424
0.7491266162004343	48192.122809829765
0.7492514706364677	47481.41301247554
0.7493763458815739	46770.58476348771
0.7495012419392209	46070.16968134292
0.7496261588128773	45384.77834834099
0.7497510965060128	44699.27278344974
0.7498760550220971	44013.65296763127
0.7500010343646007	43327.91888184338
0.7501260345369949	42642.070507040866
0.750251055542751	41956.10782417665
0.7503760973853414	41270.03081419821
0.7505011600682389	40610.30939906502
0.750626243594917	39972.57982584454
0.7507513479688495	39334.743964362824
0.7508764731935109	38696.80179690398
0.7510016192723765	38058.75330575039
0.7511267862089218	37420.5984731822
0.7512519740066232	36782.33728147503
0.7513771826689577	36143.96971290221
0.7515024121994025	35550.13673033167
0.7516276626014359	34977.01890943659
0.751752933878536	34403.8055689057
0.7518782260341824	33830.496692817855
0.7520035390718548	33257.09226525041
0.7521288729950334	32683.59227027867
0.7522542278071992	32109.99669197439
0.7523796035118337	31536.305514406777
0.7525050001124189	30987.770349640483
0.7526304176124378	30444.63542669743
0.7527558560153731	29901.40998126792
0.752881315324709	29358.09399826364
0.7530067955439299	28814.687462595335
0.7531322966765205	28271.190359171807
0.7532578187259665	27727.60267289755
0.7533833616957542	27183.92438867559
0.75350892558937	26678.595117776247
0.7536345104103016	26174.989166424624
0.7537601161620366	25671.299280748033
0.7538857428480638	25167.525446756677
0.7540113904718717	24663.667650460302
0.7541370590369503	24159.72587786466
0.7542627485467898	23655.700114973268
0.7543884590048808	23157.522492976273
0.7545141904147151	22718.417865374733
0.7546399427797842	22279.240053669302
0.7547657161035808	21839.98904566185
0.754891510389598	21400.664829153084
0.7550173256413296	20961.267391941394
0.7551431618622698	20521.796721823604
0.7552690190559135	20082.252806594224
0.7553948972257561	19651.545019056484
0.7555207963752938	19250.670898146196
0.755646716508023	18849.729964882656
0.755772657627441	18448.722208130097
0.7558986197370455	18047.647616751354
0.756024602840335	17646.50617960748
0.7561506069408084	17245.297885557426
0.7562766320419653	16844.022723457998
0.7564026781473054	16454.64646522737
0.75652874526033	16086.261896766937
0.7566548333845401	15717.815930878236
0.7567809425234375	15349.308557328684
0.7569070726805247	14980.73976588375
0.7570332238593047	14612.10954630696
0.7571593960632813	14243.417888359887
0.7572855892959586	13874.664781803136
0.7574118035608413	13535.524190950671
0.7575380388614347	13225.358094395973
0.7576642952012449	12915.140303491733
0.7577905725837782	12604.870809622791
0.7579168710125422	12294.549604170983
0.7580431904910444	11984.176678518152
0.7581695310227928	11673.752024044768
0.7582958926112967	11363.275632128583
0.7584222752600652	11077.530479434869
0.7585486789726085	10805.974581774568
0.7586751037524372	10534.373424797888
0.7588015496030628	10262.72700096118
0.7589280165279966	9991.035302721039
0.7590545045307512	9719.29832253119
0.7591810136148396	9447.516052844647
0.7593075437837755	9175.688486112758
0.7594340950410726	8931.758582594377
0.7595606673902461	8695.895300977283
0.7596872608348112	8459.992708813015
0.7598138753782836	8224.050799550314
0.75994051102418	7988.069566635848
0.7600671677760173	7752.04900351608
0.7601938456373134	7515.989103635612
0.7603205446115863	7279.88986043863
0.7604472647023548	7070.603786338977
0.7605740059131385	6863.951968404953
0.7607007682474575	6657.2657085010715
0.7608275517088319	6450.545000887665
0.7609543563007835	6243.789839822531
0.7610811820268336	6037.00021956401
0.7612080288905045	5830.176134369178
0.7613348968953197	5624.180473231978
0.7614617860448022	5435.85517421925
0.7615886963424764	5247.498487656431
0.7617156277918667	5059.1104083127
0.7618425803964988	4870.69093095559
0.7619695541598982	4682.240050352304
0.7620965490855914	4493.757761269057
0.7622235651771058	4305.244058470744
0.7623506024379685	4122.659364113624
0.7624776608717082	3966.169442863714
0.7626047404818536	3809.653439960254
0.7627318412719337	3653.11135105658
0.762858963245479	3496.5431718046566
0.7629861064060198	3339.9488978561776
0.7631132707570876	3183.328524861877
0.7632404563022137	3026.682048472219
0.7633676630449308	2876.202433884282
0.7634948909887717	2738.8805153415447
0.7636221401372697	2601.5357098125623
0.7637494104939593	2464.1680134825287
0.7638767020623748	2326.777422536639
0.7640040148460518	2189.363933158768
0.7641313488485262	2051.9275415326724
0.7642587040733344	1914.4682438411496
0.7643860805240132	1783.9592228059305
0.7645134782041005	1661.7495521652484
0.7646408971171346	1539.5195132460753
0.764768337266654	1417.2691026537937
0.7648957986561985	1294.9983169930406
0.7650232812893079	1172.7071528680272
