#wavelength	surface flux
0.8	665252.5745572941
0.8002000000000001	674630.040615803
0.8004000500000003	684547.7004032325
0.8006001500125003	694473.272413731
0.8008003000500035	704401.325817233
0.8010005001250161	714331.8612340904
0.8012007502500472	724264.8792847876
0.8014010504376099	733650.6849270582
0.8016014007002193	742854.7057674626
0.8018018010503944	752061.0276130771
0.8020022515006572	761269.6510391571
0.8022027520635323	770480.5766210856
0.8024033027515483	780247.5894499201
0.8026039035772362	790559.7312745503
0.8028045545531306	800874.4511346371
0.8030052556917691	811191.749674694
0.803206007005692	821511.6275393767
0.8034068085074435	831818.3067129527
0.8036076602095705	842083.3326562431
0.8038085621246229	852350.9248560113
0.8040095142651542	862621.0839538358
0.8042105166437206	872893.8105914313
0.8044115692728815	883169.7573316757
0.8046126721651998	893476.3133291241
0.8048138253332411	903785.4459655636
0.8050150287895745	914097.1558851718
0.805216282546772	924411.4437322571
0.8054175866174087	934728.3101512988
0.8056189410140631	944908.3343137389
0.8058203457493168	955051.4381626473
0.8060218008357541	965197.0777875051
0.8062233062859632	975345.2538222742
0.8064248621125346	985495.966901045
0.806626468328063	996221.8490727041
0.8068281249451449	1007442.2338264112
0.8070298319763813	1018665.4236763205
0.8072315894343755	1029891.4193236838
0.8074333973317341	1041120.2214699632
0.8076352556810671	1051626.5100832745
0.8078371644949874	1060389.4571480395
0.8080391237861113	1069154.5949495728
0.8082411335670578	1077921.924035551
0.8084431938504498	1086691.44495381
0.8086453046489125	1095372.3367818375
0.8088474659750746	1102364.4657674287
0.8090496778415686	1109358.3427852755
0.809251940261029	1116353.968272372
0.8094542532460944	1123351.342665846
0.8096566168094059	1130350.4664029104
0.8098590309636085	1139018.778858386
0.8100614957213493	1148079.5360903922
0.8102640110952797	1157142.5585117077
0.8104665770980536	1166207.8466886322
0.8106691937423283	1175275.4011876043
0.8108718610407639	1184562.0556977578
0.8110745790060241	1194016.8327795786
0.8112773476507757	1203473.973555678
0.8114801669876885	1212933.4786169694
0.8116830370294355	1222395.3485545204
0.8118859577886929	1231055.268512441
0.8120889292781401	1238046.7550957042
0.8122919515104597	1245039.9895506126
0.8124950244983374	1252034.9723141352
0.8126981482544621	1259031.7038233476
0.8129013227915257	1266423.1872817432
0.8131045481222237	1278316.4603693122
0.8133078242592543	1290212.7067751545
0.8135111512153191	1302111.9272425948
0.813714529003123	1314014.1225151536
0.8139179576353739	1325919.2933365325
0.8141214371247829	1344125.215622955
0.8143249674840641	1363556.9339232978
0.814528548725935	1382993.510153204
0.8147321808631167	1402434.945527194
0.8149358639083326	1421881.2412600215
0.8151395978743097	1438492.8885418663
0.8153433827737784	1453190.196627155
0.8155472186194719	1467891.1790394594
0.8157511054241268	1482595.8366973642
0.815955043200483	1497304.1705196938
0.8161590319612831	1514649.6407402772
0.8163630717192736	1536824.9405173333
0.8165671624872033	1559005.7841193092
0.8167713042778252	1581192.1729322071
0.8169754971038948	1603384.1083423195
0.8171797409781707	1622714.8662904475
0.8173840359134155	1619164.4998426365
0.8175883819223938	1615613.2458032179
0.8177927790178745	1612061.1039502874
0.8179972272126291	1608508.0740618927
0.8182017265194322	1604954.1559160294
0.8184062769510622	1620200.3582971788
0.8186108785203001	1638343.5692461422
0.8188155312399301	1656491.3159978183
0.8190202351227402	1674643.5996862026
0.819224990181521	1692800.4214454975
0.8194297964290664	1716285.5222468767
0.8196346538781738	1742985.3690667024
0.8198395625416434	1769691.8908482224
0.8200445224322789	1796405.089260199
0.820249533562887	1823124.9659717707
0.8204545959462778	1846707.9289133074
0.8206597095952644	1865237.2583381843
0.8208648745226633	1883771.2200954321
0.8210700907412941	1902309.815343116
0.8212753582639793	1920853.0452395931
0.8214806771035456	1937732.3611254585
0.8216860472728215	1944335.597090919
0.8218914687846397	1950940.4838653714
0.822096941651836	1957547.0218615208
0.822302465887249	1964155.2114921655
0.8225080415037209	1970765.0531702214
0.8227136685140968	1977403.8208990914
0.8229193469312254	1984047.3444424241
0.8231250767679583	1990692.528866645
0.8233308580371503	1997339.3745869682
0.8235366907516598	2003987.8820187266
0.8237425749243477	2028011.637888074
0.8239485105680789	2061249.7058585521
0.824154497695721	2094496.0833460018
0.824360536320145	2127750.7724278294
0.8245666264542252	2161013.7751819263
0.8247727681108388	2188033.95307196
0.8249789613028664	2206108.076101719
0.8251852060431922	2224186.717662251
0.825391502344703	2242269.8788831653
0.8255978502202894	2260357.560894401
0.8258042496828445	2278866.2122667045
0.8260107007452654	2299401.9971249206
0.8262172034204517	2319942.9159293305
0.8264237577213068	2340488.969963447
0.8266303636607373	2361040.160511081
0.8268370212516525	2381596.488856342
0.8270437305069654	2392564.8108182303
0.8272504914395923	2402786.2328897454
0.8274573040624523	2413010.210316781
0.8276641683884679	2423236.7437381647
0.8278710844305652	2433465.8337929156
0.8280780522016729	2450213.5795764914
0.8282850717147234	2469944.0088341627
0.8284921429826521	2489679.370699128
0.8286992660183978	2509419.6664045756
0.8289064408349024	2529164.897183935
0.8291136674451112	2546934.992150999
0.8293209458619727	2562212.7579186307
0.8295282760984382	2577494.3431276837
0.829735658167463	2592779.7487330567
0.8299430920820048	2608068.975689811
0.8301505778550254	2623631.3413782134
0.8303581154994891	2640272.5183757986
0.8305657050283641	2656917.85566765
0.8307733464546212	2673567.354293811
0.8309810397912352	2690221.015294656
0.8311887850511829	2706878.8397107185
0.8313965822474458	2737549.3455586242
0.8316044313930077	2768877.728407351
0.8318123325008561	2800213.943351819
0.8320202855839813	2831557.992350008
0.8322282906553774	2862909.877360449
0.8324363477280413	2884278.494609327
0.8326444568149735	2901630.070091755
0.8328526179291771	2918985.9834680334
0.8330608310836596	2936346.235822682
0.8332690962914304	2953710.828240396
0.8334774135655034	2965594.597338016
0.833685782918895	2971354.2285381327
0.8338942043646247	2977115.2996460455
0.834102677915716	2982877.8110217396
0.834311203585195	2988641.763025273
0.8345197813860912	2998262.4178282167
0.8347284113314379	3020862.6495809075
0.8349370934342709	3043468.5313915242
0.8351458277076294	3066080.0646725656
0.8353546141645565	3088697.2508369656
0.8355634528180977	3111320.0912978966
0.8357723436813022	3124012.196460937
0.8359812867672226	3136584.785539384
0.8361902820889144	3149160.5177650945
0.8363993296594368	3161739.393923865
0.8366084294918518	3174321.4148016796
0.8368175815992247	3202052.7477238625
0.8370267859946247	3235007.5088039734
0.8372360426911234	3267970.508574344
0.8374453517017962	3300941.7490946543
0.8376547130397217	3333921.232425091
0.8378641267179816	3361381.57061218
0.8380735927496613	3383364.1661400073
0.8382831111478488	3405352.2573167034
0.8384926819256358	3427345.845516182
0.8387023050961173	3449344.9321127296
0.8389119806723914	3470180.895490309
0.8391217086675596	3487733.180903629
0.8393314890947265	3505289.854388289
0.8395413219670003	3522850.917041322
0.8397512072974922	3540416.3699600305
0.8399611450993165	3557973.505622567
0.8401711353855914	3574903.925072343
0.8403811781694378	3591838.577126977
0.8405912734639802	3608777.4628446284
0.8408014212823464	3625720.5832837173
0.8410116216376671	3642667.939502914
0.8412218745430766	3659703.4227484977
0.8414321800117124	3676767.573672185
0.8416425380567154	3693835.9906336116
0.8418529486912297	3710908.6746992823
0.8420634119284025	3727985.626935955
0.8422739277813847	3768011.6745791244
0.8424844962633302	3828263.010933486
0.842695117387396	3888529.410121859
0.8429057911667428	3948810.8759100316
0.8431165176145345	4009107.4120646804
0.8433272967439382	4050807.1530997716
0.8435381285681244	4047117.80888645
0.8437490131002665	4043427.542337076
0.8439599503535415	4039736.3532210663
0.84417094034113	4036044.2413077755
0.8443819830762154	4033905.381513778
0.8445930785719846	4063074.978208861
0.8448042268416277	4092251.867303101
0.8450154278983382	4121436.050619611
0.8452266817553128	4150627.529981948
0.8454379884257517	4179826.3072141293
0.8456493479228583	4224179.384527029
0.845860760259839	4272191.129845699
0.846072225449904	4320214.8781007
0.8462837435062666	4368250.6322927745
0.8464953144421433	4416298.3954234235
0.8467069382707537	4453812.361732765
0.8469186150053215	4483115.572484316
0.847130344659073	4512426.109038563
0.8473421272452377	4541743.973226921
0.8475539627770492	4571069.1668813545
0.8477658512677435	4598535.039262463
0.8479777927305605	4622044.187180332
0.8481897871787432	4645559.212385175
0.848401834625538	4669080.116346332
0.8486139350841944	4692606.900533465
0.8488260885679657	4713433.549057308
0.8490382950901076	4701280.013273171
0.8492505546638802	4689123.439105083
0.8494628673025462	4676963.825793457
0.8496752330193721	4664801.172578486
0.8498876518276269	4652635.478700226
0.8501001237405839	4499973.360634153
0.8503126487715191	4319228.130376151
0.850525226933712	4138437.7138106856
0.8507378582404455	3957602.099641081
0.8509505427050057	3776721.2765678284
0.8511632803406821	3630251.0089208316
0.8513760711607672	3507340.0205844124
0.8515889151785576	3384398.3045007186
0.8518018124073523	3261425.852988106
0.8520147628604541	3138422.6583626885
0.8522277665511693	3105769.0168821616
0.8524408234928071	3240254.65923475
0.8526539336986805	3374773.922997963
0.8528670971821053	3509326.8165771253
0.8530803139564007	3643913.3483795235
0.8532935840348901	3794369.400845252
0.8535069074308987	4078605.115654992
0.8537202841577566	4362911.889393672
0.8539337142287962	4647289.739825821
0.8541471976573534	4931738.684720399
0.8543607344567677	5216258.7418512525
0.8545743246403821	5323308.894870239
0.8547879682215422	5402190.265015578
0.8550016652135977	5481091.355503442
0.8552154156299011	5560012.171263932
0.8554292194838088	5638952.71722842
0.8556430767886797	5697733.848501535
0.855856987557877	5744277.4282449875
0.8560709518047664	5790832.643883347
0.8562849695427177	5837399.498325633
0.8564990407851035	5883977.994481543
0.8567131655452999	5926989.337850608
0.8569273438366862	5964147.455063107
0.8571415756726455	6001314.8618049165
0.8573558610665638	6038491.560398426
0.8575702000318304	6075677.553166542
0.8577845925818384	6113581.603540984
0.857999038729984	6155922.312919133
0.8582135384896665	6198273.607474617
0.858428091874289	6240635.489853742
0.8586426988972576	6283007.96270345
0.8588573595719821	6325391.028671386
0.8590720739118751	6362276.366082282
0.8592868419303532	6398521.47693098
0.8595016636408359	6434775.64905739
0.8597165390567462	6471038.88472682
0.8599314681915105	6507311.186205176
0.8601464510585584	6533444.503736789
0.860361487671323	6554197.839424551
0.8605765780432408	6574956.363446229
0.8607917221877518	6595720.07709893
0.8610069201182988	6616488.981680038
0.8612221718483286	6626681.816151633
0.8614374773912907	6621622.877211602
0.8616528367606385	6616562.673536838
0.8618682499698288	6611501.204811151
0.8620837170323213	6606438.470718285
0.8622992379615795	6608963.281615781
0.8625148127710699	6649042.840326713
0.8627304414742627	6689132.418927327
0.8629461240846313	6729232.019922597
0.8631618606156526	6769341.64581812
0.8633776510808066	6809461.2991201095
0.8635934954935769	6857787.882686055
0.8638093938674504	6906798.46264483
0.8640253462159173	6955821.295248594
0.8642413525524714	7004856.383560508
0.8644574128906095	7053903.730644489
0.8646735272438323	7099676.832640999
0.8648896956256433	7143933.061128434
0.8651059180495498	7188200.353672994
0.8653221945290621	7232478.713040648
0.8655385250776946	7276768.141998205
0.8657549097089641	7323659.241102806
0.8659713484363913	7373878.597632275
0.8661878412735006	7424110.509000899
0.866404388233819	7474354.978347359
0.8666209893308775	7524612.008811132
0.8668376445782103	7571226.1876734765
0.8670543539893549	7602932.412322673
0.8672711175778525	7634646.563528054
0.8674879353572469	7666368.6432712
0.8677048073410862	7698098.653534295
0.8679217335429217	7729836.596299975
0.8681387139763074	7776328.780209749
0.8683557486548015	7823565.146110773
0.8685728375919655	7870813.32110333
0.8687899808013633	7918073.308139532
0.8690071782965637	7965345.110172555
0.869224430091138	8008536.078067699
0.8694417361986609	8050072.548743736
0.8696590966327107	8091619.403537433
0.869876511406869	8133176.645044831
0.8700939805347206	8174744.275862585
0.8703115040298544	8217837.976498226
0.870529081905862	8262675.308879672
0.8707467141763385	8307523.850594197
0.8709644008548827	8352383.604444149
0.8711821419550964	8397254.573232537
0.8713999374905854	8441444.364695301
0.871617787474958	8483255.507992433
0.8718356919218269	8525077.104075426
0.8720536508448075	8566909.155557442
0.8722716642575187	8608751.665052306
0.8724897321735832	8650604.635174561
0.8727078546066265	8692148.797622317
0.8729260315702784	8733698.488952769
0.873144263078171	8775258.567706008
0.8733625491439405	8816829.036478939
0.8735808897812266	8858409.89786908
0.8737992850036719	8893807.611878688
0.874017734824923	8927020.524368383
0.8742362392586293	8960241.740086187
0.874454798318444	8993471.261107918
0.8746734120180236	9026709.089509903
0.8748920803710283	9064493.407912618
0.875110803391121	9106847.611412857
0.8753295810919689	9149212.403463997
0.875548413487242	9191587.78671315
0.8757673005906139	9233973.763808114
0.8759862424157616	9281202.48280591
0.8762052389763657	9342425.049765216
0.8764242902861098	9403662.92236622
0.8766433963586814	9464916.104435392
0.8768625572077712	9526184.599800099
0.8770817728470732	9587185.780618515
0.8773010432902849	9626135.044074936
0.8775203685511077	9665094.044847278
0.8777397486432454	9704062.785369763
0.8779591835804065	9743041.268077426
0.8781786733763015	9782029.495405715
0.8783982180446457	9812251.36968092
0.878617817599157	9839870.073679877
0.8788374720535569	9867495.682354823
0.8790571814215703	9895128.197431928
0.8792769457169257	9922767.620637802
0.879496764953355	9953436.909664895
0.8797166391445934	9986831.701978449
0.8799365683043796	10020234.842990084
0.8801565524464557	10053646.33478697
0.8803765915845676	10087066.179456837
0.8805966857324639	10123052.932753647
0.880816834903897	10165475.002524253
0.881037039112623	10207907.677812321
0.8812572983724012	10250350.961269207
0.8814776126969944	10292804.855546976
0.8816979821001687	10334392.652350068
0.8819184065956938	10355352.92281405
0.8821388861973429	10376318.43334567
0.8823594209188923	10397289.185254904
0.882580010774122	10418265.179852104
0.8828006557768155	10439246.418447964
0.8830213559407598	10481658.435958065
0.8832421112797452	10529469.795658637
0.8834629218075651	10577293.108199105
0.8836837875380171	10625128.376567721
0.8839047084849018	10672975.603753438
0.884125684662023	10722134.36574906
0.8843467160831886	10772346.859222632
0.8845678027622095	10822571.905819573
0.8847889447129001	10872809.508678172
0.8850101419490785	10923059.670937477
0.8852313944845657	10978389.378786657
0.885452702333187	11044823.923489004
0.8856740655087704	11111275.076827519
0.8858954840251476	11177742.84295435
0.8861169578961539	11244227.226022683
0.886338487135628	11303292.724086285
0.886560071757412	11263425.683887102
0.8867817117753515	11223548.67692787
0.8870034072032955	11183661.70071688
0.8872251580550963	11143764.752761884
0.8874469643446101	11103857.830569874
0.8876688260856963	11122290.94949626
0.8878907432922178	11152804.960695365
0.8881127159780409	11183326.60039725
0.8883347441570356	11213855.870509097
0.8885568278430749	11244392.772938441
0.8887789670500358	11264409.084445715
0.8890011617917983	11276961.95458646
0.8892234120822464	11289517.962944744
0.8894457179352669	11302077.11030511
0.8896680793647509	11314639.397452325
0.8898904963845921	11306947.440578567
0.8901129690086883	11260601.937679602
0.8903354972509405	11214244.848404923
0.8905580811252535	11167876.169857891
0.8907807206455347	11121495.899141284
0.8910034158256963	11063340.537029238
0.8912261666796527	10900040.694442822
0.8914489732213227	10736700.026895713
0.8916718354646282	10573318.524181558
0.8918947534234944	10409896.176091881
0.8921177271118502	10246432.972415283
0.8923407565436284	9763365.13926263
0.8925638417327644	9228046.999948865
0.8927869826931977	8692595.031100092
0.8930101794388711	8157009.199259142
0.8932334319837308	7621289.470960318
0.8934567403417267	7283532.403466977
0.8936801045268123	7068784.6089014765
0.8939035245529441	6853983.127387478
0.8941270004340824	6639127.945503019
0.894350532184191	6424219.049823143
0.8945741198172371	6479045.7666510455
0.8947977633471915	6981299.628626959
0.8950214627880284	7483679.054068346
0.8952452181537254	7986184.074365795
0.8954690294582639	8488814.72091862
0.8956928967156286	8987036.637521375
0.8959168199398075	9455956.549280435
0.8961407991447926	9924993.691017555
0.8963648343445789	10394148.092040095
0.896588925553165	10863419.781662628
0.8968130727845534	11332808.789207624
0.8970372760527496	11476787.024631739
0.8972615353717629	11580071.131346181
0.8974858507556059	11683381.059087314
0.8977102222182949	11786716.814310353
0.8979346497738496	11890078.403472256
0.8981591334362931	12136855.99805212
0.8983836732196523	12462111.99666946
0.8986082691379572	12787449.30928624
0.8988329212052417	13112867.956231175
0.8990576294355432	13438367.957838127
0.8992823938429022	13657369.929672033
0.8995072144413631	13717956.621268613
0.8997320912449734	13778558.45953807
0.8999570242677847	13839175.448267082
0.9001820135238516	13899807.591243278
0.9004070590272328	13953718.437841898
0.9006321607919896	13972327.969886845
0.9008573188321878	13990942.154314822
0.9010825331618959	14009560.992288895
0.9013078037951865	14028184.484972466
0.9015331307461353	14046812.633529197
0.9017585140288219	14284465.085409407
0.9019839536573292	14541041.680235503
0.9022094496457435	14797682.419210121
0.9024350020081551	15054387.318369774
0.9026606107586572	15311156.393754134
0.902886275911347	15478246.548146991
0.9031119974803249	15602116.047788454
0.9033377754796951	15726016.514804829
0.903563609923565	15849947.956937904
0.903789500826046	15973910.381931594
0.9040154482012526	16054463.715077998
0.904241452063303	16078764.352697067
0.9044675124263188	16103071.065475537
0.9046936293044254	16127383.854932195
0.9049198027117517	16151702.722586231
0.9051460326624297	16186783.243769575
0.9053723191705955	16267672.270509744
0.9055986622503881	16348581.519506522
0.9058250619159507	16429510.99581555
0.9060515181814298	16510460.704493709
0.9062780310609752	16591430.65059898
0.9065046005687405	16466251.534268538
0.906731226718883	16329539.547180496
0.9069579095255627	16192793.38209586
0.907184649002944	16056013.030469943
0.907411445165195	15919198.48375598
0.9076382980264862	16094138.681386588
0.907865207600993	16398607.986702956
0.9080921739028933	16703153.409345564
0.9083191969463691	17007774.968343783
0.9085462767456058	17312472.6827319
0.9087734133147922	17462618.201983362
0.9090006066681211	17434203.574112047
0.909227856819788	17405781.8425838
0.9094551637839932	17377353.005622633
0.9096825275749393	17348917.061452236
0.9099099482068329	17301487.10403378
0.9101374256938848	17186565.50215286
0.9103649600503083	17071615.16987152
0.9105925512903209	16956636.100007135
0.9108201994281437	16841628.285375167
0.9110479044780008	16726591.718789667
0.9112756664541204	17019106.929463115
0.911503485370734	17321024.715562783
0.9117313612420768	17623017.981108982
0.9119592940823873	17925086.744971476
0.912187283905908	18227231.02602503
0.9124153307268845	18222487.337361712
0.9126434345595664	18106332.652674127
0.9128715954182063	17990148.92931548
0.9130998133170609	17873936.160025936
0.9133280882703902	17757694.337544072
0.913556420292458	17760086.98502819
0.9137848093975312	17884859.68171215
0.9140132555998806	18009663.57157027
0.9142417589137806	18134498.662400857
0.9144703193535092	18259364.962004237
