#wavelength	surface flux
0.7	53638861.44591506
0.7001166666666666	54010920.69520415
0.7002333527777778	54183776.642371714
0.700350058336574	54356661.398863725
0.7004667833462966	54529574.96948159
0.7005835278101878	54702517.35902837
0.7007002917314895	54875488.572306454
0.7008170751134447	55048488.614120066
0.7009338779592968	55221517.489273906
0.7010507002722901	55251601.71074806
0.7011675420556689	55107701.711999975
0.701284403312678	54963777.729918994
0.7014012840465635	54819829.760507464
0.7015181842605713	54675857.799767725
0.701635103957948	54531861.843701296
0.701752043141941	54387841.88830888
0.701869001815798	54243797.92959036
0.7019859799827672	53854080.85970452
0.7021029776460976	53293340.89264496
0.7022199948090387	52732507.46892351
0.7023370314748403	52171580.572965026
0.7024540876467528	51610560.18919063
0.702571163328027	51049446.30201987
0.7026882585219152	50488238.89586642
0.7028053732316688	49926937.95514608
0.7029225074605406	49849151.894425556
0.7030396612117841	49958096.263094075
0.7031568344886527	50067058.7891574
0.7032740272944008	50176039.47564165
0.7033912396322832	50285038.32557371
0.7035084715055552	50394055.34198065
0.7036257229174727	50503090.52789037
0.7037429938712924	50612143.88633118
0.7038602843702709	51196758.32496438
0.7039775944176659	51862125.75590757
0.7040949240167356	52527604.08142286
0.7042122731707383	53193193.31999205
0.7043296418829335	53858893.49010137
0.7044470301565806	54524704.61023894
0.70456443799494	55190626.69889601
0.7046818654012724	55856659.77456827
0.7047993123788394	54450706.61612347
0.7049167789309024	53042141.30861847
0.7050342650607243	51633341.240226716
0.7051517707715678	50224306.37182422
0.7052692960666963	48815036.66427769
0.705386840949374	47405532.07844716
0.7055044054228656	45995792.57518337
0.7056219894904361	44803188.053441845
0.7057395931553511	44991747.58086602
0.705857216420877	45180338.53487825
0.7059748592902804	45368960.92071603
0.7060925217668288	45557614.74361832
0.70621020385379	45746300.008824386
0.7063279055544321	45935016.72157442
0.7064456268720246	46123764.887110196
0.7065633678098366	46337908.83405687
0.7066811283711383	46621942.28337702
0.7067989085592001	46906023.0716054
0.7069167083772933	47190151.20663162
0.7070345278286895	47474326.696347214
0.707152366916661	47758549.548644476
0.7072702256444803	48042819.77141679
0.7073881040154211	48327137.37255995
0.7075060020327569	48433999.164030746
0.7076239196997625	48282372.454153694
0.7077418570197124	48130720.473158486
0.7078598139958823	47979043.216833115
0.7079777906315483	47827340.68096488
0.7080957869299869	47675612.861340776
0.7082138028944751	47523859.75374682
0.7083318385282908	47372081.35396816
0.7084498938347124	47232221.480659805
0.708567968817018	47102464.514452256
0.7086860634784875	46972685.922083534
0.7088041778224007	46842885.6999493
0.7089223118520377	46713063.844444886
0.7090404655706796	46583220.35196463
0.709158638981608	46453355.21890214
0.709276832088105	46323468.441650786
0.7093950448934531	46402629.11508359
0.7095132774009353	46581510.29046882
0.7096315296138355	46760421.27938336
0.7097498015354378	46939362.08679599
0.7098680931690269	47118332.717676364
0.7099864045178884	47297333.176995434
0.7101047355853081	47476363.46972436
0.7102230863745722	47655423.600835286
0.7103414568889679	47333926.77009836
0.7104598471317828	46898631.24058374
0.7105782571063047	46463263.16181454
0.7106966868158224	46027822.52169889
0.710815136263625	45592309.30814331
0.7109336054530023	45156723.50905187
0.7110520943872445	44721065.11232739
0.7111706030696424	44285334.105869874
0.7112891315034873	44397780.105172575
0.7114076796920712	44536403.41414685
0.7115262476386865	44675049.82700595
0.7116448353466263	44813719.34760044
0.711763442819184	44952411.97978177
0.711882070059654	45091127.72740191
0.7120007170713306	45229866.59431324
0.7121193838575091	45380541.01289787
0.7122380704214853	45655484.12417359
0.7123567767665555	45930473.05930091
0.7124755028960166	46205507.82591755
0.7125942488131658	46480588.431661755
0.7127130145213015	46755714.88417434
0.7128318000237216	47030887.19109482
0.7129506053237256	47306105.360066846
0.7130694304246129	47457273.57998312
0.7131882753296837	47174584.295632854
0.7133071400422386	46891847.89640179
0.7134260245655789	46609064.37443771
0.7135449289030065	46326233.72188656
0.7136638530578235	46043355.93089346
0.7137827970333332	45760430.99360146
0.7139017608328388	45477458.9021533
0.7140207444596443	45305271.96480345
0.7141397479170543	45330770.18165428
0.7142587712083737	45356272.64820788
0.7143778143369084	45381779.3651726
0.7144968773059646	45407290.33325682
0.7146159601188489	45432805.553169034
0.7147350627788687	45458325.02561791
0.7148541852893318	45483848.75131219
0.7149733276535467	45643183.5625323
0.7150924898748222	45937472.74775505
0.715211671956468	46231810.9811754
0.7153308739017941	46526198.27096822
0.715450095714111	46820634.6253092
0.71556933739673	47115120.05237594
0.7156885989529628	47409654.56034716
0.7158078803861218	47704238.15740348
0.7159271816995193	47714754.201532364
0.7160465028964692	47558513.25027246
0.7161658439802853	47402246.25885401
0.7162852049542819	47245953.222937025
0.7164045858217744	47089634.13818062
0.716523986586078	46933289.00024349
0.7166434072505089	46776917.80478345
0.716762847818384	46620520.54745744
0.7168823082930204	46707698.28211293
0.7170017886777359	46866556.94104281
0.7171212889758488	47025442.07641575
0.7172408091906781	47184353.69264462
0.7173603493255433	47343291.79414292
0.7174799093837642	47502256.38532471
0.7175994893686615	47661247.4706051
0.7177190892835562	47820265.054399624
0.7178387091317702	48127789.71554839
0.7179583489166254	48450270.53735406
0.7180780086414448	48772805.10596361
0.7181976883095517	49095393.43033459
0.7183173879242699	49418035.51942632
0.718437107488924	49740731.38219965
0.7185568470068389	50063481.027616896
0.7186766064813399	50375799.35510999
0.7187963859157535	50426018.89014334
0.7189161853134061	50476246.7950992
0.719036004677625	50526483.07137255
0.7191558440117378	50576727.72035859
0.7192757033190732	50626980.743452854
0.7193955826029597	50677242.142050914
0.7195154818667269	50727511.91754878
0.7196354011137046	50716365.56931576
0.7197553403472235	50422407.97634884
0.7198752995706147	50128401.39044988
0.7199952787872098	49834345.803453065
0.720115278000341	49540241.20719177
0.7202352972133411	49246087.59349772
0.7203553364295432	48951884.95420184
0.7204753956522815	48657633.28113232
0.7205954748848902	48404962.054916814
0.7207155741307044	48244026.18079513
0.7208356933930594	48083063.48402805
0.7209558326752915	47922073.960144795
0.7210759919807375	47761057.60467402
0.7211961713127342	47600014.4131442
0.7213163706746197	47438944.38108221
0.7214365900697322	47277847.504015036
0.7215568295014103	47402906.89991025
0.721677088972994	47869451.81536914
0.7217973684878227	48336074.48831316
0.7219176680492374	48802774.931703225
0.7220379876605789	49269553.15850024
0.722158327325189	49736409.181668565
0.7222786870464099	50203343.014173836
0.7223990668275843	50670354.66898472
0.7225194666720555	50801961.81819514
0.7226398865831676	50695826.16818763
0.7227603265642646	50589672.82890538
0.722880786618692	50483501.797399685
0.7230012667497951	50377313.07072215
0.7231217669609201	50271106.64592348
0.7232422872554135	50164882.5200541
0.7233628276366229	50058640.69016357
0.7234833881078956	49805423.751903474
0.7236039686725803	49496370.55685855
0.7237245693340255	49187265.85294828
0.7238451900955812	48878109.631586775
0.7239658309605971	48568901.88418874
0.7240864919324239	48259642.602165736
0.7242071730144127	47950331.77692904
0.724327874209915	47640969.39988879
0.7244485955222832	47855617.02359832
0.7245693369548704	48156949.57351675
0.7246900985110294	48458332.34552638
0.7248108801941148	48759765.34799883
0.7249316820074803	49061248.58930401
0.7250525039544815	49362782.07781656
0.7251733460384739	49664365.82191058
0.7252942082628137	49965303.21767212
0.7254150906308574	49862651.54529168
0.7255359931459625	49759982.76429916
0.7256569158114868	49657296.871843114
0.7257778586307888	49554593.86507161
0.7258988216072273	49451873.74113234
0.7260198047441617	49349136.49717253
0.7261408080449525	49246382.13033854
0.72626183151296	49105212.507538944
0.7263828751515454	48708841.74989254
0.7265039389640706	48312404.93045326
0.726625022953898	47915902.03821051
0.7267461271243904	47519333.06215219
0.7268672514789111	47122697.99126478
0.7269883960208241	46725996.81453258
0.7271095607534942	46329229.52093732
0.7272307456802866	45926358.76361917
0.7273519508045666	45507112.55982055
0.7274731761297006	45087796.48165482
0.7275944216590555	44668410.51747609
0.7277156873959987	44248954.655636504
0.7278369733438982	43829428.88448593
0.727958279506122	43409833.19237463
0.7280796058860397	42990167.56764746
0.7282009524870207	42704205.66567912
0.7283223193124353	42616062.25394799
0.7284437063656539	42527904.151648425
0.7285651136500483	42439731.35633166
0.7286865411689898	42351543.86554919
0.7288079889258514	42263341.676851384
0.7289294569240056	42175124.78778899
0.7290509451668262	42086893.19591165
0.7291724536576875	42151453.90407986
0.7292939823999636	42342642.42559281
0.7294155313970303	42533862.81185972
0.7295371006522632	42725115.06819096
0.7296586901690385	42916399.19989811
0.7297802999507332	43107715.21229379
0.7299019300007252	43299063.11069203
0.7300235803223919	43490442.90040616
0.7301452509191123	43582725.93981451
0.7302669417942654	43629269.60475339
0.7303886529512311	43675821.02696977
0.7305103843933897	43722380.207756534
0.7306321361241218	43768947.14840672
0.7307539081468093	43815521.85021377
0.7308757004648336	43862104.31447102
0.7309975130815778	43908694.54247237
0.7311193460004248	44013016.80013074
0.7312411992247582	44130424.4814318
0.7313630727579622	44247851.73067971
0.7314849666034219	44365298.55113596
0.7316068807645224	44482764.9460622
0.7317288152446498	44600250.91872099
0.7318507700471907	44717756.47237528
0.7319727451755319	44835281.61028847
0.732094740633061	44987902.5810238
0.7322167564231665	45142128.13225979
0.7323387925492371	45296379.38775433
0.7324608490146619	45450656.35179141
0.732582925822831	45604959.02865587
0.7327050229771347	45759287.42263296
0.7328271404809642	45913641.538009204
0.7329492783377112	46035123.09795519
0.7330714365507675	45833199.98503878
0.7331936151235259	45631243.21827027
0.7333158140593796	45429252.79204086
0.7334380333617229	45227228.70074011
0.7335602730339499	45025170.938757375
0.7336825330794556	44823079.500480935
0.7338048135016354	44620954.38029851
0.7339271143038857	44322948.00030408
0.734049435489603	43703736.862316616
0.7341717770621846	43084422.52247271
0.7342941390250283	42465004.96357248
0.7344165213815324	41845484.16841267
0.734538924135096	41225860.11978609
0.7346613472891185	40606132.80048556
0.734783790847	39986302.19329825
0.7349062548121412	39355402.88634165
0.7350287391879431	38705016.64659226
0.7351512439778078	38054522.00913492
0.7352737691851374	37403918.955905445
0.735396314813335	36753207.46883319
0.7355188808658037	36102387.52984752
0.7356414673459482	35451459.12087067
0.7357640742571725	34800422.22382611
0.7358867016028818	34422625.52706934
0.7360093493864824	34314722.36248357
0.7361320176113801	34206801.21403717
0.736254706280982	34098862.07873271
0.7363774153986956	33990904.95357222
0.7365001449679286	33882929.83555776
0.7366228949920899	33774936.72169021
0.7367456654745885	33666925.608970344
0.7368684564188344	33506562.489219584
0.7369912678282374	33316594.565466035
0.7371140997062088	33126594.980391778
0.7372369520561599	32936563.72871983
0.7373598248815024	32746500.805173032
0.7374827181856494	32556406.204471987
0.7376056319720137	32366279.92133748
0.7377285662440091	32176121.95048909
0.7378515210050496	32064609.70146493
0.7379744962585505	31976750.50770118
0.738097492007927	31888876.670738496
0.7382205082565949	31800988.18813637
0.738343545007971	31713085.057453826
0.7384666022654723	31625167.276249416
0.7385896800325165	31537234.842081603
0.7387127783125219	31449287.75250799
0.7388358971089073	31332182.656032
0.7389590364250921	31212134.891794074
0.7390821962644963	31092067.119595353
0.7392053766305403	30971979.33610144
0.7393285775266454	30851871.537976857
0.7394517989562333	30731743.721885804
0.7395750409227259	30611595.884492263
0.7396983034295463	30499869.183449704
0.739821586480118	30575903.76952063
0.7399448900778645	30651951.028022416
0.7400682142262109	30728010.96106752
0.740191558928582	30804083.570768047
0.7403149241884034	30880168.8592368
0.7404383100091014	30956266.82858698
0.7405617163941028	31032377.48093201
0.7406851433468352	31024381.855572216
0.7408085908707264	30631560.872580193
0.7409320589692048	30238674.419424526
0.7410555476456997	29845722.485193014
0.7411790569036406	29452705.058972754
0.7413025867464579	29059622.12984801
0.7414261371775823	28666473.686901636
0.7415497082004452	28273259.719215076
0.7416732998184786	27937925.82153779
0.741796912035115	27726840.76767209
0.7419205448537874	27515720.532964136
0.7420441982779297	27304565.111550402
0.742167872310976	27093374.497566234
0.7422915669563612	26882148.68514641
0.7424152822175206	26670887.668424573
0.7425390180978901	26459591.441533413
0.7426627746009065	26235900.418507215
0.7427865517300065	25997104.900457736
0.7429103494886282	25758269.583154995
0.7430341678802096	25519394.459966224
0.7431580069081896	25280479.524256937
0.7432818665760077	25041524.769391358
0.7434057468871037	24802530.188733503
0.7435296478449182	24563495.775645673
0.7436535694528923	24352321.219442014
0.7437775117144678	24160209.66512889
0.7439014746330868	23968066.09222367
0.7440254582121922	23775890.495389465
0.7441494624552276	23583682.869289044
0.7442734873656368	23391443.208584316
0.7443975329468645	23199171.507935982
0.7445215992023557	23006867.76200423
0.7446456861355559	22787013.644329395
0.7447697937499119	22556985.865466304
0.7448939220488703	22326919.74864012
0.7450180710358784	22096815.287461333
0.7451422407143843	21866672.47553899
0.7452664310878367	21636491.30648111
0.7453906421596846	21406271.773895305
0.7455148739333779	21176013.87138732
0.7456391264123667	20976201.293605447
0.7457633996001021	20781229.58896006
0.7458876935000356	20586225.389030214
0.7460120081156189	20391188.688400757
0.7461363434503048	20196119.48165443
0.7462606995075466	20001017.763373476
0.7463850762907978	19805883.528139766
0.7465094738035127	19610554.594857752
0.7466338920491467	19372768.8521359
0.746758331031155	19134943.478456695
0.7468827907529935	18897078.467215493
0.7470072712181189	18659173.811805744
0.7471317724299886	18421229.505620047
0.7472562943920602	18183245.542050153
0.7473808371077922	17945221.914486118
0.7475054005806435	17708980.471143574
0.7476299848140736	17483921.56546926
0.7477545898115426	17258825.14997729
0.7478792155765113	17033691.21841601
0.7480038621124406	16808519.764532983
0.7481285294227926	16583310.782074362
0.7482532175110298	16358064.264785092
0.7483779263806148	16132780.206409924
0.7485026560350116	15916171.85587215
0.7486274064776842	15723109.502773052
0.748752177712097	15530014.972615454
0.7488769697417158	15336888.260035751
0.749001782570006	15143729.359670853
0.7491266162004343	14950538.26615595
0.7492514706364677	14757314.974125374
0.7493763458815739	14564059.478212599
0.7495012419392209	14371784.552967248
0.7496261588128773	14180933.573724037
0.7497510965060128	13990050.785984155
0.7498760550220971	13799136.184446385
0.7500010343646007	13608189.763808329
0.7501260345369949	13417211.518766738
0.750251055542751	13226201.444017857
0.7503760973853414	13035159.534256402
0.7505011600682389	12840232.111284649
0.750626243594917	12642054.471662102
0.7507513479688495	12443843.802433256
0.7508764731935109	12245600.0980928
0.7510016192723765	12047323.353134906
0.7511267862089218	11849013.562053036
0.7512519740066232	11650670.719339248
0.7513771826689577	11452294.819484895
0.7515024121994025	11264966.318054708
0.7516276626014359	11082772.92884792
0.751752933878536	10900549.174076585
0.7518782260341824	10718295.048679393
0.7520035390718548	10536010.547594553
0.7521288729950334	10353695.665759627
0.7522542278071992	10171350.398111047
0.7523796035118337	9988974.739584439
0.7525050001124189	9815907.536960585
0.7526304176124378	9644842.4812212
0.7527558560153731	9473748.914639413
0.752881315324709	9302626.83246303
0.7530067955439299	9131476.229939556
0.7531322966765205	8960297.102315888
0.7532578187259665	8789089.444837565
0.7533833616957542	8617853.252749668
0.75350892558937	8450871.848973414
0.7536345104103016	8284064.029272224
0.7537601161620366	8117228.408267838
0.7538857428480638	7950364.981326455
0.7540113904718717	7783473.743814131
0.7541370590369503	7616554.691095592
0.7542627485467898	7449607.81853483
0.7543884590048808	7284411.382761086
0.7545141904147151	7136920.437088352
0.7546399427797842	6989404.909591576
0.7547657161035808	6841864.796173527
0.754891510389598	6694300.092736583
0.7550173256413296	6546710.795182341
0.7551431618622698	6399096.899411875
0.7552690190559135	6251458.401325479
0.7553948972257561	6106546.298240296
0.7555207963752938	5970844.119194304
0.755646716508023	5835119.323118549
0.755772657627441	5699371.906243402
0.7558986197370455	5563601.864798754
0.756024602840335	5427809.195013901
0.7561506069408084	5291993.8931174185
0.7562766320419653	5156155.955337164
0.7564026781473054	5024451.863761642
0.75652874526033	4900040.1277019065
0.7566548333845401	4775607.656352762
0.7567809425234375	4651154.446258438
0.7569070726805247	4526680.493962502
0.7570332238593047	4402185.796007867
0.7571593960632813	4277670.348936788
0.7572855892959586	4153134.1492911894
0.7574118035608413	4037906.940173678
0.7575380388614347	3931788.1220623157
0.7576642952012449	3825651.6174812275
0.7577905725837782	3719497.4234828628
0.7579168710125422	3613325.537118642
0.7580431904910444	3507135.955439988
0.7581695310227928	3400928.6754978546
0.7582958926112967	3294703.694342264
0.7584222752600652	3196883.5775523945
0.7585486789726085	3103885.60158936
0.7586751037524372	3010872.1259636288
0.7588015496030628	2917843.148091779
0.7589280165279966	2824798.6653904677
0.7590545045307512	2731738.675275373
0.7591810136148396	2638663.175161928
0.7593075437837755	2545572.162464993
0.7594340950410726	2462306.157640455
0.7595606673902461	2381881.370768156
0.7596872608348112	2301443.179764631
0.7598138753782836	2220991.5823960276
0.75994051102418	2140526.5764277875
0.7600671677760173	2060048.159625282
0.7601938456373134	1979556.329753248
0.7603205446115863	1899051.0845762808
0.7604472647023548	1828809.827475443
0.7605740059131385	1759578.4363890332
0.7607007682474575	1690335.5067373747
0.7608275517088319	1621081.0365975949
0.7609543563007835	1551815.0240459712
0.7610811820268336	1482537.4671589641
0.7612080288905045	1413248.3640126088
0.7613348968953197	1344361.4640983595
0.7614617860448022	1283952.348511585
0.7615886963424764	1223533.1647387971
0.7617156277918667	1163103.9111021054
0.7618425803964988	1102664.5859230913
0.7619695541598982	1042215.1875232302
0.7620965490855914	981755.7142236803
0.7622235651771058	921286.1643451771
0.7623506024379685	863462.9920798059
0.7624776608717082	817273.7186788252
0.7626047404818536	771076.7470656087
0.7627318412719337	724872.0759572028
0.762858963245479	678659.7040702498
0.7629861064060198	632439.6301213114
0.7631132707570876	586211.852826667
0.7632404563022137	539976.3709025148
0.7633676630449308	497497.3708723828
0.7634948909887717	463023.997067913
0.7636221401372697	428544.8777011873
0.7637494104939593	394060.0118145346
0.7638767020623748	359569.3984502839
0.7640040148460518	325073.0366504333
0.7641313488485262	290570.9254569506
0.7642587040733344	256063.0639115632
0.7643860805240132	227228.06794015717
0.7645134782041005	205164.5583618429
0.7646408971171346	183097.3715319231
0.764768337266654	161026.5068375397
0.7648957986561985	138951.9636657001
0.7650232812893079	116873.74140333482
0.7651507851695227	94791.83943725892
0.7652783103003843	72706.25715419138
0.7654058566854343	59184.123265623755
