#wavelength	surface flux
0.8	1631088.8171752205
0.8002000000000001	1652029.7328412917
0.8004000500000003	1673893.2712773199
0.8006001500125003	1695771.542115372
0.8008003000500035	1717655.2825211347
0.8010005001250161	1739544.4938620094
0.8012007502500472	1761439.1775056876
0.8014010504376099	1782118.4678527345
0.8016014007002193	1802393.9748870723
0.8018018010503944	1822674.5507981684
0.8020022515006572	1842960.1968532517
0.8022027520635323	1863250.914319831
0.8024033027515483	1884650.1264647224
0.8026039035772362	1907135.9989680143
0.8028045545531306	1929627.492939433
0.8030052556917691	1952124.6097843554
0.803206007005692	1974627.350908469
0.8034068085074435	1997099.051073665
0.8036076602095705	2019473.5871817672
0.8038085621246229	2041853.7169238788
0.8040095142651542	2064239.4416984397
0.8042105166437206	2086630.7629041867
0.8044115692728815	2109021.6366257085
0.8046126721651998	2131158.088437126
0.8048138253332411	2153300.0743614784
0.8050150287895745	2175447.5957823326
0.805216282546772	2197600.6540835365
0.8054175866174087	2219759.250649303
0.8056189410140631	2241457.1921771173
0.8058203457493168	2263028.5948572066
0.8060218008357541	2284605.3903879384
0.8062233062859632	2306187.5801175637
0.8064248621125346	2327775.1653946065
0.806626468328063	2350732.624949766
0.8068281249451449	2374867.7448741654
0.8070298319763813	2399008.898578576
0.8072315894343755	2423156.0875713937
0.8074333973317341	2447309.313361469
0.8076352556810671	2469622.3372459067
0.8078371644949874	2487496.730907836
0.8080391237861113	2505375.593168185
0.8082411335670578	2523258.9251440885
0.8084431938504498	2541146.7279530047
0.8086453046489125	2558855.1104987576
0.8088474659750746	2573144.1765769306
0.8090496778415686	2587436.814921642
0.809251940261029	2601733.02642593
0.8094542532460944	2616032.8119831057
0.8096566168094059	2630336.1724866545
0.8098590309636085	2648790.858618342
0.8100614957213493	2668220.973126975
0.8102640110952797	2687655.9451642376
0.8104665770980536	2707095.7759445175
0.8106691937423283	2726540.4666824997
0.8108718610407639	2746314.4901319877
0.8110745790060241	2766341.563442748
0.8112773476507757	2786373.6435218533
0.8114801669876885	2806410.731620973
0.8116830370294355	2826452.828992106
0.8118859577886929	2844834.323717213
0.8120889292781401	2859760.8624274503
0.8122919515104597	2874691.1327723647
0.8124950244983374	2889625.135684866
0.8126981482544621	2904562.872098093
0.8129013227915257	2920357.3698778437
0.8131045481222237	2945923.1050730087
0.8133078242592543	2971495.231701975
0.8135111512153191	2997073.751362592
0.813714529003123	3022658.6656531272
0.8139179576353739	3048249.976172239
0.8141214371247829	3087005.8345398745
0.8143249674840641	3128322.9684788412
0.814528548725935	3169650.431701268
0.8147321808631167	3210988.2267895564
0.8149358639083326	3252336.356326604
0.8151395978743097	3286759.137361698
0.8153433827737784	3316504.48394883
0.8155472186194719	3346257.2668725983
0.8157511054241268	3376017.4879920916
0.815955043200483	3405785.1491668853
0.8161590319612831	3439371.2725457
0.8163630717192736	3479949.0225902465
0.8165671624872033	3520536.91707226
0.8167713042778252	3561134.958527933
0.8169754971038948	3601743.1494939905
0.8171797409781707	3635255.4953951347
0.8173840359134155	3612046.8436393915
0.8175883819223938	3588832.3897207365
0.8177927790178745	3565612.1321885884
0.8179972272126291	3542386.069592051
0.8182017265194322	3519154.2004798884
0.8184062769510622	3537995.171512505
0.8186108785203001	3563316.13393709
0.8188155312399301	3588643.426602247
0.8190202351227402	3613977.0510905986
0.819224990181521	3639317.008985056
0.8194297964290664	3700532.5249130796
0.8196346538781738	3783383.455284833
0.8198395625416434	3866255.098389146
0.8200445224322789	3949147.45940427
0.820249533562887	4032060.5435096235
0.8204545959462778	4099194.971205759
0.8206597095952644	4140917.499393286
0.8208648745226633	4182650.458212892
0.8210700907412941	4224393.850272196
0.8212753582639793	4266147.678179474
0.8214806771035456	4304094.065065762
0.8216860472728215	4318527.149468677
0.8218914687846397	4332963.842142695
0.822096941651836	4347404.143989887
0.822302465887249	4361848.055912534
0.8225080415037209	4376295.578813168
0.8227136685140968	4391529.994039271
0.8229193469312254	4406857.136570152
0.8231250767679583	4422188.110886671
0.8233308580371503	4437522.917946761
0.8235366907516598	4452861.558708627
0.8237425749243477	4501455.070035694
0.8239485105680789	4567684.363303999
0.824154497695721	4633930.213895579
0.824360536320145	4700192.625949819
0.8245666264542252	4766471.60360707
0.8247727681108388	4821527.618862201
0.8249789613028664	4860500.272663954
0.8251852060431922	4899482.669629191
0.825391502344703	4938474.812193652
0.8255978502202894	4977476.702793789
0.8258042496828445	5016554.531077859
0.8260107007452654	5055963.571671975
0.8262172034204517	5095382.4645262
0.8264237577213068	5134811.212103649
0.8266303636607373	5174249.816868009
0.8268370212516525	5213698.281283542
0.8270437305069654	5236221.665725312
0.8272504914395923	5257427.325351548
0.8274573040624523	5278638.286392697
0.8276641683884679	5299854.550174087
0.8278710844305652	5321076.118021448
0.8280780522016729	5355370.266541195
0.8282850717147234	5395646.015930335
0.8284921429826521	5435931.83425678
0.8286992660183978	5476227.724037839
0.8289064408349024	5516533.687791315
0.8291136674451112	5552717.504319191
0.8293209458619727	5583699.8397577
0.8295282760984382	5614689.920780028
0.829735658167463	5645687.749322648
0.8299430920820048	5676693.327322363
0.8301505778550254	5708429.908973271
0.8303581154994891	5743061.136321495
0.8305657050283641	5777701.021476591
0.8307733464546212	5812349.566602949
0.8309810397912352	5847006.773865645
0.8311887850511829	5881672.645430088
0.8313965822474458	5943071.389800432
0.8316044313930077	6005725.895637312
0.8318123325008561	6068396.06510071
0.8320202855839813	6131081.9021064425
0.8322282906553774	6193783.410571433
0.8324363477280413	6236694.209185482
0.8326444568149735	6271641.754680618
0.8328526179291771	6306598.037062087
0.8330608310836596	6341563.058514204
0.8332690962914304	6376536.821221638
0.8334774135655034	6400974.73843023
0.833685782918895	6413640.112996071
0.8338942043646247	6426308.653905545
0.834102677915716	6438980.361950256
0.834311203585195	6451655.237921967
0.8345197813860912	6471415.580502638
0.8347284113314379	6515020.540175084
0.8349370934342709	6558636.401087423
0.8351458277076294	6602263.165964937
0.8353546141645565	6645900.837533744
0.8355634528180977	6689549.4185204245
0.8357723436813022	6712577.4425381385
0.8359812867672226	6735356.477487569
0.8361902820889144	6758141.207195724
0.8363993296594368	6780931.633086314
0.8366084294918518	6803727.756583384
0.8368175815992247	6859388.26971433
0.8370267859946247	6926379.568513913
0.8372360426911234	6993387.615138174
0.8374453517017962	7060412.413774084
0.8376547130397217	7127453.968609646
0.8378641267179816	7181975.455156873
0.8380735927496613	7224070.7790688025
0.8382831111478488	7266176.626811684
0.8384926819256358	7308293.00101648
0.8387023050961173	7350419.9043148635
0.8389119806723914	7390409.360297749
0.8391217086675596	7424363.698748249
0.8393314890947265	7458326.525783335
0.8395413219670003	7492297.843525183
0.8397512072974922	7526277.654096491
0.8399611450993165	7560138.093344272
0.8401711353855914	7587657.204126121
0.8403811781694378	7615183.1946856575
0.8405912734639802	7642716.066742841
0.8408014212823464	7670255.822018052
0.8410116216376671	7697802.462232078
0.8412218745430766	7730936.925377962
0.8414321800117124	7765703.509233804
0.8416425380567154	7800478.784735627
0.8418529486912297	7835262.754056334
0.8420634119284025	7870055.419369341
0.8422739277813847	7950028.143821608
0.8424844962633302	8069818.583289536
0.842695117387396	8189638.970367177
0.8429057911667428	8309489.312541593
0.8431165176145345	8429369.61730161
0.8433272967439382	8509421.258957459
0.8435381285681244	8492266.654391838
0.8437490131002665	8475107.761175081
0.8439599503535415	8457944.57823503
0.84417094034113	8440777.104499232
0.8443819830762154	8427229.263414098
0.8445930785719846	8486682.304605382
0.8448042268416277	8546150.20905693
0.8450154278983382	8605632.980484584
0.8452266817553128	8665130.622605091
0.8454379884257517	8724643.139136134
0.8456493479228583	8815364.55331258
0.845860760259839	8913620.542645706
0.846072225449904	9011901.095976165
0.8462837435062666	9110206.219444975
0.8464953144421433	9208535.919194711
0.8467069382707537	9282999.082973925
0.8469186150053215	9338858.469493855
0.847130344659073	9394731.820860429
0.8473421272452377	9450619.14056479
0.8475539627770492	9506520.432099134
0.8477658512677435	9558015.576958893
0.8479777927305605	9600138.048594225
0.8481897871787432	9642271.050847458
0.848401834625538	9684414.586351277
0.8486139350841944	9726568.657738946
0.8488260885679657	9762450.303101823
0.8490382950901076	9721753.81156333
0.8492505546638802	9681047.145901931
0.8494628673025462	9640330.303574132
0.8496752330193721	9599603.282035692
0.8498876518276269	9558866.078741921
0.8501001237405839	9208135.245163318
0.8503126487715191	8795438.58886858
0.850525226933712	8382638.758410001
0.8507378582404455	7969735.72799381
0.8509505427050057	7556729.471819775
0.8511632803406821	7231078.267459878
0.8513760711607672	6965238.57303059
0.8515889151785576	6699332.4186772825
0.8518018124073523	6433359.787785608
0.8520147628604541	6167320.663736369
0.8522277665511693	6092824.076369813
0.8524408234928071	6372666.635164092
0.8526539336986805	6652579.154598147
0.8528670971821053	6932561.652162077
0.8530803139564007	7212614.145350069
0.8532935840348901	7528552.904431042
0.8535069074308987	8147057.204976098
0.8537202841577566	8765716.13159681
0.8539337142287962	9384529.722949244
0.8541471976573534	10003498.017699132
0.8543607344567677	10622621.05452282
0.8545743246403821	10853779.592980845
0.8547879682215422	11023358.143566653
0.8550016652135977	11192979.088790087
0.8552154156299011	11362642.439249834
0.8554292194838088	11532348.20554732
0.8556430767886797	11654819.677634822
0.855856987557877	11748616.591463042
0.8560709518047664	11842436.95451966
0.8562849695427177	11936280.772667076
0.8564990407851035	12030148.051769057
0.8567131655452999	12114828.9402205
0.8569273438366862	12184440.340069732
0.8571415756726455	12254069.142768938
0.8573558610665638	12323715.352668844
0.8575702000318304	12393378.974121151
0.8577845925818384	12464821.563591324
0.857999038729984	12547285.31716468
0.8582135384896665	12629769.686676411
0.858428091874289	12712274.677280525
0.8586426988972576	12794800.294132268
0.8588573595719821	12877346.542388253
0.8590720739118751	12937572.918161096
0.8592868419303532	12995180.33775826
0.8595016636408359	13052802.159210322
0.8597165390567462	13110438.38611773
0.8599314681915105	13168089.022081878
0.8601464510585584	13147241.845917508
0.860361487671323	13084715.717109013
0.8605765780432408	13022173.956768334
0.8607917221877518	12959616.560987517
0.8610069201182988	12897043.525857773
0.8612221718483286	12725726.257327067
0.8614374773912907	12397619.182537694
0.8616528367606385	12069430.080979712
0.8618682499698288	11741158.932146134
0.8620837170323213	11412805.715525402
0.8622992379615795	11146964.683741434
0.8625148127710699	11190812.268444965
0.8627304414742627	11234670.815044673
0.8629461240846313	11278540.32628104
0.8631618606156526	11322420.80489522
0.8633776510808066	11366312.253629044
0.8635934954935769	11548801.202329991
0.8638093938674504	11742695.961547447
0.8640253462159173	11936639.194454702
0.8642413525524714	12130630.91317018
0.8644574128906095	12324671.129815293
0.8646735272438323	12456428.428767947
0.8648896956256433	12559232.826021241
0.8651059180495498	12662062.924373854
0.8653221945290621	12764918.730250956
0.8655385250776946	12867800.250079673
0.8657549097089641	12995212.50651557
0.8659713484363913	13154028.423610745
0.8661878412735006	13312884.044685265
0.866404388233819	13471779.379665034
0.8666209893308775	13630714.438478474
0.8668376445782103	13763099.048880039
0.8670543539893549	13786988.723718917
0.8672711175778525	13810884.37097652
0.8674879353572469	13834785.992145915
0.8677048073410862	13858693.588720609
0.8679217335429217	13882607.16219446
0.8681387139763074	13978764.053361814
0.8683557486548015	14078533.55072756
0.8685728375919655	14178327.99046777
0.8687899808013633	14278147.378817696
0.8690071782965637	14377991.722014839
0.869224430091138	14418532.099027399
0.8694417361986609	14434941.745628191
0.8696590966327107	14451355.49464063
0.869876511406869	14467773.347090323
0.8700939805347206	14484195.304003118
0.8703115040298544	14518157.60429778
0.870529081905862	14572177.38812351
0.8707467141763385	14626210.676895179
0.8709644008548827	14680257.473989038
0.8711821419550964	14734317.782782137
0.8713999374905854	14785989.316114964
0.871617787474958	14829382.629184622
0.8718356919218269	14872786.790582586
0.8720536508448075	14916201.803020904
0.8722716642575187	14959627.669212306
0.8724897321735832	15003064.391870275
0.8727078546066265	15099710.680556875
0.8729260315702784	15197190.457659382
0.873144263078171	15294694.604706062
0.8733625491439405	15392223.127789512
0.8735808897812266	15489776.033003772
0.8737992850036719	15515907.06361881
0.874017734824923	15516739.535473302
0.8742362392586293	15517572.215445757
0.874454798318444	15518405.103588203
0.8746734120180236	15519238.199952686
0.8748920803710283	15538013.660835125
0.875110803391121	15574823.972958487
0.8753295810919689	15611643.4876599
0.875548413487242	15648472.20723999
0.8757673005906139	15685310.133999974
0.8759862424157616	15775637.699491706
0.8762052389763657	16020735.9927965
0.8764242902861098	16265895.560674448
0.8766433963586814	16511116.418444432
0.8768625572077712	16756398.581428934
0.8770817728470732	16999080.40695957
0.8773010432902849	17034007.362718858
0.8775203685511077	17068943.050217137
0.8777397486432454	17103887.47163725
0.8779591835804065	17138840.629162755
0.8781786733763015	17173802.5249776
0.8783982180446457	17098297.129016664
0.878617817599157	16989908.30206768
0.8788374720535569	16881492.377912007
0.8790571814215703	16773049.349775326
0.8792769457169257	16664579.210881606
0.879496764953355	16644002.648143971
0.8797166391445934	16702467.419628657
0.8799365683043796	16760946.807306219
0.8801565524464557	16819440.814830698
0.8803765915845676	16877949.445857115
0.8805966857324639	16948902.068463016
0.880816834903897	17051091.266481165
0.881037039112623	17153306.011798855
0.8812572983724012	17255546.31080287
0.8814776126969944	17357812.169881675
0.8816979821001687	17458402.766679913
0.8819184065956938	17518980.716181446
0.8821388861973429	17579573.810170412
0.8823594209188923	17640182.05243282
0.882580010774122	17700805.446755767
0.8828006557768155	17761443.996927325
0.8830213559407598	17894815.99012407
0.8832421112797452	18046510.712733854
0.8834629218075651	18198243.359024197
0.8836837875380171	18350013.938476156
0.8839047084849018	18501822.460573006
0.884125684662023	18528910.364475764
0.8843467160831886	18456026.9797424
0.8845678027622095	18383125.374162856
0.8847889447129001	18310205.5431819
0.8850101419490785	18237267.482243214
0.8852313944845657	18338079.62686255
0.885452702333187	18819274.777023293
0.8856740655087704	19300590.22597151
0.8858954840251476	19782026.00378183
0.8861169578961539	20263582.140536383
0.886338487135628	20691239.49594474
0.886560071757412	20400148.689031437
0.8867817117753515	20108985.109416414
0.8870034072032955	19817748.738906357
0.8872251580550963	19526439.559304014
0.8874469643446101	19235057.55240659
0.8876688260856963	19201528.89280958
0.8878907432922178	19221372.982165225
0.8881127159780409	19241222.032543194
0.8883347441570356	19261076.04518378
0.8885568278430749	19280935.02132751
0.8887789670500358	19197515.081537765
0.8890011617917983	19040807.42389643
0.8892234120822464	18884060.589340616
0.8894457179352669	18727274.56807629
0.8896680793647509	18570449.350306526
0.8898904963845921	18442135.324713822
0.8901129690086883	18368264.132446297
0.8903354972509405	18294374.472380724
0.8905580811252535	18220466.339900076
0.8907807206455347	18146539.730386406
0.8910034158256963	18059628.157942012
0.8912261666796527	17856813.88293472
0.8914489732213227	17653948.904358614
0.8916718354646282	17451033.20953767
0.8918947534234944	17248066.785793215
0.8921177271118502	17045049.62044295
0.8923407565436284	16360074.003040595
0.8925638417327644	15596314.892542468
0.8927869826931977	14832364.842266463
0.8930101794388711	14068223.804477938
0.8932334319837308	13303891.73143009
0.8934567403417267	12822596.72660927
0.8936801045268123	12517174.353822215
0.8939035245529441	12211675.62544217
0.8941270004340824	11906100.522379912
0.894350532184191	11600449.025541967
0.8945741198172371	11774548.089367205
0.8947977633471915	12744426.478023563
0.8950214627880284	13714547.336277045
0.8952452181537254	14684910.724744514
0.8954690294582639	15655516.704059683
0.8956928967156286	16609028.439496929
0.8959168199398075	17450268.27779209
0.8961407991447926	18291718.426047035
0.8963648343445789	19133378.93683902
0.896588925553165	19975249.86275823
0.8968130727845534	20817331.25640903
0.8970372760527496	20941482.524749152
0.8972615353717629	20975810.97410845
0.8974858507556059	21010148.00558009
0.8977102222182949	21044493.621309593
0.8979346497738496	21078847.823443044
0.8981591334362931	21352201.34432877
0.8983836732196523	21756321.614422783
0.8986082691379572	22160542.91458405
0.8988329212052417	22564865.270070367
0.8990576294355432	22969288.706145898
0.8992823938429022	23219493.33986669
0.8995072144413631	23240306.432288557
0.8997320912449734	23261124.727983527
0.8999570242677847	23281948.22825241
0.9001820135238516	23302776.934396368
0.9004070590272328	23362697.359350592
0.9006321607919896	23627537.59327397
0.9008573188321878	23892444.0372561
0.9010825331618959	24157416.707849097
0.9013078037951865	24422455.62160979
0.9015331307461353	24687560.795098778
0.9017585140288219	25356038.792092633
0.9019839536573292	26059421.74686644
0.9022094496457435	26762980.54737843
0.9024350020081551	27466715.237591345
0.9026606107586572	28170625.86147659
0.902886275911347	28461578.209756475
0.9031119974803249	28553443.829247344
0.9033377754796951	28645332.415143088
0.903563609923565	28737243.973185267
0.903789500826046	28829178.509117015
0.9040154482012526	28773516.397369206
0.904241452063303	28526612.027090814
0.9044675124263188	28279645.93071991
0.9046936293044254	28032618.09282495
0.9049198027117517	27785528.4979704
0.9051460326624297	27606829.827989124
0.9053723191705955	27719573.992883507
0.9055986622503881	27832346.34381901
0.9058250619159507	27945146.887842253
0.9060515181814298	28057975.63200157
0.9062780310609752	28170832.58334685
0.9065046005687405	28316636.38248507
0.906731226718883	28464313.065814707
0.9069579095255627	28612026.668314982
0.907184649002944	28759777.199215893
0.907411445165195	28907564.66774968
0.9076382980264862	29381329.901738334
0.907865207600993	29990576.195324704
0.9080921739028933	30599974.800484292
0.9083191969463691	31209525.755295068
0.9085462767456058	31819229.097844847
0.9087734133147922	31966387.92822037
0.9090006066681211	31579162.84966499
0.909227856819788	31191840.964840483
0.9094551637839932	30804422.249544237
0.9096825275749393	30416906.679569285
0.9099099482068329	30098724.833836243
0.9101374256938848	30027221.010080077
0.9103649600503083	29955699.310368
0.9105925512903209	29884159.730231017
0.9108201994281437	29812602.26519892
0.9110479044780008	29741026.910800647
0.9112756664541204	30432261.614534188
0.911503485370734	31141130.12428103
0.9117313612420768	31850175.85115531
0.9119592940823873	32559398.839461096
0.912187283905908	33268799.13351418
0.9124153307268845	33292182.334617697
0.9126434345595664	33066522.90784616
0.9128715954182063	32840807.06621814
0.9130998133170609	32615034.795629602
0.9133280882703902	32389206.08197343
0.913556420292458	32289167.085812118
0.9137848093975312	32318890.09801117
0.9140132555998806	32348620.540963266
0.9142417589137806	32378358.4165261
0.9144703193535092	32408103.726557847
