#wavelength	surface flux
0.7	93917323.10673916
0.7001166666666666	93667617.4635701
0.7002333527777778	94890102.84876724
0.700350058336574	96112791.98152798
0.7004667833462966	97335684.89580926
0.7005835278101878	98558781.62557963
0.7007002917314895	99782082.20480299
0.7008170751134447	101005586.66745605
0.7009338779592968	102229295.04751898
0.7010507002722901	103352876.4162717
0.7011675420556689	104354548.93726368
0.701284403312678	105356388.4036742
0.7014012840465635	106358394.84333055
0.7015181842605713	107360568.28405999
0.701635103957948	108362908.7536955
0.701752043141941	109365416.28007579
0.701869001815798	110368090.89104524
0.7019859799827672	111100043.94720873
0.7021029776460976	111643595.73627716
0.7022199948090387	112187238.11731113
0.7023370314748403	112730971.10540837
0.7024540876467528	113274794.7156702
0.702571163328027	113818708.96319951
0.7026882585219152	114362713.86310486
0.7028053732316688	114906809.43049276
0.7029225074605406	115074654.93513018
0.7030396612117841	115097205.99281345
0.7031568344886527	115119760.80900635
0.7032740272944008	115142319.38433526
0.7033912396322832	115164881.71942674
0.7035084715055552	115187447.81490737
0.7036257229174727	115210017.67140393
0.7037429938712924	115232591.28954327
0.7038602843702709	115982517.32915428
0.7039775944176659	116855932.01165679
0.7040949240167356	117729492.26327339
0.7042122731707383	118603198.1082648
0.7043296418829335	119477049.57089753
0.7044470301565806	120351046.67544055
0.70456443799494	121225189.446167
0.7046818654012724	122099477.90735576
0.7047993123788394	112149236.17385775
0.7049167789309024	102184914.27078122
0.7050342650607243	92218931.64737214
0.7051517707715678	82251288.02686381
0.7052692960666963	72281983.13242367
0.705386840949374	62311016.68717202
0.7055044054228656	52338388.41416325
0.7056219894904361	43724127.61378669
0.7057395931553511	43751274.28558448
0.705857216420877	43778425.481827594
0.7059748592902804	43805581.20327006
0.7060925217668288	43832741.45066613
0.70621020385379	43859906.2247701
0.7063279055544321	43887075.52633638
0.7064456268720246	43914249.356119625
0.7065633678098366	44016456.13462608
0.7066811283711383	44325309.591424055
0.7067989085592001	44634214.52379817
0.7069167083772933	44943170.940327466
0.7070345278286895	45252178.849593066
0.707152366916661	45561238.260176934
0.7072702256444803	45870349.18066221
0.7073881040154211	46179511.61963464
0.7075060020327569	46480754.89991483
0.7076239196997625	46770440.300199054
0.7077418570197124	47060173.98138303
0.7078598139958823	47349955.95151386
0.7079777906315483	47639786.218639985
0.7080957869299869	47929664.79081041
0.7082138028944751	48219591.676076055
0.7083318385282908	48509566.88248944
0.7084498938347124	48343972.866943754
0.708567968817018	47792069.382823996
0.7086860634784875	47240073.91478958
0.7088041778224007	46687986.447510034
0.7089223118520377	46135806.96565335
0.7090404655706796	45583535.45388334
0.709158638981608	45031171.89686072
0.709276832088105	44478716.27924516
0.7093950448934531	44247034.76688046
0.7095132774009353	44168339.184249476
0.7096315296138355	44089630.48568802
0.7097498015354378	44010908.66901016
0.7098680931690269	43932173.732029594
0.7099864045178884	43853425.67255944
0.7101047355853081	43774664.488412715
0.7102230863745722	43695890.17740202
0.7103414568889679	43873007.3559303
0.7104598471317828	44108301.61244771
0.7105782571063047	44343635.08467436
0.7106966868158224	44579007.77914637
0.710815136263625	44814419.702400744
0.7109336054530023	45049870.86097581
0.7110520943872445	45285361.26141056
0.7111706030696424	45520890.910245515
0.7112891315034873	45811488.56830765
0.7114076796920712	46104760.23966083
0.7115262476386865	46398080.789625905
0.7116448353466263	46691450.22634911
0.711763442819184	46984868.557978585
0.711882070059654	47278335.7926636
0.7120007170713306	47571851.938554205
0.7121193838575091	47812582.47141731
0.7122380704214853	47502302.477517545
0.7123567767665555	47191970.770285785
0.7124755028960166	46881587.34110266
0.7125942488131658	46571152.18134824
0.7127130145213015	46260665.282399684
0.7128318000237216	45950126.63563559
0.7129506053237256	45639536.23242993
0.7130694304246129	45359492.87990715
0.7131882753296837	45186387.092741065
0.7133071400422386	45013252.45461041
0.7134260245655789	44840088.96070685
0.7135449289030065	44666896.606220916
0.7136638530578235	44493675.38634267
0.7137827970333332	44320425.29626085
0.7139017608328388	44147146.33116406
0.7140207444596443	44129844.17864359
0.7141397479170543	44390837.814374685
0.7142587712083737	44651874.94904471
0.7143778143369084	44912955.589904055
0.7144968773059646	45174079.7442036
0.7146159601188489	45435247.419195436
0.7147350627788687	45696458.62213313
0.7148541852893318	45957713.3602712
0.7149733276535467	46209401.38825267
0.7150924898748222	46451440.60030487
0.715211671956468	46693520.15222581
0.7153308739017941	46935640.050738916
0.715450095714111	47177800.302568324
0.71556933739673	47420000.91443974
0.7156885989529628	47662241.893079765
0.7158078803861218	47904523.24521659
0.7159271816995193	48075850.340598986
0.7160465028964692	48205536.567836754
0.7161658439802853	48335244.40944573
0.7162852049542819	48464973.86902828
0.7164045858217744	48594724.95018751
0.716523986586078	48724497.65652688
0.7166434072505089	48854291.99165057
0.716762847818384	48984107.959163494
0.7168823082930204	49177087.488045976
0.7170017886777359	49388675.26592206
0.7171212889758488	49600298.30842765
0.7172408091906781	49811956.62144039
0.7173603493255433	50023650.21083869
0.7174799093837642	50235379.08250178
0.7175994893686615	50447143.24231023
0.7177190892835562	50658942.69614522
0.7178387091317702	51037129.37899587
0.7179583489166254	51432077.977422625
0.7180780086414448	51827092.40061608
0.7181976883095517	52222172.659546725
0.7183173879242699	52617318.765187226
0.718437107488924	53012530.72851209
0.7185568470068389	53407808.56049767
0.7186766064813399	53804048.763612494
0.7187963859157535	54222769.26973964
0.7189161853134061	54641559.56261779
0.719036004677625	55060419.65387814
0.7191558440117378	55479349.55515343
0.7192757033190732	55898349.27807952
0.7193955826029597	56317418.83429226
0.7195154818667269	56736558.2354314
0.7196354011137046	57078231.70585368
0.7197553403472235	57062973.49761888
0.7198752995706147	57047712.74634938
0.7199952787872098	57032449.451621324
0.720115278000341	57017183.61301082
0.7202352972133411	57001915.230093874
0.7203553364295432	56986644.30244647
0.7204753956522815	56971370.82964443
0.7205954748848902	57003333.49540609
0.7207155741307044	57139445.13156321
0.7208356933930594	57275579.45299279
0.7209558326752915	57411736.46347597
0.7210759919807375	57547916.16679441
0.7211961713127342	57684118.5667299
0.7213163706746197	57820343.6670656
0.7214365900697322	57956591.471584536
0.7215568295014103	58299503.12228694
0.721677088972994	58889029.614202835
0.7217973684878227	59478654.360533066
0.7219176680492374	60068377.37765505
0.7220379876605789	60658198.6819462
0.722158327325189	61248118.28978829
0.7222786870464099	61838136.2175647
0.7223990668275843	62428252.48166266
0.7225194666720555	62819294.354575075
0.7226398865831676	63069242.691266336
0.7227603265642646	63319232.6860131
0.722880786618692	63569264.34575954
0.7230012667497951	63819337.6774491
0.7231217669609201	64069452.68802731
0.7232422872554135	64319609.384440385
0.7233628276366229	64569807.773636624
0.7234833881078956	65075421.25472196
0.7236039686725803	65678074.42640706
0.7237245693340255	66280828.04028648
0.7238451900955812	66883682.113102674
0.7239658309605971	67486636.66159695
0.7240864919324239	68089691.7025168
0.7242071730144127	68692847.25261015
0.724327874209915	69296103.32862726
0.7244485955222832	70054096.28934082
0.7245693369548704	70837783.39492339
0.7246900985110294	71621601.11502239
0.7248108801941148	72405549.47141016
0.7249316820074803	73189628.4858547
0.7250525039544815	73973838.18013628
0.7251733460384739	74758178.57603367
0.7252942082628137	75542636.78656119
0.7254150906308574	76319745.99058928
0.7255359931459625	77096984.71281812
0.7256569158114868	77874352.97483425
0.7257778586307888	78651850.79822776
0.7258988216072273	79429478.2045916
0.7260198047441617	80207235.21552232
0.7261408080449525	80985121.85262285
0.72626183151296	81697705.8941557
0.7263828751515454	81975573.90058132
0.7265039389640706	82253488.21834128
0.726625022953898	82531448.85515438
0.7267461271243904	82809455.81874041
0.7268672514789111	83087509.1168202
0.7269883960208241	83365608.75711608
0.7271095607534942	83643754.7473522
0.7272307456802866	84042726.88061842
0.7273519508045666	84768020.86250037
0.7274731761297006	85493435.72671229
0.7275944216590555	86218971.49340156
0.7277156873959987	86944628.18271887
0.7278369733438982	87670405.8148189
0.727958279506122	88396304.40985568
0.7280796058860397	89122323.98799253
0.7282009524870207	90016087.13063775
0.7283223193124353	91157931.66831703
0.7284437063656539	92299966.51341692
0.7285651136500483	93442191.69765952
0.7286865411689898	94584607.25276381
0.7288079889258514	95727213.21046339
0.7289294569240056	96870009.60248661
0.7290509451668262	98012996.46057649
0.7291724536576875	99229119.78942636
0.7292939823999636	100505889.3965517
0.7294155313970303	101782871.79861413
0.7295371006522632	103060067.03107654
0.7296586901690385	104337475.12941003
0.7297802999507332	105615096.12909268
0.7299019300007252	106892930.06561191
0.7300235803223919	108170976.97445047
0.7301452509191123	109463161.87751833
0.7302669417942654	110761989.49304442
0.7303886529512311	112061033.57984017
0.7305103843933897	113360294.17398405
0.7306321361241218	114659771.31155929
0.7307539081468093	115959465.02865976
0.7308757004648336	117259375.36137699
0.7309975130815778	118559502.34581788
0.7311193460004248	119891140.11623883
0.7312411992247582	121230084.41060549
0.7313630727579622	122569251.86235425
0.7314849666034219	123908642.50867964
0.7316068807645224	125248256.38677862
0.7317288152446498	126588093.53385788
0.7318507700471907	127928153.98712903
0.7319727451755319	129268437.78380853
0.732094740633061	130873217.15541737
0.7322167564231665	132490161.60813913
0.7323387925492371	134107375.55160308
0.7324608490146619	135724859.03072384
0.732582925822831	137342612.09042484
0.7327050229771347	138960634.7756339
0.7328271404809642	140578927.1312922
0.7329492783377112	142207587.64049506
0.7330714365507675	143935797.92735523
0.7331936151235259	145664296.24926275
0.7333158140593796	147393082.65422198
0.7334380333617229	149122157.19025132
0.7335602730339499	150851519.9053708
0.7336825330794556	152581170.84760982
0.7338048135016354	154311110.06500256
0.7339271143038857	155755166.26613867
0.734049435489603	156240592.927213
0.7341717770621846	156726100.49273098
0.7342941390250283	157211688.97617626
0.7344165213815324	157697358.39103526
0.734538924135096	158183108.75079745
0.7346613472891185	158668940.0689523
0.734783790847	159154852.35899368
0.7349062548121412	159335042.1631895
0.7350287391879431	158974741.87438494
0.7351512439778078	158614381.5355315
0.7352737691851374	158253961.13662198
0.735396314813335	157893480.6676457
0.7355188808658037	157532940.11859182
0.7356414673459482	157172339.47944573
0.7357640742571725	156811678.74019334
0.7358867016028818	157435763.05955204
0.7360093493864824	159032535.30716622
0.7361320176113801	160629573.68348616
0.736254706280982	162226878.23286888
0.7363774153986956	163824448.99967852
0.7365001449679286	165422286.0282794
0.7366228949920899	167020389.363053
0.7367456654745885	168618759.04838234
0.7368684564188344	169016405.85569224
0.7369912678282374	168735345.11058235
0.7371140997062088	168454237.52201486
0.7372369520561599	168173083.08218232
0.7373598248815024	167891881.7832771
0.7374827181856494	167610633.61748827
0.7376056319720137	167329338.57700512
0.7377285662440091	167047996.65401515
0.7378515210050496	168079966.25463817
0.7379744962585505	169507257.44263878
0.738097492007927	170934786.51250374
0.7382205082565949	172362553.50387946
0.738343545007971	173790558.4564201
0.7384666022654723	175218801.40978763
0.7385896800325165	176647282.4036452
0.7387127783125219	178076001.47767022
0.7388358971089073	178225420.05524284
0.7389590364250921	178246522.63679805
0.7390821962644963	178267628.7354502
0.7392053766305403	178288738.35178548
0.7393285775266454	178309851.4863901
0.7394517989562333	178330968.13985056
0.7395750409227259	178352088.3127532
0.7396983034295463	178596382.83048812
0.739821586480118	183805319.1475898
0.7399448900778645	189015123.62073398
0.7400682142262109	194225796.39463952
0.740191558928582	199437337.61400187
0.7403149241884034	204649747.4235633
0.7404383100091014	209863025.96809432
0.7405617163941028	215077173.39237946
0.7406851433468352	218970088.5609752
0.7408085908707264	216815357.1448654
0.7409320589692048	214660266.6068539
0.7410555476456997	212504816.88708436
0.7411790569036406	210349007.92569643
0.7413025867464579	208192839.66281432
0.7414261371775823	206036312.0385545
0.7415497082004452	203879424.99302557
0.7416732998184786	202781731.24840543
0.741796912035115	203956803.88262892
0.7419205448537874	205132072.36229116
0.7420441982779297	206307536.7200333
0.742167872310976	207483196.98850283
0.7422915669563612	208659053.20035037
0.7424152822175206	209835105.38823295
0.7425390180978901	211011353.58481276
0.7426627746009065	210795058.47107354
0.7427865517300065	208880878.30680802
0.7429103494886282	206966379.11251312
0.7430341678802096	205051560.8350207
0.7431580069081896	203136423.42114875
0.7432818665760077	201220966.81770515
0.7434057468871037	199305190.9714959
0.7435296478449182	197389095.8293134
0.7436535694528923	195964196.92040706
0.7437775117144678	194875518.02085277
0.7439014746330868	193786657.6748169
0.7440254582121922	192697615.85205573
0.7441494624552276	191608392.52232364
0.7442734873656368	190518987.65537018
0.7443975329468645	189429401.22093803
0.7445215992023557	188339633.18876693
0.7446456861355559	187539432.81386486
0.7447697937499119	186845835.01551405
0.7448939220488703	186152121.61753032
0.7450180710358784	185458292.6006475
0.7451422407143843	184764347.94559518
0.7452664310878367	184070287.63309968
0.7453906421596846	183376111.64388615
0.7455148739333779	182681819.95867422
0.7456391264123667	184735296.01862115
0.7457633996001021	187228485.69508478
0.7458876935000356	189722090.90316564
0.7460120081156189	192216111.7121097
0.7461363434503048	194710548.1911898
0.7462606995075466	197205400.4096853
0.7463850762907978	199700668.43688017
0.7465094738035127	202189880.57934636
0.7466338920491467	202986530.4624477
0.746758331031155	203783313.12053037
0.7468827907529935	204580228.57572177
0.7470072712181189	205377276.8501557
0.7471317724299886	206174457.96596888
0.7472562943920602	206971771.9453008
0.7473808371077922	207769218.81029662
0.7475054005806435	208622305.57351497
0.7476299848140736	209817435.81034005
0.7477545898115426	211012765.23553818
0.7478792155765113	212208293.88230753
0.7480038621124406	213404021.78385034
0.7481285294227926	214599948.97337648
0.7482532175110298	215796075.48410216
0.7483779263806148	216992401.3492446
0.7485026560350116	218001313.41787875
0.7486274064776842	218502625.581829
0.748752177712097	219004021.29780567
0.7488769697417158	219505500.57973608
0.749001782570006	220007063.4415462
0.7491266162004343	220508709.8971665
0.7492514706364677	221010439.9605296
0.7493763458815739	221512253.64557043
0.7495012419392209	221689435.6741349
0.7496261588128773	221399830.30445996
0.7497510965060128	221110176.66722316
0.7498760550220971	220820474.7543803
0.7500010343646007	220530724.5578852
0.7501260345369949	220240926.0696906
0.750251055542751	219951079.28174824
0.7503760973853414	219661184.18600774
0.7505011600682389	219551704.5297497
0.750626243594917	219592889.73609057
0.7507513479688495	219634081.80663243
0.7508764731935109	219675280.7425194
0.7510016192723765	219716486.54489568
0.7511267862089218	219757699.21490568
0.7512519740066232	219798918.753694
0.7513771826689577	219840145.1624055
0.7515024121994025	220510204.1460573
0.7516276626014359	221473568.68742186
0.751752933878536	222437093.78954157
0.7518782260341824	223400779.47917867
0.7520035390718548	224364625.7830978
0.7521288729950334	225328632.72806707
0.7522542278071992	226292800.34086058
0.7523796035118337	227257128.6482567
0.7525050001124189	228561666.23977143
0.7526304176124378	229940374.21162942
0.7527558560153731	231319311.9681476
0.752881315324709	232698479.54762655
0.7530067955439299	234077876.98836926
0.7531322966765205	235457504.32868356
0.7532578187259665	236837361.60688835
0.7533833616957542	238217448.86130613
0.75350892558937	238875955.65122777
0.7536345104103016	239500630.60060105
0.7537601161620366	240125409.66246554
0.7538857428480638	240750292.8541743
0.7540113904718717	241375280.19308084
0.7541370590369503	242000371.69654375
0.7542627485467898	242625567.3819243
0.7543884590048808	243248816.90894845
0.7545141904147151	243851723.91220814
0.7546399427797842	244454731.3999674
0.7547657161035808	245057839.38897473
0.754891510389598	245661047.89598018
0.7550173256413296	246264356.93773705
0.7551431618622698	246867766.5310007
0.7552690190559135	247471276.6925298
0.7553948972257561	247730181.300139
0.7555207963752938	246832080.32573825
0.755646716508023	245933829.6678423
0.755772657627441	245035429.30150303
0.7558986197370455	244136879.20176923
0.756024602840335	243238179.34368572
0.7561506069408084	242339329.70229253
0.7562766320419653	241440330.252625
0.7564026781473054	240132728.93995956
0.75652874526033	238106143.09309095
0.7566548333845401	236079219.48191348
0.7567809425234375	234051958.0501349
0.7569070726805247	232024358.74145213
0.7570332238593047	229996421.49955156
0.7571593960632813	227968146.26810873
0.7572855892959586	225939532.99079385
0.7574118035608413	223858589.695341
0.7575380388614347	221726434.18788028
0.7576642952012449	219593923.32116753
0.7577905725837782	217461057.03598008
0.7579168710125422	215327835.2730746
0.7580431904910444	213194257.97320786
0.7581695310227928	211060325.07712716
0.7582958926112967	208926036.5255611
0.7584222752600652	198904730.06597263
0.7585486789726085	184351166.9466118
0.7586751037524372	169795178.23339218
0.7588015496030628	155236763.5220253
0.7589280165279966	140675922.4082353
0.7590545045307512	126112654.48759307
0.7591810136148396	111546959.35563102
0.7593075437837755	96978836.60779217
0.7594340950410726	95127092.9871758
0.7595606673902461	96965231.84580266
0.7596872608348112	98803677.06090781
0.7598138753782836	100642428.68354677
0.75994051102418	102481486.76479122
0.7600671677760173	104320851.35571446
0.7601938456373134	106160522.50740424
0.7603205446115863	108000500.2709516
0.7604472647023548	108884990.28574872
0.7605740059131385	109674621.8651989
0.7607007682474575	110464385.04991308
0.7608275517088319	111254279.86182296
0.7609543563007835	112044306.32286993
0.7610811820268336	112834464.45499325
0.7612080288905045	113624754.28013708
0.7613348968953197	114386944.28358684
0.7614617860448022	114570012.52281559
0.7615886963424764	114753111.27341777
0.7617156277918667	114936240.54047823
0.7618425803964988	115119400.32908334
0.7619695541598982	115302590.64431983
0.7620965490855914	115485811.4912754
0.7622235651771058	115669062.875039
0.7623506024379685	115195030.31523381
0.7624776608717082	111839837.60849546
0.7626047404818536	108484085.7029725
0.7627318412719337	105127774.50547105
0.762858963245479	101770903.92276792
0.7629861064060198	98413473.86163402
0.7631132707570876	95055484.22881979
0.7632404563022137	91696934.93106976
0.7633676630449308	88566591.10090905
0.7634948909887717	85922690.75801422
0.7636221401372697	83278349.76506567
0.7637494104939593	80633568.04861581
0.7638767020623748	77988345.53521702
0.7640040148460518	75342682.15139632
0.7641313488485262	72696577.8236784
0.7642587040733344	70050032.47856954
0.7643860805240132	66685143.602421775
0.7645134782041005	62463021.09424804
0.7646408971171346	58240194.89898786
0.764768337266654	54016664.89936334
0.7648957986561985	49792430.97807086
0.7650232812893079	45567493.01779206
0.7651507851695227	41341850.901186496
