#wavelength	surface flux
0.8	77553483.2074442
0.8002000000000001	79111424.05077139
0.8004000500000003	81139987.5296423
0.8006001500125003	83173807.96719156
0.8008003000500035	85208136.85985038
0.8010005001250161	87242974.33473329
0.8012007502500472	89278320.51898198
0.8014010504376099	92012842.26640359
0.8016014007002193	94982079.652628
0.8018018010503944	97952059.34819895
0.8020022515006572	100922781.53869513
0.8022027520635323	103894246.40973637
0.8024033027515483	107160026.09363307
0.8026039035772362	110714311.28879404
0.8028045545531306	114269485.05525397
0.8030052556917691	117825547.61515722
0.803206007005692	121382499.19069731
0.8034068085074435	124518201.39214054
0.8036076602095705	126471371.06850596
0.8038085621246229	128425029.03728893
0.8040095142651542	130379175.4205653
0.8042105166437206	132333810.34043685
0.8044115692728815	134310885.99085888
0.8046126721651998	137232653.1960184
0.8048138253332411	140155150.84297684
0.8050150287895745	143078379.11434975
0.805216282546772	146002338.1927897
0.8054175866174087	148927028.26099774
0.8056189410140631	152435521.34416017
0.8058203457493168	156109938.69916636
0.8060218008357541	159785274.6585066
0.8062233062859632	163461529.4518385
0.8064248621125346	167138703.3088662
0.806626468328063	170792862.1118188
0.8068281249451449	174427377.7453651
0.8070298319763813	178062802.00782433
0.8072315894343755	181699135.1263464
0.8074333973317341	185336377.3281495
0.8076352556810671	189286392.13622478
0.8078371644949874	193988101.47621945
0.8080391237861113	198690986.24355027
0.8082411335670578	203395046.73207
0.8084431938504498	208100283.23571676
0.8086453046489125	212875822.23042998
0.8088474659750746	218939560.77220258
0.8090496778415686	225004815.2486187
0.809251940261029	231071586.03864956
0.8094542532460944	237139873.5213831
0.8096566168094059	243209678.07598042
0.8098590309636085	248498333.75333697
0.8100614957213493	253605122.1497574
0.8102640110952797	258713187.2432776
0.8104665770980536	263822529.35307318
0.8106691937423283	268933148.79839814
0.8108718610407639	273434510.4285504
0.8110745790060241	277470152.96994984
0.8112773476507757	281506804.4219881
0.8114801669876885	285544465.0368884
0.8116830370294355	289583135.06694
0.8118859577886929	294044615.5463115
0.8120889292781401	299383310.0640633
0.8122919515104597	304723339.25544417
0.8124950244983374	310064703.4541232
0.8126981482544621	315407402.99385107
0.8129013227915257	320849511.9845667
0.8131045481222237	327415941.23289037
0.8133078242592543	333984012.08852684
0.8135111512153191	340553724.96187544
0.813714529003123	347125080.2634432
0.8139179576353739	353698078.40383744
0.8141214371247829	358847520.7781574
0.8143249674840641	363721880.4523486
0.814528548725935	368597458.71645546
0.8147321808631167	373474255.87513494
0.8149358639083326	378352272.23310256
0.8151395978743097	380907556.639405
0.8153433827737784	381893320.758712
0.8155472186194719	382879331.31904846
0.8157511054241268	383865588.38202477
0.815955043200483	384852092.00926757
0.8161590319612831	382607812.9626241
0.8163630717192736	374442505.500596
0.8165671624872033	366275156.7117114
0.8167713042778252	358105766.0856216
0.8169754971038948	349934333.11187124
0.8171797409781707	339852084.3674299
0.8173840359134155	314528989.7358516
0.8175883819223938	289199564.33064455
0.8177927790178745	263863806.5690717
0.8179972272126291	238521714.8680519
0.8182017265194322	213173287.64413238
0.8184062769510622	207097389.69359323
0.8186108785203001	203986704.96293202
0.8188155312399301	200875242.56109235
0.8190202351227402	197763002.29364872
0.819224990181521	194649983.96614024
0.8194297964290664	202084877.56456137
0.8196346538781738	215879834.181348
0.8198395625416434	229678239.53728336
0.8200445224322789	243480094.49456355
0.820249533562887	257285399.91557893
0.8204545959462778	264247490.63996497
0.8206597095952644	260191797.75873876
0.8208648745226633	256135090.95428908
0.8210700907412941	252077369.97313896
0.8212753582639793	248018634.56174767
0.8214806771035456	244964636.0830824
0.8216860472728215	248106529.41569197
0.8218914687846397	251249208.22163486
0.822096941651836	254392672.69728085
0.822302465887249	257536923.03904393
0.8225080415037209	260681959.44339412
0.8227136685140968	266129608.80755338
0.8229193469312254	271839925.52253187
0.8231250767679583	277551669.816691
0.8233308580371503	283264842.04692054
0.8235366907516598	288979442.5702119
0.8237425749243477	297272632.44752806
0.8239485105680789	306933836.1003626
0.824154497695721	316597455.0541042
0.824360536320145	326263489.91258603
0.8245666264542252	335931941.27978206
0.8247727681108388	340768937.0603667
0.8249789613028664	338684126.58776325
0.8251852060431922	336598794.91253984
0.825391502344703	334512941.90439856
0.8255978502202894	332426567.43300337
0.8258042496828445	328563333.58977395
0.8260107007452654	316072224.42147344
0.8262172034204517	303577992.47589356
0.8264237577213068	291080636.972324
0.8266303636607373	278580157.12987304
0.8268370212516525	266076552.16746762
0.8270437305069654	263079542.72798154
0.8272504914395923	260824906.9603578
0.8274573040624523	258569707.53379163
0.8276641683884679	256313944.30737075
0.8278710844305652	254057617.14014062
0.8280780522016729	252400184.9066631
0.8282850717147234	251016349.9210299
0.8284921429826521	249632168.9766517
0.8286992660183978	248247641.98703635
0.8289064408349024	246862768.86567453
0.8291136674451112	245134961.09260416
0.8293209458619727	242974734.5199204
0.8295282760984382	240813967.89059636
0.829735658167463	238652661.0696125
0.8299430920820048	236490813.92192614
0.8301505778550254	234995490.44460735
0.8303581154994891	236162241.42945644
0.8305657050283641	237329284.1020529
0.8307733464546212	238496618.5353166
0.8309810397912352	239664244.8021905
0.8311887850511829	240832162.97562885
0.8313965822474458	244406580.7733954
0.8316044313930077	248093577.00063804
0.8318123325008561	251781494.9769409
0.8320202855839813	255470334.93273607
0.8322282906553774	259160097.0985205
0.8324363477280413	261815826.87650594
0.8326444568149735	264055551.4242268
0.8328526179291771	266295835.90308198
0.8330608310836596	268536680.45306027
0.8332690962914304	270778085.2141731
0.8334774135655034	271328671.1853004
0.833685782918895	269990068.75857323
0.8338942043646247	268651131.6812402
0.834102677915716	267311859.86963692
0.834311203585195	265972253.2400818
0.8345197813860912	264839717.07118514
0.8347284113314379	264405043.6135264
0.8349370934342709	263970261.48750353
0.8351458277076294	263535370.66594964
0.8353546141645565	263100371.12168968
0.8355634528180977	262665262.82754382
0.8357723436813022	264912432.03044552
0.8359812867672226	267193283.66138172
0.8361902820889144	269474705.5052245
0.8363993296594368	271756697.7045289
0.8366084294918518	274039260.40188396
0.8368175815992247	273591993.97341424
0.8370267859946247	272204238.00440276
0.8372360426911234	270816135.0963995
0.8374453517017962	269427685.1626693
0.8376547130397217	268038888.1164559
0.8378641267179816	268947046.6141889
0.8380735927496613	272134953.6586338
0.8382831111478488	275323657.679838
0.8384926819256358	278513158.8770458
0.8387023050961173	281703457.44955564
0.8389119806723914	283471622.9871145
0.8391217086675596	281235638.8734777
0.8393314890947265	278999095.7638142
0.8395413219670003	276761993.5183731
0.8397512072974922	274524331.99736905
0.8399611450993165	272384784.8090169
0.8401711353855914	275144805.79695535
0.8403811781694378	277905516.7901401
0.8405912734639802	280666917.96107376
0.8408014212823464	283429009.48230153
0.8410116216376671	286191791.5264092
0.8412218745430766	282072002.839604
0.8414321800117124	275948420.7464366
0.8416425380567154	269823307.75774294
0.8418529486912297	263696663.49080065
0.8420634119284025	257568487.56279677
0.8422739277813847	257037761.03864494
0.8424844962633302	261439821.74977574
0.842695117387396	265842982.97607872
0.8429057911667428	270247244.9926885
0.8431165176145345	274652608.0748045
0.8433272967439382	271609712.7062347
0.8435381285681244	250395002.37386382
0.8437490131002665	229174988.36391458
0.8439599503535415	207949669.3504761
0.84417094034113	186719044.0072689
0.8443819830762154	166260945.28616494
0.8445930785719846	161467270.07432127
0.8448042268416277	156672396.4436773
0.8450154278983382	151876324.09462625
0.8452266817553128	147079052.72748834
0.8454379884257517	142280582.04250807
0.8456493479228583	141576097.05204922
0.845860760259839	141857605.78128904
0.846072225449904	142139184.88771117
0.8462837435062666	142420834.38890994
0.8464953144421433	142702554.3024842
0.8467069382707537	143635503.7082037
0.8469186150053215	145076244.84197983
0.847130344659073	146517346.1610398
0.8473421272452377	147958807.75542814
0.8475539627770492	149400629.71521652
0.8477658512677435	151052492.40584362
0.8479777927305605	153149996.51571074
0.8481897871787432	155248025.00160483
0.848401834625538	157346577.99462157
0.8486139350841944	159445655.62588525
0.8488260885679657	161476480.0755796
0.8490382950901076	162669433.4252218
0.8492505546638802	163862685.01320204
0.8494628673025462	165056234.91407883
0.8496752330193721	166250083.20243263
0.8498876518276269	167444229.95285687
0.8501001237405839	167743674.13811344
0.8503126487715191	167864535.24572647
0.850525226933712	167985426.56861633
0.8507378582404455	168106348.11433694
0.8509505427050057	168227299.890444
0.8511632803406821	168214568.15023476
0.8513760711607672	168110263.7906541
0.8515889151785576	168005933.35498333
0.8518018124073523	167901576.83670378
0.8520147628604541	167797194.2292947
0.8522277665511693	168335049.37567633
0.8524408234928071	170060828.34045944
0.8526539336986805	171787038.74998423
0.8528670971821053	173513680.7121115
0.8530803139564007	175240754.33472726
0.8532935840348901	176983289.50122648
0.8535069074308987	178853194.43562832
0.8537202841577566	180723566.84626535
0.8539337142287962	182594406.8500052
0.8541471976573534	184465714.56374487
0.8543607344567677	186337490.1044133
0.8545743246403821	186012394.72853065
0.8547879682215422	185338255.5534386
0.8550016652135977	184663947.84355286
0.8552154156299011	183989471.55673963
0.8554292194838088	183314826.65085417
0.8556430767886797	182916820.31582555
0.855856987557877	182686784.51962164
0.8560709518047664	182456691.21446884
0.8562849695427177	182226540.38598964
0.8564990407851035	181996332.01980326
0.8567131655452999	181522302.31358024
0.8569273438366862	180648738.99828818
0.8571415756726455	179774957.2921671
0.8573558610665638	178900957.1406192
0.8575702000318304	178026738.48903435
0.8577845925818384	177846826.2049237
0.857999038729984	182005127.4715646
0.8582135384896665	186164468.3135212
0.858428091874289	190324848.99068856
0.8586426988972576	194486269.7630241
0.8588573595719821	198648730.89055413
0.8590720739118751	199807070.991872
0.8592868419303532	200611383.1412918
0.8595016636408359	201415896.36874893
0.8597165390567462	202220610.72451264
0.8599314681915105	203025526.2588655
0.8601464510585584	203059109.7555932
0.860361487671323	202683177.1761435
0.8605765780432408	202307150.61354902
0.8607917221877518	201931030.04431358
0.8610069201182988	201554815.44493595
0.8612221718483286	199982175.86813885
0.8614374773912907	196684470.20524287
0.8616528367606385	193385940.1159321
0.8618682499698288	190086585.3940969
0.8620837170323213	186786405.8335818
0.8622992379615795	184031867.9396886
0.8625148127710699	183980895.8050449
0.8627304414742627	183929910.92736754
0.8629461240846313	183878913.30347073
0.8631618606156526	183827902.93016797
0.8633776510808066	183776879.80427188
0.8635934954935769	189503064.02458182
0.8638093938674504	195704248.9715939
0.8640253462159173	201906984.2148425
0.8642413525524714	208111270.1419018
0.8644574128906095	214317107.14044154
0.8646735272438323	214288967.31954783
0.8648896956256433	211361127.03582498
0.8651059180495498	208432554.79203105
0.8653221945290621	205503250.405179
0.8655385250776946	202573213.69222608
0.8657549097089641	204141016.83418626
0.8659713484363913	211468373.45330274
0.8661878412735006	218797561.9115774
0.866404388233819	226128582.66696566
0.8666209893308775	233461436.17753935
0.8668376445782103	239527126.3553352
0.8670543539893549	240414913.85680804
0.8672711175778525	241302923.30515686
0.8674879353572469	242191154.75586677
0.8677048073410862	243079608.2644397
0.8679217335429217	243968283.8863903
0.8681387139763074	240346597.04188368
0.8683557486548015	236499930.42270842
0.8685728375919655	232652302.13687366
0.8687899808013633	228803711.9439758
0.8690071782965637	224954159.60352474
0.869224430091138	222792436.62757277
0.8694417361986609	221317340.45012808
0.8696590966327107	219841875.49863935
0.869876511406869	218366041.68091267
0.8700939805347206	216889838.90473226
0.8703115040298544	216381196.2837969
0.870529081905862	216979049.59608617
0.8707467141763385	217577052.37170333
0.8709644008548827	218175204.64801434
0.8711821419550964	218773506.4623941
0.8713999374905854	220368908.21465403
0.871617787474958	225405530.42104796
0.8718356919218269	230443411.78299806
0.8720536508448075	235482552.61528903
0.8722716642575187	240522953.23278508
0.8724897321735832	245564613.95043772
0.8727078546066265	251042032.28973597
0.8729260315702784	256527430.1114573
0.873144263078171	262014199.28262818
0.8733625491439405	267502340.14609239
0.8735808897812266	272991853.0447746
0.8737992850036719	273884090.41095304
0.874017734824923	273147785.36101043
0.8742362392586293	272411296.2348057
0.874454798318444	271674622.9863194
0.8746734120180236	270937765.56952107
0.8748920803710283	271775588.49917656
0.875110803391121	274196209.7044846
0.8753295810919689	276617436.06509537
0.875548413487242	279039267.7322963
0.8757673005906139	281461704.85741407
0.8759862424157616	286418235.9942217
0.8762052389763657	298706774.51837915
0.8764242902861098	310998385.1771592
0.8766433963586814	323293068.73860717
0.8768625572077712	335590825.9709493
0.8770817728470732	347818477.4785083
0.8773010432902849	354335463.3375618
0.8775203685511077	360854078.44308937
0.8777397486432454	367374323.2023852
0.8779591835804065	373896198.02287877
0.8781786733763015	380419703.3120689
0.8783982180446457	375690704.2559955
0.878617817599157	367612628.07763875
0.8788374720535569	359532532.38024116
0.8790571814215703	351450416.6589213
0.8792769457169257	343366280.4086709
0.879496764953355	338860097.9269898
0.8797166391445934	337571421.3842286
0.8799365683043796	336282422.6723316
0.8801565524464557	334993101.71075666
0.8803765915845676	333703458.41894007
0.8805966857324639	334358662.17952126
0.880816834903897	339899712.294729
0.881037039112623	345442147.6724677
0.8812572983724012	350985968.6590504
0.8814776126969944	356531175.6008821
0.8816979821001687	361983330.79325306
0.8819184065956938	365213761.4036071
0.8821388861973429	368444999.621617
0.8823594209188923	371677045.6491783
0.882580010774122	374909899.68824506
0.8828006557768155	378143561.9408233
0.8830213559407598	390802235.1748447
0.8832421112797452	405834355.68490833
0.8834629218075651	420870234.2250905
0.8836837875380171	435909871.73491216
0.8839047084849018	450953269.1541137
0.884125684662023	448041916.98783886
0.8843467160831886	430738384.43573064
0.8845678027622095	413430526.0004844
0.8847889447129001	396118340.6006261
0.8850101419490785	378801827.154421
0.8852313944845657	358043880.1028648
0.885452702333187	329757343.4275308
0.8856740655087704	301463735.11803216
0.8858954840251476	273163053.4064637
0.8861169578961539	244855296.52448046
0.886338487135628	217917269.68820104
0.886560071757412	209294239.01479018
0.8867817117753515	200669052.5837112
0.8870034072032955	192041709.85602057
0.8872251580550963	183412210.29265812
0.8874469643446101	174780553.3543995
0.8876688260856963	174564558.91687953
0.8878907432922178	176090686.29629636
0.8881127159780409	177617195.20755705
0.8883347441570356	179144085.7460474
0.8885568278430749	180671358.0071708
0.8887789670500358	182257709.15791458
0.8890011617917983	183886095.05202237
0.8892234120822464	185514888.0426044
0.8894457179352669	187144088.23143274
0.8896680793647509	188773695.72030962
0.8898904963845921	191737756.35663483
0.8901129690086883	197247952.40662923
0.8903354972509405	202759526.00563478
0.8905580811252535	208272477.49804437
0.8907807206455347	213786807.2283196
0.8910034158256963	219173719.4487967
0.8912261666796527	223410932.37473908
0.8914489732213227	227649204.60391417
0.8916718354646282	231888536.4011507
0.8918947534234944	236128928.03133246
0.8921177271118502	240370379.7594191
0.8923407565436284	240237218.61671177
0.8925638417327644	239390232.8991391
0.8927869826931977	238543035.4351368
0.8930101794388711	237695626.17176852
0.8932334319837308	236848005.0560845
0.8934567403417267	236286677.15897846
0.8936801045268123	235903238.13841206
0.8939035245529441	235519703.25809082
0.8941270004340824	235136072.4940493
0.894350532184191	234752345.8223169
0.8945741198172371	236180188.878185
0.8947977633471915	240612820.28849393
0.8950214627880284	245046559.85665527
0.8952452181537254	249481407.85970598
0.8954690294582639	253917364.57476014
0.8956928967156286	258488008.64794883
0.8959168199398075	263926671.4122723
0.8961407991447926	269366693.8422882
0.8963648343445789	274808076.2779115
0.896588925553165	280250819.0591406
0.8968130727845534	285694922.52606577
0.8970372760527496	291473460.5816501
0.8972615353717629	297295117.48193794
0.8974858507556059	303118229.7964515
0.8977102222182949	308942797.88904214
0.8979346497738496	314768822.12365913
0.8981591334362931	321073337.3480507
0.8983836732196523	327640307.64362854
0.8986082691379572	334208919.681776
0.8988329212052417	340779173.872933
0.8990576294355432	347351070.6276434
0.8992823938429022	353422041.5671149
0.8995072144413631	358747274.3261584
0.8997320912449734	364073838.39338976
0.8999570242677847	369401734.1016367
0.9001820135238516	374730961.78381103
0.9004070590272328	380418965.1897147
0.9006321607919896	387982230.9338824
0.9008573188321878	395547387.49449384
0.9010825331618959	403114435.34424186
0.9013078037951865	410683374.9559535
0.9015331307461353	418254206.802564
0.9017585140288219	420704414.16012
0.9019839536573292	422714018.38578683
0.9022094496457435	424724125.01250863
0.9024350020081551	426734734.1658894
0.9026606107586572	428745845.97155786
0.902886275911347	433019796.3256402
0.9031119974803249	438385418.48181146
0.9033377754796951	443752382.0435219
0.903563609923565	449120687.34612036
0.903789500826046	454490334.72504807
0.9040154482012526	459934656.3852766
0.904241452063303	465475334.15985596
0.9044675124263188	471017397.10387766
0.9046936293044254	476560845.5636345
0.9049198027117517	482105679.8855091
0.9051460326624297	485887078.26799583
0.9053723191705955	482154398.7329321
0.9055986622503881	478420786.02798814
0.9058250619159507	474686239.91986775
0.9060515181814298	470950760.175218
0.9062780310609752	467214346.56063473
0.9065046005687405	470595874.0711576
0.906731226718883	474375387.9654789
0.9069579095255627	478155846.73826885
0.907184649002944	481937250.62575233
0.907411445165195	485719599.8642115
0.9076382980264862	492217631.3242547
0.907865207600993	499844712.388457
0.9080921739028933	507473700.22292304
0.9083191969463691	515104595.30434656
0.9085462767456058	522737398.1095441
0.9087734133147922	530451832.2641561
0.9090006066681211	538260276.2522715
0.909227856819788	546070672.3513738
0.9094551637839932	553883021.0495116
0.9096825275749393	561697322.8348213
0.9099099482068329	569161563.4311182
0.9101374256938848	575376603.5109104
0.9103649600503083	581593197.3507197
0.9105925512903209	587811345.3389876
0.9108201994281437	594031047.8642591
0.9110479044780008	600252305.3151549
0.9112756664541204	612259979.9654977
0.911503485370734	624403071.0032055
0.9117313612420768	636549197.8136729
0.9119592940823873	648698361.1558391
0.912187283905908	660850561.7888446
0.9124153307268845	666966401.7931851
0.9126434345595664	670891822.0494473
0.9128715954182063	674818223.6607698
0.9130998133170609	678745606.8724972
0.9133280882703902	682673971.9300272
0.913556420292458	690399069.2897941
0.9137848093975312	702040711.162232
0.9140132555998806	713685263.4451367
