#wavelength	surface flux
0.8	150811330.85581267
0.8002000000000001	153456333.48963806
0.8004000500000003	156571119.09169793
0.8006001500125003	159691421.98140132
0.8008003000500035	162812504.94682735
0.8010005001250161	165934368.1829962
0.8012007502500472	169057011.8849696
0.8014010504376099	172823312.40358385
0.8016014007002193	176805898.36890164
0.8018018010503944	180789479.98071074
0.8020022515006572	184774057.4879246
0.8022027520635323	188759631.13951182
0.8024033027515483	193052318.33292264
0.8026039035772362	197646061.57328886
0.8028045545531306	202240953.2494654
0.8030052556917691	206836993.6485632
0.803206007005692	211434183.05775672
0.8034068085074435	215351584.9440629
0.8036076602095705	217361200.39078936
0.8038085621246229	219371318.24137592
0.8040095142651542	221381938.62142637
0.8042105166437206	223393061.65657115
0.8044115692728815	225431580.63210472
0.8046126721651998	228627331.41546932
0.8048138253332411	231823881.13652718
0.8050150287895745	235021229.99501827
0.805216282546772	238219378.19072312
0.8054175866174087	241418325.92347524
0.8056189410140631	244973455.4558358
0.8058203457493168	248630069.94386455
0.8060218008357541	252287598.5855106
0.8062233062859632	255946041.6093189
0.8064248621125346	259605399.24388063
0.806626468328063	262995808.746975
0.8068281249451449	266155286.2069105
0.8070298319763813	269315553.5362148
0.8072315894343755	272476610.9323491
0.8074333973317341	275638458.59283364
0.8076352556810671	279036610.49020964
0.8078371644949874	283002532.9083827
0.8080391237861113	286969446.8071613
0.8082411335670578	290937352.43441206
0.8084431938504498	294906250.03807384
0.8086453046489125	298928221.13105106
0.8088474659750746	303920857.5615104
0.8090496778415686	308914742.1510839
0.809251940261029	313909875.21180123
0.8094542532460944	318906257.05578804
0.8096566168094059	323903887.99523014
0.8098590309636085	328223169.6319911
0.8100614957213493	332384465.4618676
0.8102640110952797	336546801.61570203
0.8104665770980536	340710178.3535766
0.8106691937423283	344874595.93563724
0.8108718610407639	348350569.12958926
0.8110745790060241	351300197.9492947
0.8112773476507757	354250564.17620766
0.8114801669876885	357201667.99467653
0.8116830370294355	360153509.58909833
0.8118859577886929	363286674.83185846
0.8120889292781401	366795707.7364008
0.8122919515104597	370305617.899169
0.8124950244983374	373816405.5394782
0.8126981482544621	377328070.8766968
0.8129013227915257	380924022.4158607
0.8131045481222237	385475910.565007
0.8133078242592543	390028936.686191
0.8135111512153191	394583101.06390417
0.813714529003123	399138403.9827122
0.8139179576353739	403694845.72725075
0.8141214371247829	407174229.1121928
0.8143249674840641	410445401.7184511
0.814528548725935	413717392.11785895
0.8147321808631167	416990200.51487106
0.8149358639083326	420263827.1139815
0.8151395978743097	422068053.75593346
0.8153433827737784	422879390.24291766
0.8155472186194719	423690929.5640233
0.8157511054241268	424502671.7699591
0.815955043200483	425314616.91144687
0.8161590319612831	424182128.45693576
0.8163630717192736	419486047.38471013
0.8165671624872033	414788792.2922216
0.8167713042778252	410090362.8859554
0.8169754971038948	405390758.87233526
0.8171797409781707	399482643.3699791
0.8173840359134155	383934508.9354138
0.8175883819223938	368382487.46725774
0.8177927790178745	352826577.9937257
0.8179972272126291	337266779.5428213
0.8182017265194322	321703091.1423198
0.8184062769510622	317919828.0998983
0.8186108785203001	315949051.10060006
0.8188155312399301	313977781.4070547
0.8190202351227402	312006018.8960837
0.819224990181521	310033763.44448626
0.8194297964290664	313645949.91753244
0.8196346538781738	320625349.0949241
0.8198395625416434	327606493.1221073
0.8200445224322789	334589382.4353003
0.820249533562887	341574017.4708195
0.8204545959462778	344169588.97035825
0.8206597095952644	339698919.6953796
0.8208648745226633	335227132.75307876
0.8210700907412941	330754227.86404306
0.8212753582639793	326280204.7487896
0.8214806771035456	322738035.03709614
0.8216860472728215	324943223.4264618
0.8218914687846397	327148963.1129249
0.822096941651836	329355254.2343107
0.822302465887249	331562096.9284756
0.8225080415037209	333769491.33331525
0.8227136685140968	337720439.87989587
0.8229193469312254	341870243.352458
0.8231250767679583	346021084.2758897
0.8233308580371503	350172962.9095499
0.8235366907516598	354325879.5128716
0.8237425749243477	360208614.39184934
0.8239485105680789	367009103.77014214
0.824154497695721	373811293.27077514
0.824360536320145	380615183.31878465
0.8245666264542252	387420774.33930576
0.8247727681108388	390999070.7597918
0.8249789613028664	389953731.74730253
0.8251852060431922	388908131.4000592
0.825391502344703	387862269.6527295
0.8255978502202894	386816146.4399621
0.8258042496828445	384248429.7152577
0.8260107007452654	374291615.15681005
0.8262172034204517	364332311.39473295
0.8264237577213068	354370517.80671275
0.8266303636607373	344406233.7702911
0.8268370212516525	334439458.6628653
0.8270437305069654	331778410.63420194
0.8272504914395923	329687787.14341843
0.8274573040624523	327596640.9967617
0.8276641683884679	325504972.06357014
0.8278710844305652	323412780.2131428
0.8280780522016729	321894874.1473515
0.8282850717147234	320639332.6579703
0.8284921429826521	319383477.28321797
0.8286992660183978	318127307.944621
0.8289064408349024	316870824.5636903
0.8291136674451112	315352511.70637625
0.8293209458619727	313504061.5118783
0.8295282760984382	311655149.2048341
0.829735658167463	309805774.66971105
0.8299430920820048	307955937.79095656
0.8301505778550254	306686828.6827338
0.8303581154994891	307737102.69865334
0.8305657050283641	308787639.283078
0.8307733464546212	309838438.50164795
0.8309810397912352	310889500.4200242
0.8311887850511829	311940825.103878
0.8313965822474458	314741486.6551035
0.8316044313930077	317624032.14989763
0.8318123325008561	320507298.2810682
0.8320202855839813	323391285.2287701
0.8322282906553774	326275993.1732092
0.8324363477280413	328297022.21806186
0.8326444568149735	329970552.0988343
0.8328526179291771	331644500.3620749
0.8330608310836596	333318867.11238384
0.8332690962914304	334993652.4543782
0.8334774135655034	335349550.32975286
0.833685782918895	334231828.8705261
0.8338942043646247	333113827.98093516
0.834102677915716	331995547.591121
0.834311203585195	330876987.6312104
0.8345197813860912	329843207.46518826
0.8347284113314379	329095486.8629784
0.8349370934342709	328347579.3306184
0.8351458277076294	327599484.82137614
0.8353546141645565	326851203.2885054
0.8355634528180977	326102734.6852517
0.8357723436813022	327805444.4794173
0.8359812867672226	329538848.06902796
0.8361902820889144	331272685.00953513
0.8363993296594368	333006955.4092779
0.8366084294918518	334741659.37662125
0.8368175815992247	334350886.32490164
0.8370267859946247	333227830.1009893
0.8372360426911234	332104493.11302125
0.8374453517017962	330980875.2908064
0.8376547130397217	329856976.5641361
0.8378641267179816	330540985.86824274
0.8380735927496613	333019359.7083785
0.8382831111478488	335498353.1419728
0.8384926819256358	337977966.3239242
0.8387023050961173	340458199.40917313
0.8389119806723914	341791408.57880664
0.8391217086675596	339895105.90376633
0.8393314890947265	337998329.15305877
0.8395413219670003	336101078.2081633
0.8397512072974922	334203352.95053035
0.8399611450993165	332386422.05002815
0.8401711353855914	334604815.9070123
0.8403811781694378	336823764.36246014
0.8405912734639802	339043267.55502236
0.8408014212823464	341263325.62338376
0.8410116216376671	343483938.706262
0.8412218745430766	340151118.96887237
0.8414321800117124	335201469.84725386
0.8416425380567154	330250583.3133525
0.8418529486912297	325298459.05781657
0.8420634119284025	320345096.7712209
0.8422739277813847	319671408.5487216
0.8424844962633302	322769201.84805393
0.842695117387396	325867769.5957072
0.8429057911667428	328967111.98529744
0.8431165176145345	332067229.21048665
0.8433272967439382	328510223.0113256
0.8435381285681244	308711866.995898
0.8437490131002665	288908561.391471
0.8439599503535415	269100304.9606553
0.84417094034113	249287096.4657175
0.8443819830762154	230063104.20529887
0.8445930785719846	222803902.0562772
0.8448042268416277	215542885.10672224
0.8450154278983382	208280052.90293083
0.8452266817553128	201015404.99108905
0.8454379884257517	193748940.91726846
0.8456493479228583	192492324.4769333
0.845860760259839	192683074.8846408
0.846072225449904	192873872.97995025
0.8462837435062666	193064718.77478355
0.8464953144421433	193255612.28106567
0.8467069382707537	194600770.46157882
0.8469186150053215	196845941.59677032
0.847130344659073	199091674.02474627
0.8473421272452377	201337967.885827
0.8475539627770492	203584823.3203753
0.8477658512677435	206150819.67803454
0.8479777927305605	209393918.53445625
0.8481897871787432	212637828.16559127
0.848401834625538	215882548.77413592
0.8486139350841944	219128080.56283066
0.8488260885679657	222254463.55101767
0.8490382950901076	223919356.08463892
0.8492505546638802	225584664.84139442
0.8494628673025462	227250389.92533854
0.8496752330193721	228916531.44055608
0.8498876518276269	230583089.4911502
0.8501001237405839	231466984.4681376
0.8503126487715191	232194783.95502865
0.850525226933712	232922765.39179105
0.8507378582404455	233650928.8239126
0.8509505427050057	234379274.2968926
0.8511632803406821	235152605.36616606
0.8513760711607672	235956811.96823007
0.8515889151785576	236761219.62194583
0.8518018124073523	237565828.37757435
0.8520147628604541	238370638.28539133
0.8522277665511693	239548791.9421743
0.8524408234928071	241417322.17274907
0.8526539336986805	243286319.53588203
0.8528670971821053	245155784.14835584
0.8530803139564007	247025716.1269806
0.8532935840348901	248921000.9528197
0.8535069074308987	251026929.2171144
0.8537202841577566	253133383.96347693
0.8539337142287962	255240365.32352626
0.8541471976573534	257347873.42891434
0.8543607344567677	259455908.41132912
0.8545743246403821	259965991.72767472
0.8547879682215422	260222345.88159025
0.8550016652135977	260478764.1240442
0.8552154156299011	260735246.47105882
0.8554292194838088	260991792.93866035
0.8556430767886797	261118174.21815202
0.855856987557877	261165515.28654978
0.8560709518047664	261212868.1902146
0.8562849695427177	261260232.93210536
0.8564990407851035	261307609.5151816
0.8567131655452999	261231114.20521197
0.8569273438366862	260951612.13367194
0.8571415756726455	260672040.186614
0.8573558610665638	260392398.34656918
0.8575702000318304	260112686.59606466
0.8577845925818384	260343304.47896016
0.857999038729984	263762123.7092356
0.8582135384896665	267181797.64431784
0.858428091874289	270602326.49788404
0.8586426988972576	274023710.4836627
0.8588573595719821	277445949.815439
0.8590720739118751	279005686.6107676
0.8592868419303532	280346117.85304934
0.8595016636408359	281686884.2031417
0.8597165390567462	283027985.7448211
0.8599314681915105	284369422.56188625
0.8601464510585584	285456321.4449451
0.860361487671323	286408207.08787256
0.8605765780432408	287360330.7022105
0.8607917221877518	288312692.3474527
0.8610069201182988	289265292.08310604
0.8612221718483286	291162140.4980589
0.8614374773912907	294420382.0562399
0.8616528367606385	297679438.17480963
0.8618682499698288	300939309.057411
0.8620837170323213	304199994.90773255
0.8622992379615795	306944987.8930817
0.8625148127710699	307134666.73818576
0.8627304414742627	307324393.0030011
0.8629461240846313	307514166.69938266
0.8631618606156526	307703987.8391884
0.8633776510808066	307893856.43427896
0.8635934954935769	309973598.71340656
0.8638093938674504	312208773.4011095
0.8640253462159173	314444506.8824843
0.8642413525524714	316680799.29722947
0.8644574128906095	318917650.7850778
0.8646735272438323	317624447.25907737
0.8648896956256433	314689086.98809487
0.8651059180495498	311752992.8770444
0.8653221945290621	308816164.74246895
0.8655385250776946	305878602.4008558
0.8657549097089641	306236715.9390548
0.8659713484363913	310815048.78635377
0.8661878412735006	315394526.2168667
0.866404388233819	319975148.5167366
0.8666209893308775	324556915.9721794
0.8668376445782103	328524863.1235424
0.8670543539893549	329983814.87099266
0.8672711175778525	331443131.3563808
0.8674879353572469	332902812.6708886
0.8677048073410862	334362858.90572566
0.8679217335429217	335823270.15212226
0.8681387139763074	333510917.7784387
0.8683557486548015	331010547.89460146
0.8685728375919655	328509552.91829014
0.8687899808013633	326007932.6932402
0.8690071782965637	323505687.0631308
0.869224430091138	323605691.66807574
0.8694417361986609	324764828.145342
0.8696590966327107	325924254.4067274
0.869876511406869	327083970.52467805
0.8700939805347206	328243976.5716577
0.8703115040298544	329915081.14869523
0.870529081905862	332170605.42140996
0.8707467141763385	334426693.5751922
0.8709644008548827	336683345.75101274
0.8711821419550964	338940562.0898758
0.8713999374905854	341527360.6537092
0.871617787474958	345250360.91855377
0.8718356919218269	348974291.93346786
0.8720536508448075	352699153.931136
0.8722716642575187	356424947.14430135
0.8724897321735832	360151671.8057717
0.8727078546066265	363743060.7424902
0.8729260315702784	367333274.4521941
0.873144263078171	370924385.71532166
0.8733625491439405	374516394.75626534
0.8735808897812266	378109301.79947066
0.8737992850036719	379179768.830714
0.874017734824923	379356778.56523466
0.8742362392586293	379533832.5521889
0.874454798318444	379710930.80263984
0.8746734120180236	379888073.3276534
0.8748920803710283	380715655.2053576
0.875110803391121	382197029.0469072
0.8753295810919689	383678773.2319179
0.875548413487242	385160887.8529749
0.8757673005906139	386643373.0026872
0.8759862424157616	389201380.3594395
0.8762052389763657	394871029.0707292
0.8764242902861098	400542095.1941927
0.8766433963586814	406214579.08418864
0.8768625572077712	411888481.0951588
0.8770817728470732	417536691.2059114
0.8773010432902849	421069603.6388391
0.8775203685511077	424603399.2998802
0.8777397486432454	428138078.4098321
0.8779591835804065	431673641.1895658
0.8781786733763015	435210087.85998976
0.8783982180446457	435489003.41993886
0.878617817599157	434798671.08463717
0.8788374720535569	434108166.1662519
0.8790571814215703	433417488.6216373
0.8792769457169257	432726638.40763646
0.879496764953355	432642415.8100192
0.8797166391445934	433103725.5078289
0.8799365683043796	433565150.53306305
0.8801565524464557	434026690.9145535
0.8803765915845676	434488346.6811398
0.8805966857324639	435359237.3805621
0.880816834903897	437257931.3851136
0.881037039112623	439157100.0631669
0.8812572983724012	441056743.5333896
0.8814776126969944	442956861.9144807
0.8816979821001687	444862935.4961023
0.8819184065956938	446898489.74237716
0.8821388861973429	448934552.8772157
0.8823594209188923	450971125.02783597
0.882580010774122	453008206.321493
0.8828006557768155	455045796.88547456
0.8830213559407598	461132039.93129057
0.8832421112797452	468237953.6150986
0.8834629218075651	475345643.77732325
0.8836837875380171	482455110.86209065
0.8839047084849018	489566355.31363034
0.884125684662023	489399373.14167374
0.8843467160831886	483398355.4333987
0.8845678027622095	477395837.4706966
0.8847889447129001	471391818.8785028
0.8850101419490785	465386299.2816619
0.8852313944845657	451777314.5677972
0.885452702333187	421525161.373091
0.8856740655087704	391265445.1400906
0.8858954840251476	360998163.97804004
0.8861169578961539	330723315.995713
0.886338487135628	301948809.81575507
0.886560071757412	293233488.6814398
0.8867817117753515	284515988.7168412
0.8870034072032955	275796309.3772475
0.8872251580550963	267074450.1178291
0.8874469643446101	258350410.3935905
0.8876688260856963	258833689.90115795
0.8878907432922178	261223114.33026695
0.8881127159780409	263613136.11548167
0.8883347441570356	266003755.40614557
0.8885568278430749	268394972.35162964
0.8887789670500358	271202774.39870113
0.8890011617917983	274306368.82151955
0.8892234120822464	277410739.14294505
0.8894457179352669	280515885.5569484
0.8896680793647509	283621808.25755775
0.8898904963845921	287778297.719413
0.8901129690086883	293938853.79248923
0.8903354972509405	300100950.0045822
0.8905580811252535	306264586.740733
0.8907807206455347	312429764.3860596
0.8910034158256963	318303038.6899546
0.8912261666796527	321555277.20475954
0.8914489732213227	324808328.77919406
0.8916718354646282	328062193.6165255
0.8918947534234944	331316871.920063
0.8921177271118502	334572363.89317447
0.8923407565436284	333381650.72499317
0.8925638417327644	331465210.157149
0.8927869826931977	329548290.4791622
0.8930101794388711	327630891.5712561
0.8932334319837308	325713013.3136233
0.8934567403417267	324630172.50362533
0.8936801045268123	324066236.3945549
0.8939035245529441	323502159.3014576
0.8941270004340824	322937941.18908674
0.894350532184191	322373582.022188
0.8945741198172371	323284754.7707695
0.8947977633471915	326643382.96801555
0.8950214627880284	330002850.8223108
0.8952452181537254	333363158.5435676
0.8954690294582639	336724306.34175676
0.8956928967156286	340190122.0550733
0.8959168199398075	344330608.5428445
0.8961407991447926	348472130.1522386
0.8963648343445789	352614687.14203495
0.896588925553165	356758279.77107644
0.8968130727845534	360902908.29827565
0.8970372760527496	365366623.9363803
0.8972615353717629	369871250.0826687
0.8974858507556059	374377002.3854942
0.8977102222182949	378883881.1263941
0.8979346497738496	383391886.5869818
0.8981591334362931	388499319.08090425
0.8983836732196523	393935224.6522857
0.8986082691379572	399372489.2000564
0.8988329212052417	404811113.063964
0.8990576294355432	410251096.5838423
0.8992823938429022	415548081.40147376
0.8995072144413631	420631747.4263808
0.8997320912449734	425716684.36779225
0.8999570242677847	430802892.5434379
0.9001820135238516	435890372.2711278
0.9004070590272328	440927812.7874839
0.9006321607919896	445697522.47048765
0.9008573188321878	450468424.58091706
0.9010825331618959	455240519.4168717
0.9013078037951865	460013807.2765362
0.9015331307461353	464788288.458163
0.9017585140288219	466094356.4620587
0.9019839536573292	467101904.7562307
0.9022094496457435	468109704.93747556
0.9024350020081551	469117757.06876683
0.9026606107586572	470126061.21309054
0.902886275911347	472071959.7132
0.9031119974803249	474470208.9118323
0.9033377754796951	476869057.67276424
0.903563609923565	479268506.14588535
0.903789500826046	481668554.4811264
0.9040154482012526	484872445.51478827
0.904241452063303	489117668.28646564
0.9044675124263188	493363952.36383504
0.9046936293044254	497611298.01222306
0.9049198027117517	501859705.4970253
0.9051460326624297	505375039.39884144
0.9053723191705955	505765131.6016526
0.9055986622503881	506155321.3275141
0.9058250619159507	506545608.60080713
0.9060515181814298	506935993.4459187
0.9062780310609752	507326475.88724124
0.9065046005687405	509410278.5239155
0.906731226718883	511589061.99265295
0.9069579095255627	513768390.1572547
0.907184649002944	515948263.15389776
0.907411445165195	518128681.1187922
0.9076382980264862	522719108.3197371
0.907865207600993	528311329.11878693
0.9080921739028933	533904947.973035
0.9083191969463691	539499965.2319956
0.9085462767456058	545096381.2452737
0.9087734133147922	549607893.1405678
0.9090006066681211	552865839.2274647
0.909227856819788	556124599.8008789
0.9094551637839932	559384175.064441
0.9096825275749393	562644565.2218179
0.9099099482068329	565947105.7304218
0.9101374256938848	569397378.0825121
0.9103649600503083	572848513.0026888
0.9105925512903209	576300510.706595
0.9108201994281437	579753371.4099306
0.9110479044780008	583207095.3284382
0.9112756664541204	588773717.307659
0.911503485370734	594390075.042706
0.9117313612420768	600007836.8671869
0.9119592940823873	605627003.1321222
0.912187283905908	611247574.1886253
0.9124153307268845	614633690.3506746
0.9126434345595664	617209166.5377837
0.9128715954182063	619785286.5939373
0.9130998133170609	622362050.6801062
0.9133280882703902	624939458.9572964
0.913556420292458	630093977.0346849
0.9137848093975312	637906930.600781
0.9140132555998806	645721837.4052677
0.9142417589137806	653538697.936456
0.9144703193535092	661357512.6827822
