#wavelength	surface flux
0.8	2418689.758191034
0.8002000000000001	2451276.766123928
0.8004000500000003	2485444.313528152
0.8006001500125003	2519636.2855338547
0.8008003000500035	2553836.8055325616
0.8010005001250161	2588045.8756612837
0.8012007502500472	2622263.498057489
0.8014010504376099	2654664.172228311
0.8016014007002193	2686461.4589574123
0.8018018010503944	2718266.695008195
0.8020022515006572	2750079.8823680053
0.8022027520635323	2781901.023024628
0.8024033027515483	2815251.4926917274
0.8026039035772362	2850101.186934637
0.8028045545531306	2884959.593601109
0.8030052556917691	2919826.7148692645
0.803206007005692	2954702.5529177063
0.8034068085074435	2989554.9120887714
0.8036076602095705	3024325.7290898794
0.8038085621246229	3059105.2387952106
0.8040095142651542	3093893.4433779893
0.8042105166437206	3128690.3450119025
0.8044115692728815	3163481.137894124
0.8046126721651998	3197643.7112902286
0.8048138253332411	3231814.825329655
0.8050150287895745	3265994.482147623
0.805216282546772	3300182.683879786
0.8054175866174087	3334379.432662364
0.8056189410140631	3368411.8385016657
0.8058203457493168	3402403.81275602
0.8060218008357541	3436404.285003894
0.8062233062859632	3470413.257369847
0.8064248621125346	3504430.731978868
0.806626468328063	3540410.320766118
0.8068281249451449	3578076.818940523
0.8070298319763813	3615752.7337395176
0.8072315894343755	3653438.0675171837
0.8074333973317341	3691132.8226283086
0.8076352556810671	3725845.80348806
0.8078371644949874	3753367.149676314
0.8080391237861113	3780895.376201122
0.8082411335670578	3808430.484782544
0.8084431938504498	3835972.4771411405
0.8086453046489125	3863251.8592076586
0.8088474659750746	3885520.5323320217
0.8090496778415686	3907794.7726246957
0.809251940261029	3930074.5814774265
0.8094542532460944	3952359.9602823895
0.8096566168094059	3974650.9104320286
0.8098590309636085	4003609.8105728207
0.8100614957213493	4034135.3342350177
0.8102640110952797	4064668.4892781344
0.8104665770980536	4095209.2776100235
0.8106691937423283	4125757.7011390077
0.8108718610407639	4156827.1043854803
0.8110745790060241	4188296.801134379
0.8112773476507757	4219774.365307493
0.8114801669876885	4251259.798871641
0.8116830370294355	4282753.103794163
0.8118859577886929	4311487.588285624
0.8120889292781401	4334482.712482729
0.8122919515104597	4357483.585460882
0.8124950244983374	4380490.20865728
0.8126981482544621	4403502.583509474
0.8129013227915257	4427876.273480974
0.8131045481222237	4467777.449312687
0.8133078242592543	4507688.600438362
0.8135111512153191	4547609.729351808
0.813714529003123	4587540.838547488
0.8139179576353739	4627481.930520472
0.8141214371247829	4689494.001748755
0.8143249674840641	4755799.573789919
0.814528548725935	4822121.722224053
0.8147321808631167	4888460.451195385
0.8149358639083326	4954815.76484894
0.8151395978743097	5009783.020725836
0.8153433827737784	5057058.560672685
0.8155472186194719	5104345.919504503
0.8157511054241268	5151645.10017602
0.815955043200483	5198956.105642738
0.8161590319612831	5250137.886020204
0.8163630717192736	5308403.512126101
0.8165671624872033	5366683.704638461
0.8167713042778252	5424978.467199005
0.8169754971038948	5483287.803450218
0.8171797409781707	5528034.125864564
0.8173840359134155	5464397.519436137
0.8175883819223938	5400745.0038561765
0.8177927790178745	5337076.575147283
0.8179972272126291	5273392.229331197
0.8182017265194322	5209691.962428722
0.8184062769510622	5225236.064251868
0.8186108785203001	5252981.038203903
0.8188155312399301	5280732.948399387
0.8190202351227402	5308491.796572452
0.819224990181521	5336257.584457544
0.8194297964290664	5452272.896431496
0.8196346538781738	5621505.272395541
0.8198395625416434	5790779.95645351
0.8200445224322789	5960096.959182564
0.820249533562887	6129456.291162251
0.8204545959462778	6262638.295341408
0.8206597095952644	6337559.01776796
0.8208648745226633	6412498.4703751765
0.8210700907412941	6487456.6578455325
0.8212753582639793	6562433.584862681
0.8214806771035456	6630368.156947504
0.8216860472728215	6654814.738967093
0.8218914687846397	6679267.432632188
0.822096941651836	6703726.239470713
0.822302465887249	6728191.161010932
0.8225080415037209	6752662.198781551
0.8227136685140968	6777054.812531969
0.8229193469312254	6801443.92717694
0.8231250767679583	6825839.139100581
0.8233308580371503	6850240.4498271905
0.8235366907516598	6874647.860881499
0.8237425749243477	6954112.630103412
0.8239485105680789	7062775.399133357
0.824154497695721	7171465.333855491
0.824360536320145	7280182.441061326
0.8245666264542252	7388926.7275439575
0.8247727681108388	7479495.374597141
0.8249789613028664	7544016.791690543
0.8251852060431922	7608554.339138275
0.825391502344703	7673108.02097284
0.8255978502202894	7737677.841227922
0.8258042496828445	7802277.294704709
0.8260107007452654	7866958.416903497
0.8262172034204517	7931655.709382769
0.8264237577213068	7996369.176185177
0.8266303636607373	8061098.821354314
0.8268370212516525	8125844.648934712
0.8270437305069654	8161340.80104643
0.8272504914395923	8194558.890289833
0.8274573040624523	8227785.284055553
0.8276641683884679	8261019.984419687
0.8278710844305652	8294262.993458951
0.8280780522016729	8349164.659806557
0.8282850717147234	8413976.384888694
0.8284921429826521	8478804.312902033
0.8286992660183978	8543648.447897429
0.8289064408349024	8608508.793926526
0.8291136674451112	8667933.308609985
0.8293209458619727	8720497.922069706
0.8295282760984382	8773075.676682722
0.829735658167463	8825666.57573445
0.8299430920820048	8878270.622510875
0.8301505778550254	8931969.660024112
0.8303581154994891	8990000.061442973
0.8305657050283641	9048044.970462248
0.8307733464546212	9106104.390708733
0.8309810397912352	9164178.325810375
0.8311887850511829	9222266.779395675
0.8313965822474458	9322378.551718388
0.8316044313930077	9424465.20245141
0.8318123325008561	9526577.374847211
0.8320202855839813	9628715.075286062
0.8322282906553774	9730878.310150031
0.8324363477280413	9801518.285177315
0.8326444568149735	9859474.484358419
0.8328526179291771	9917445.172589248
0.8330608310836596	9975430.353492225
0.8332690962914304	10033430.03069035
0.8334774135655034	10074139.859911688
0.833685782918895	10095530.341728233
0.8338942043646247	10116926.17116522
0.834102677915716	10138327.349559583
0.834311203585195	10159733.878248526
0.8345197813860912	10192216.55160612
0.8347284113314379	10261972.670289652
0.8349370934342709	10331746.228002815
0.8351458277076294	10401537.229105322
0.8353546141645565	10471345.67795822
0.8355634528180977	10541171.578923304
0.8357723436813022	10577880.103619603
0.8359812867672226	10614188.674690707
0.8361902820889144	10650506.322904559
0.8363993296594368	10686833.050530475
0.8366084294918518	10723168.85983831
0.8368175815992247	10816273.619215433
0.8370267859946247	10928950.335662417
0.8372360426911234	11041655.221288476
0.8374453517017962	11154388.283135932
0.8376547130397217	11267149.528248835
0.8378641267179816	11357919.43306491
0.8380735927496613	11426862.931998175
0.8382831111478488	11495823.666806132
0.8384926819256358	11564801.641797753
0.8387023050961173	11633796.861283183
0.8389119806723914	11699575.291333145
0.8391217086675596	11756268.52562727
0.8393314890947265	11812975.933229925
0.8395413219670003	11869697.517684488
0.8397512072974922	11926433.282535203
0.8399611450993165	11982919.642717065
0.8401711353855914	12026330.408317598
0.8403811781694378	12069752.02660952
0.8405912734639802	12113184.500306025
0.8408014212823464	12156627.832120975
0.8410116216376671	12200082.024768872
0.8412218745430766	12252179.108148241
0.8414321800117124	12306800.802610323
0.8416425380567154	12361436.152496047
0.8418529486912297	12416085.161219254
0.8420634119284025	12470747.832194598
0.8422739277813847	12605518.177270422
0.8424844962633302	12810888.144308202
0.842695117387396	13016309.45383748
0.8429057911667428	13221782.118694149
0.8431165176145345	13427306.15171713
0.8433272967439382	13563090.875171768
0.8435381285681244	13528670.697521918
0.8437490131002665	13494241.914827662
0.8439599503535415	13459804.524937756
0.84417094034113	13425358.525700351
0.8443819830762154	13397058.724220823
0.8445930785719846	13492741.00644485
0.8448042268416277	13588447.209239377
0.8450154278983382	13684177.338584593
0.8452266817553128	13779931.400462136
0.8454379884257517	13875709.400855161
0.8456493479228583	14026538.658779087
0.845860760259839	14190656.86233807
0.846072225449904	14354816.095447943
0.8462837435062666	14519016.368366128
0.8464953144421433	14683257.691352637
0.8467069382707537	14806130.611262636
0.8469186150053215	14896756.844435414
0.847130344659073	14987405.73416651
0.8473421272452377	15078077.286119951
0.8475539627770492	15168771.505961472
0.8477658512677435	15249532.639471011
0.8479777927305605	15309174.218139414
0.8481897871787432	15368830.70720247
0.848401834625538	15428502.110387826
0.8486139350841944	15488188.43142394
0.8488260885679657	15535545.755009916
0.8490382950901076	15432446.927056879
0.8492505546638802	15329322.324396802
0.8494628673025462	15226171.940586096
0.8496752330193721	15122995.769179286
0.8498876518276269	15019793.803729763
0.8501001237405839	14338930.26715651
0.8503126487715191	13542590.269956887
0.850525226933712	12746051.187758405
0.8507378582404455	11949312.970789382
0.8509505427050057	11152375.569265652
0.8511632803406821	10547770.859593153
0.8513760711607672	10074864.11236601
0.8515889151785576	9601839.138451325
0.8518018124073523	9128695.908293558
0.8520147628604541	8655434.39232853
0.8522277665511693	8515487.402077109
0.8524408234928071	8992149.160316993
0.8526539336986805	9468930.083996564
0.8528670971821053	9945830.202907085
0.8530803139564007	10422849.546846772
0.8532935840348901	10968866.352316862
0.8535069074308987	12096731.314343384
0.8537202841577566	13224878.242611358
0.8539337142287962	14353307.207611527
0.8541471976573534	15482018.279852241
0.8543607344567677	16611011.52986122
0.8545743246403821	17019224.32183949
0.8547879682215422	17313026.16791334
0.8550016652135977	17606901.464448676
0.8552154156299011	17900850.22980816
0.8554292194838088	18194872.482359197
0.8556430767886797	18397583.292995006
0.855856987557877	18544858.254844304
0.8560709518047664	18692170.03543397
0.8562849695427177	18839518.643968843
0.8564990407851035	18986904.089655887
0.8567131655452999	19113525.485186733
0.8569273438366862	19206095.572937045
0.8571415756726455	19298688.80320931
0.8573558610665638	19391305.18178918
0.8575702000318304	19483944.71446359
0.8577845925818384	19583850.60569959
0.857999038729984	19729025.160770614
0.8582135384896665	19874236.00948037
0.858428091874289	20019483.16090231
0.8586426988972576	20164766.624112066
0.8588573595719821	20310086.408187676
0.8590720739118751	20354720.782670088
0.8592868419303532	20387490.921698954
0.8595016636408359	20420269.253262576
0.8597165390567462	20453055.779409077
0.8599314681915105	20485850.502187125
0.8601464510585584	20237170.70218443
0.860361487671323	19839019.66861507
0.8605765780432408	19440769.09728743
0.8607917221877518	19042418.963316634
0.8610069201182988	18643969.241812453
0.8612221718483286	17900702.55054578
0.8614374773912907	16660293.32137602
0.8616528367606385	15419573.989899306
0.8618682499698288	14178544.478588935
0.8620837170323213	12937204.709900944
0.8622992379615795	11905617.74141833
0.8625148127710699	11913294.852948986
0.8627304414742627	11920973.883757524
0.8629461240846313	11928654.834323766
0.8631618606156526	11936337.70512765
0.8633776510808066	11944022.496649234
0.8635934954935769	12338432.50491083
0.8638093938674504	12764641.523651674
0.8640253462159173	13190957.094647191
0.8642413525524714	13617379.244535448
0.8644574128906095	14043907.999961086
0.8646735272438323	14297923.754123887
0.8648896956256433	14471730.099607121
0.8651059180495498	14645579.896676736
0.8653221945290621	14819473.156195452
0.8655385250776946	14993409.889029292
0.8657549097089641	15262681.136270788
0.8659713484363913	15654013.16739748
0.8661878412735006	16045443.031532137
0.866404388233819	16436970.753132772
0.8666209893308775	16828596.35666363
0.8668376445782103	17135142.090115942
0.8670543539893549	17094110.714502588
0.8672711175778525	17053069.0810453
0.8674879353572469	17012017.187179692
0.8677048073410862	16970955.030340604
0.8679217335429217	16929882.607962284
0.8681387139763074	17118075.38963873
0.8683557486548015	17317705.04083677
0.8685728375919655	17517384.599447854
0.8687899808013633	17717114.07794816
0.8690071782965637	17916893.488818347
0.869224430091138	17895662.65039215
0.8694417361986609	17784477.39070904
0.8696590966327107	17673264.334711034
0.869876511406869	17562023.475449022
0.8700939805347206	17450754.80597225
0.8703115040298544	17396806.463592026
0.870529081905862	17408410.153220177
0.8707467141763385	17420016.743770726
0.8709644008548827	17431626.235968918
0.8711821419550964	17443238.630540147
0.8713999374905854	17452601.634936206
0.871617787474958	17454193.534537263
0.8718356919218269	17455785.832113218
0.8720536508448075	17457378.527763568
0.8722716642575187	17458971.62158783
0.8724897321735832	17460565.113685552
0.8727078546066265	17673747.275285415
0.8729260315702784	17890201.684121642
0.873144263078171	18106710.20655984
0.8733625491439405	18323272.856128674
0.8735808897812266	18539889.646359984
0.8737992850036719	18542961.32539928
0.874017734824923	18470380.424721252
0.8742362392586293	18397781.37881808
0.874454798318444	18325164.18315344
0.8746734120180236	18252528.83318989
0.8748920803710283	18214922.95475763
0.875110803391121	18212527.20380242
0.8753295810919689	18210130.853909474
0.875548413487242	18207733.90492905
0.8757673005906139	18205336.356711384
0.8759862424157616	18373593.5502016
0.8762052389763657	19035692.091137074
0.8764242902861098	19697956.156707324
0.8766433963586814	20360385.788294144
0.8768625572077712	21022981.027289063
0.8770817728470732	21677350.520886976
0.8773010432902849	21676704.72066325
0.8775203685511077	21676058.75898947
0.8777397486432454	21675412.63582527
0.8779591835804065	21674766.351130277
0.8781786733763015	21674119.904864114
0.8783982180446457	21279482.83306243
0.878617817599157	20767542.30322132
0.8788374720535569	20255473.78824799
0.8790571814215703	19743277.25614605
0.8792769457169257	19230952.67491107
0.879496764953355	19040705.528313875
0.8797166391445934	19140094.74145781
0.8799365683043796	19239508.801905036
0.8801565524464557	19338947.715867374
0.8803765915845676	19438411.489558294
0.8805966857324639	19543177.68931662
0.880816834903897	19661225.729508683
0.881037039112623	19779303.28171084
0.8812572983724012	19897410.353301037
0.8814776126969944	20015546.951659184
0.8816979821001687	20133265.65438517
0.8819184065956938	20240481.21441506
0.8821388861973429	20347723.57833506
0.8823594209188923	20454992.75284594
0.882580010774122	20562288.744650397
0.8828006557768155	20669611.560452867
0.8830213559407598	20959289.673872024
0.8832421112797452	21294897.66701281
0.8834629218075651	21630589.562151685
0.8836837875380171	21966365.380264442
0.8839047084849018	22302225.142331783
0.884125684662023	22294098.685549673
0.8843467160831886	22010241.88766514
0.8845678027622095	21726314.12558114
0.8847889447129001	21442315.381556567
0.8850101419490785	21158245.637846034
0.8852313944845657	21429476.492337853
0.885452702333187	22916415.5044762
0.8856740655087704	24403726.251367368
0.8858954840251476	25891408.825944856
0.8861169578961539	27379463.3211653
0.886338487135628	28691395.471681654
0.886560071757412	27654973.37645463
0.8867817117753515	26618292.175703824
0.8870034072032955	25581351.804652363
0.8872251580550963	24544152.198509358
0.8874469643446101	23506693.292464174
0.8876688260856963	23328396.520572204
0.8878907432922178	23327923.46780995
0.8881127159780409	23327450.2967845
0.8883347441570356	23326977.007466298
0.8885568278430749	23326503.599825766
0.8887789670500358	23056971.345995124
0.8890011617917983	22596508.538717825
0.8892234120822464	22135930.615738504
0.8894457179352669	21675237.548278812
0.8896680793647509	21214429.307551887
0.8898904963845921	20870284.905201353
0.8901129690086883	20748871.94986484
0.8903354972509405	20627428.641289517
0.8905580811252535	20505954.97188696
0.8907807206455347	20384450.934067212
0.8910034158256963	20266433.391036805
0.8912261666796527	20179816.49087703
0.8914489732213227	20093177.936492186
0.8916718354646282	20006517.722468667
0.8918947534234944	19919835.843391724
0.8921177271118502	19833132.293845065
0.8923407565436284	19261219.031607427
0.8925638417327644	18610015.42936816
0.8927869826931977	17958649.02622812
0.8930101794388711	17307119.78148734
0.8932334319837308	16655427.654435473
0.8934567403417267	16254392.162481679
0.8936801045268123	16009111.241797572
0.8939035245529441	15763769.000883462
0.8941270004340824	15518365.424409028
0.894350532184191	15272900.497040536
0.8945741198172371	15713204.101572907
0.8947977633471915	17290984.859717697
0.8950214627880284	18869160.06305196
0.8952452181537254	20447729.810186118
0.8954690294582639	22026694.199758008
0.8956928967156286	23552956.147759605
0.8959168199398075	24735017.860456284
0.8961407991447926	25917375.088581443
0.8963648343445789	27100027.906013597
0.896588925553165	28282976.386649445
0.8968130727845534	29466220.604405597
0.8970372760527496	29363252.73418551
0.8972615353717629	29099291.075936764
0.8974858507556059	28835263.427273426
0.8977102222182949	28571169.771697994
0.8979346497738496	28307010.09270852
0.8981591334362931	28357710.65576714
0.8983836732196523	28580649.67254105
0.8986082691379572	28803644.424069006
0.8988329212052417	29026694.924284846
0.8990576294355432	29249801.18712593
0.8992823938429022	29349221.44912521
0.8995072144413631	29264678.268356204
0.8997320912449734	29180113.951792035
0.8999570242677847	29095528.494148746
0.9001820135238516	29010921.890141036
0.9004070590272328	29075338.46398585
0.9006321607919896	29921112.365671195
0.9008573188321878	30767097.71083282
0.9010825331618959	31613294.552330326
0.9013078037951865	32459702.943038348
0.9015331307461353	33306322.935843598
0.9017585140288219	34737201.815005615
0.9019839536573292	36218743.91577302
0.9022094496457435	37700656.40206455
0.9024350020081551	39182939.36647932
0.9026606107586572	40665592.90163473
0.902886275911347	41156965.21990454
0.9031119974803249	41170415.149608105
0.9033377754796951	41183868.44179409
0.903563609923565	41197325.097303115
0.903789500826046	41210785.11697602
0.9040154482012526	40794653.287419684
0.904241452063303	39821914.334843256
0.9044675124263188	38848932.1975289
0.9046936293044254	37875706.81468036
0.9049198027117517	36902238.12548564
0.9051460326624297	36122635.6914261
0.9053723191705955	36169402.28542137
0.9055986622503881	36216180.571065105
0.9058250619159507	36262970.55128025
0.9060515181814298	36309772.22899049
0.9062780310609752	36356585.60712011
0.9065046005687405	37201952.245304905
0.906731226718883	38092078.49769657
0.9069579095255627	38982427.28165016
0.907184649002944	39872998.652799815
0.907411445165195	40763792.66679317
0.9076382980264862	41727528.53396603
0.907865207600993	42721705.46536197
0.9080921739028933	43716130.94099047
0.9083191969463691	44710805.022987716
0.9085462767456058	45705727.77350595
0.9087734133147922	45715952.44334728
0.9090006066681211	44588553.89358276
0.909227856819788	43460873.49418228
0.9094551637839932	42332911.174680404
0.9096825275749393	41204666.864599004
0.9099099482068329	40374636.02089042
0.9101374256938848	40605255.94982409
0.9103649600503083	40835933.53373987
0.9105925512903209	41066668.787051596
0.9108201994281437	41297461.72417689
0.9110479044780008	41528312.3595362
0.9112756664541204	42904287.131016694
0.911503485370734	44306816.26475283
0.9117313612420768	45709696.0307724
0.9119592940823873	47112926.51673306
0.912187283905908	48516507.81031565
0.9124153307268845	48610188.46992031
0.9126434345595664	48228347.830811605
0.9128715954182063	47846411.73154348
0.9130998133170609	47464380.14825035
0.9133280882703902	47082253.05706141
0.913556420292458	46714605.30969802
0.9137848093975312	46361896.93480645
0.9140132555998806	46009100.3828212
0.9142417589137806	45656215.63169793
