#wavelength	surface flux
0.7	16303962.404586645
0.7001166666666666	16426682.060363472
0.7002333527777778	16438428.04803301
0.700350058336574	16450175.993367158
0.7004667833462966	16461925.896692177
0.7005835278101878	16473677.75833445
0.7007002917314895	16485431.57862031
0.7008170751134447	16497187.357876219
0.7009338779592968	16508945.096428663
0.7010507002722901	16480590.092801332
0.7011675420556689	16403413.438187774
0.701284403312678	16326223.920798572
0.7014012840465635	16249021.538489696
0.7015181842605713	16171806.289117113
0.701635103957948	16094578.170536358
0.701752043141941	16017337.18060252
0.701869001815798	15940083.317170247
0.7019859799827672	15807588.431904692
0.7021029776460976	15636635.784182185
0.7022199948090387	15465654.644351507
0.7023370314748403	15294645.007664265
0.7024540876467528	15123606.869370937
0.702571163328027	14952540.224721508
0.7026882585219152	14781445.068964181
0.7028053732316688	14610321.397347808
0.7029225074605406	14589100.536678478
0.7030396612117841	14625771.502340436
0.7031568344886527	14662448.579830011
0.7032740272944008	14699131.77016581
0.7033912396322832	14735821.074366685
0.7035084715055552	14772516.493451556
0.7036257229174727	14809218.028439622
0.7037429938712924	14845925.680350222
0.7038602843702709	14995401.415882172
0.7039775944176659	15164027.31858939
0.7040949240167356	15332681.325613791
0.7042122731707383	15501363.441639276
0.7043296418829335	15670073.67135086
0.7044470301565806	15838812.019434033
0.70456443799494	16007578.49057509
0.7046818654012724	16176373.08946144
0.7047993123788394	16093229.88881454
0.7049167789309024	16009783.688879192
0.7050342650607243	15926323.581243727
0.7051517707715678	15842849.56359036
0.7052692960666963	15759361.63360076
0.705386840949374	15675859.788956195
0.7055044054228656	15592344.027337389
0.7056219894904361	15527776.012762591
0.7057395931553511	15583696.607866924
0.705857216420877	15639626.523070483
0.7059748592902804	15695565.759926545
0.7060925217668288	15751514.319988806
0.70621020385379	15807472.204811068
0.7063279055544321	15863439.415947396
0.7064456268720246	15919415.954952333
0.7065633678098366	15983234.22347173
0.7066811283711383	16068633.701847192
0.7067989085592001	16154047.41346905
0.7069167083772933	16239475.360709457
0.7070345278286895	16324917.545941127
0.707152366916661	16410373.97153702
0.7072702256444803	16495844.639870413
0.7073881040154211	16581329.55331531
0.7075060020327569	16593030.889503656
0.7076239196997625	16497258.908324819
0.7077418570197124	16401470.965149213
0.7078598139958823	16305667.057316417
0.7079777906315483	16209847.182165556
0.7080957869299869	16114011.337035576
0.7082138028944751	16018159.519264793
0.7083318385282908	15922291.726190977
0.7084498938347124	15873767.735850418
0.708567968817018	15865388.247963859
0.7086860634784875	15857007.363495976
0.7088041778224007	15848625.082214007
0.7089223118520377	15840241.40388517
0.7090404655706796	15831856.328276617
0.709158638981608	15823469.855155451
0.709276832088105	15815081.984288765
0.7093950448934531	15869583.035668159
0.7095132774009353	15954086.242733205
0.7096315296138355	16038603.53366613
0.7097498015354378	16123134.910814185
0.7098680931690269	16207680.376525018
0.7099864045178884	16292239.933146909
0.7101047355853081	16376813.583028222
0.7102230863745722	16461401.328517789
0.7103414568889679	16313574.505656442
0.7104598471317828	16112909.775984155
0.7105782571063047	15912211.602190407
0.7106966868158224	15711479.978701035
0.710815136263625	15510714.899941122
0.7109336054530023	15309916.360334624
0.7110520943872445	15109084.354304928
0.7111706030696424	14908218.876274109
0.7112891315034873	14922517.089382268
0.7114076796920712	14947085.362205572
0.7115262476386865	14971657.729741015
0.7116448353466263	14996234.192671027
0.711763442819184	15020814.751678208
0.711882070059654	15045399.407445246
0.7120007170713306	15069988.160654897
0.7121193838575091	15103592.119785722
0.7122380704214853	15231185.22727793
0.7123567767665555	15358799.600287922
0.7124755028960166	15486435.242360145
0.7125942488131658	15614092.157039285
0.7127130145213015	15741770.34787122
0.7128318000237216	15869469.818401232
0.7129506053237256	15997190.572176516
0.7130694304246129	16072862.48133639
0.7131882753296837	15966491.479753966
0.7133071400422386	15860102.749671249
0.7134260245655789	15753696.288133591
0.7135449289030065	15647272.092185646
0.7136638530578235	15540830.158871764
0.7137827970333332	15434370.48523551
0.7139017608328388	15327893.068320343
0.7140207444596443	15251873.418947337
0.7141397479170543	15230206.391569156
0.7142587712083737	15208535.753019776
0.7143778143369084	15186861.502697287
0.7144968773059646	15165183.63999974
0.7146159601188489	15143502.164325085
0.7147350627788687	15121817.075071147
0.7148541852893318	15100128.371635675
0.7149733276535467	15130238.621397188
0.7150924898748222	15212590.44123118
0.715211671956468	15294955.986368496
0.7153308739017941	15377335.25909673
0.715450095714111	15459728.261703715
0.71556933739673	15542134.99647781
0.7156885989529628	15624555.465707693
0.7158078803861218	15706989.671682568
0.7159271816995193	15683249.349650003
0.7160465028964692	15597179.18306617
0.7161658439802853	15511094.671454579
0.7162852049542819	15424995.812424399
0.7164045858217744	15338882.603584329
0.716523986586078	15252755.04254282
0.7166434072505089	15166613.12690785
0.716762847818384	15080456.85428691
0.7168823082930204	15085939.415434018
0.7170017886777359	15118386.869726084
0.7171212889758488	15150839.731927179
0.7172408091906781	15183298.002938649
0.7173603493255433	15215761.683661966
0.7174799093837642	15248230.774998717
0.7175994893686615	15280705.277850704
0.7177190892835562	15313185.19311982
0.7178387091317702	15389040.800747333
0.7179583489166254	15469262.684160091
0.7180780086414448	15549497.937886814
0.7181976883095517	15629746.564155823
0.7183173879242699	15710008.565195883
0.718437107488924	15790283.943236135
0.7185568470068389	15870572.700506091
0.7186766064813399	15946865.571575822
0.7187963859157535	15922930.630951952
0.7189161853134061	15898991.701171314
0.719036004677625	15875048.781569041
0.7191558440117378	15851101.871480186
0.7192757033190732	15827150.970239613
0.7193955826029597	15803196.077182196
0.7195154818667269	15779237.191642582
0.7196354011137046	15739525.457542252
0.7197553403472235	15627296.559377158
0.7198752995706147	15515048.95639575
0.7199952787872098	15402782.645480437
0.720115278000341	15290497.62351331
0.7202352972133411	15178193.887375837
0.7203553364295432	15065871.43394918
0.7204753956522815	14953530.26011346
0.7205954748848902	14855090.86976426
0.7207155741307044	14787324.58809096
0.7208356933930594	14719547.0120375
0.7209558326752915	14651758.139721349
0.7210759919807375	14583957.969259722
0.7211961713127342	14516146.498769771
0.7213163706746197	14448323.726367965
0.7214365900697322	14380489.65017083
0.7215568295014103	14391494.905623084
0.721677088972994	14496584.089030014
0.7217973684878227	14601690.787300672
0.7219176680492374	14706815.003354497
0.7220379876605789	14811956.740110936
0.722158327325189	14917116.000490205
0.7222786870464099	15022292.787412817
0.7223990668275843	15127487.103799958
0.7225194666720555	15135790.662412053
0.7226398865831676	15075414.273624884
0.7227603265642646	15015027.822106395
0.722880786618692	14954631.30617919
0.7230012667497951	14894224.72416604
0.7231217669609201	14833808.07438921
0.7232422872554135	14773381.355170807
0.7233628276366229	14712944.564832428
0.7234833881078956	14603816.906017445
0.7236039686725803	14476188.839819273
0.7237245693340255	14348539.502276938
0.7238451900955812	14220868.889844775
0.7239658309605971	14093176.998977356
0.7240864919324239	13965463.826127958
0.7242071730144127	13837729.367749741
0.724327874209915	13709973.620295398
0.7244485955222832	13721431.596692035
0.7245693369548704	13755912.81639952
0.7246900985110294	13790399.782976907
0.7248108801941148	13824892.497382147
0.7249316820074803	13859390.960573006
0.7250525039544815	13893895.173507785
0.7251733460384739	13928405.137144728
0.7252942082628137	13962748.380761227
0.7254150906308574	13897161.79358491
0.7255359931459625	13831564.275310721
0.7256569158114868	13765955.824116802
0.7257778586307888	13700336.438180983
0.7258988216072273	13634706.115680862
0.7260198047441617	13569064.85479373
0.7261408080449525	13503412.653696336
0.72626183151296	13431484.045365753
0.7263828751515454	13317905.837835241
0.7265039389640706	13204308.700603496
0.726625022953898	13090692.630515475
0.7267461271243904	12977057.624415718
0.7268672514789111	12863403.679148354
0.7269883960208241	12749730.791556876
0.7271095607534942	12636038.958484057
0.7272307456802866	12521917.564069094
0.7273519508045666	12406667.985399753
0.7274731761297006	12291399.198467355
0.7275944216590555	12176111.20007047
0.7277156873959987	12060803.987007145
0.7278369733438982	11945477.55607479
0.727958279506122	11830131.904070921
0.7280796058860397	11714767.027791578
0.7282009524870207	11622478.517327694
0.7283223193124353	11564335.579850512
0.7284437063656539	11506182.951883867
0.7285651136500483	11448020.631812468
0.7286865411689898	11389848.618021177
0.7288079889258514	11331666.908894112
0.7289294569240056	11273475.50281566
0.7290509451668262	11215274.398169462
0.7291724536576875	11189432.035100454
0.7292939823999636	11190406.103359446
0.7294155313970303	11191380.333963148
0.7295371006522632	11192354.726938618
0.7296586901690385	11193329.282312917
0.7297802999507332	11194304.00011311
0.7299019300007252	11195278.880366271
0.7300235803223919	11196253.923099473
0.7301452509191123	11181225.046446664
0.7302669417942654	11158806.669715261
0.7303886529512311	11136384.556587728
0.7305103843933897	11113958.706441335
0.7306321361241218	11091529.11865327
0.7307539081468093	11069095.792600533
0.7308757004648336	11046658.727660168
0.7309975130815778	11024217.923208952
0.7311193460004248	11008493.20172901
0.7312411992247582	10994287.141627753
0.7313630727579622	10980078.713849816
0.7314849666034219	10965867.91800057
0.7316068807645224	10951654.753685355
0.7317288152446498	10937439.220509417
0.7318507700471907	10923221.31807794
0.7319727451755319	10909001.045996064
0.732094740633061	10893859.09798122
0.7322167564231665	10878673.23886615
0.7323387925492371	10863484.84877456
0.7324608490146619	10848293.927284624
0.732582925822831	10833100.473974437
0.7327050229771347	10817904.48842205
0.7328271404809642	10802705.970205385
0.7329492783377112	10782697.398631163
0.7330714365507675	10715422.480206726
0.7331936151235259	10648136.3492959
0.7333158140593796	10580839.004029999
0.7334380333617229	10513530.442539785
0.7335602730339499	10446210.662955958
0.7336825330794556	10378879.663408853
0.7338048135016354	10311537.44202862
0.7339271143038857	10234536.253862033
0.734049435489603	10125195.677338785
0.7341717770621846	10015836.877386097
0.7342941390250283	9906459.850966807
0.7344165213815324	9797064.595043154
0.734538924135096	9687651.106576689
0.7346613472891185	9578219.382528955
0.734783790847	9468769.419860508
0.7349062548121412	9358579.444904817
0.7350287391879431	9247095.34589321
0.7351512439778078	9135592.666198205
0.7352737691851374	9024071.402723387
0.735396314813335	8912531.552371223
0.7355188808658037	8800973.112044185
0.7356414673459482	8689396.078643532
0.7357640742571725	8577800.449070724
0.7358867016028818	8500035.628527528
0.7360093493864824	8455687.190429496
0.7361320176113801	8411331.360925175
0.736254706280982	8366968.138782604
0.7363774153986956	8322597.522769617
0.7365001449679286	8278219.511654053
0.7366228949920899	8233834.104203266
0.7367456654745885	8189441.299184571
0.7368684564188344	8141550.391850865
0.7369912678282374	8091678.630637809
0.7371140997062088	8041798.55746453
0.7372369520561599	7991910.170945674
0.7373598248815024	7942013.469695845
0.7374827181856494	7892108.452329055
0.7376056319720137	7842195.117459369
0.7377285662440091	7792273.46370053
0.7378515210050496	7744240.747041769
0.7379744962585505	7696770.851957087
0.738097492007927	7649293.045223238
0.7382205082565949	7601807.325521628
0.738343545007971	7554313.691533411
0.7384666022654723	7506812.141939482
0.7385896800325165	7459302.675420691
0.7387127783125219	7411785.290657422
0.7388358971089073	7372053.371188259
0.7389590364250921	7333096.525577485
0.7390821962644963	7294133.187159079
0.7392053766305403	7255163.354850994
0.7393285775266454	7216187.02757083
0.7394517989562333	7177204.204236081
0.7395750409227259	7138214.883764173
0.7396983034295463	7099432.169001717
0.739821586480118	7065383.6459607985
0.7399448900778645	7031329.448166108
0.7400682142262109	6997269.57467168
0.740191558928582	6963204.024531707
0.7403149241884034	6929132.796800071
0.7404383100091014	6895055.890530471
0.7405617163941028	6860973.304776514
0.7406851433468352	6820439.168774655
0.7408085908707264	6750409.972844089
0.7409320589692048	6680369.105380903
0.7410555476456997	6610316.564439748
0.7411790569036406	6540252.348075155
0.7413025867464579	6470176.454341148
0.7414261371775823	6400088.881291499
0.7415497082004452	6329989.626979729
0.7416732998184786	6263982.896761202
0.741796912035115	6206769.498142093
0.7419205448537874	6149546.5639565615
0.7420441982779297	6092314.092615333
0.742167872310976	6035072.082528829
0.7422915669563612	5977820.532107312
0.7424152822175206	5920559.43976074
0.7425390180978901	5863288.803898812
0.7426627746009065	5808043.7931441385
0.7427865517300065	5755270.593112685
0.7429103494886282	5702488.5975478375
0.7430341678802096	5649697.80498377
0.7431580069081896	5596898.213954278
0.7432818665760077	5544089.822992873
0.7434057468871037	5491272.63063302
0.7435296478449182	5438446.635407803
0.7436535694528923	5386107.737487523
0.7437775117144678	5334099.5762992725
0.7439014746330868	5282082.747084236
0.7440254582121922	5230057.2483976185
0.7441494624552276	5178023.078794532
0.7442734873656368	5125980.236829857
0.7443975329468645	5073928.721058146
0.7445215992023557	5021868.530033812
0.7446456861355559	4969430.603089019
0.7447697937499119	4916847.984871465
0.7448939220488703	4864256.60288422
0.7450180710358784	4811656.455666691
0.7451422407143843	4759047.541757952
0.7452664310878367	4706429.8596968455
0.7453906421596846	4653803.40802212
0.7455148739333779	4601168.185272097
0.7456391264123667	4549408.802612316
0.7457633996001021	4497782.238056282
0.7458876935000356	4446147.069072729
0.7460120081156189	4394503.294227777
0.7461363434503048	4342850.912086994
0.7462606995075466	4291189.921215807
0.7463850762907978	4239520.320179553
0.7465094738035127	4187845.0451923246
0.7466338920491467	4136929.630340575
0.746758331031155	4086005.7295862995
0.7468827907529935	4035073.3415152924
0.7470072712181189	3984132.4647129383
0.7471317724299886	3933183.097764441
0.7472562943920602	3882225.239254821
0.7473808371077922	3831258.887768738
0.7475054005806435	3780534.8143027574
0.7476299848140736	3731346.9465357605
0.7477545898115426	3682150.880790792
0.7478792155765113	3632946.6157015203
0.7480038621124406	3583734.1499014394
0.7481285294227926	3534513.4820237365
0.7482532175110298	3485284.610701335
0.7483779263806148	3436047.534567116
0.7485026560350116	3387808.7013752223
0.7486274064776842	3342285.745233713
0.748752177712097	3296755.20193293
0.7488769697417158	3251217.0702081663
0.749001782570006	3205671.3487948366
0.7491266162004343	3160118.0364279514
0.7492514706364677	3114557.131842318
0.7493763458815739	3068988.633772541
0.7495012419392209	3024047.5740690376
0.7496261588128773	2980011.9599697758
0.7497510965060128	2935969.006601467
0.7498760550220971	2891918.712740946
0.7500010343646007	2847861.077164775
0.7501260345369949	2803796.0986493197
0.750251055542751	2759723.775970828
0.7503760973853414	2715644.107905196
0.7505011600682389	2672683.275864382
0.750626243594917	2630655.6204346456
0.7507513479688495	2588620.960395735
0.7508764731935109	2546579.2945801364
0.7510016192723765	2504530.6218202254
0.7511267862089218	2462474.9409482265
0.7512519740066232	2420412.2507960666
0.7513771826689577	2378342.550195525
0.7515024121994025	2338700.16435663
0.7516276626014359	2300186.1912126383
0.751752933878536	2261665.7990731904
0.7518782260341824	2223138.986868373
0.7520035390718548	2184605.7535281708
0.7521288729950334	2146066.097982432
0.7522542278071992	2107520.0191607657
0.7523796035118337	2068967.5159926107
0.7525050001124189	2031843.585053682
0.7526304176124378	1995025.5466880833
0.7527558560153731	1958201.371982804
0.752881315324709	1921371.0599150383
0.7530067955439299	1884534.6094619147
0.7531322966765205	1847692.0196004312
0.7532578187259665	1810843.289307293
0.7533833616957542	1773988.4175591073
0.75350892558937	1739167.8187039052
0.7536345104103016	1704437.3625778563
0.7537601161620366	1669701.1180424711
0.7538857428480638	1634959.0841329629
0.7540113904718717	1600211.2598845146
0.7541370590369503	1565457.6443320327
0.7542627485467898	1530698.2365102703
0.7543884590048808	1496286.6655142305
0.7545141904147151	1465395.7982887044
0.7546399427797842	1434499.7825853573
0.7547657161035808	1403598.617546055
0.754891510389598	1372692.3023125809
0.7550173256413296	1341780.8360265556
0.7551431618622698	1310864.21782949
0.7552690190559135	1279942.4468627316
0.7553948972257561	1249553.1653802155
0.7555207963752938	1220963.484533986
0.755646716508023	1192369.0387409653
0.755772657627441	1163769.827206969
0.7558986197370455	1135165.849137713
0.756024602840335	1106557.103738786
0.7561506069408084	1077943.590215626
0.7562766320419653	1049325.3077735198
0.7564026781473054	1021450.3584793316
0.75652874526033	994887.2248088078
0.7566548333845401	968319.6639493253
0.7567809425234375	941747.6751630423
0.7569070726805247	915171.2577119768
0.7570332238593047	888590.4108580062
0.7571593960632813	862005.133862868
0.7572855892959586	835415.4259882291
0.7574118035608413	810819.262629765
0.7575380388614347	788173.6851675361
0.7576642952012449	765524.3334423885
0.7577905725837782	742871.2068253192
0.7579168710125422	720214.3046871069
0.7580431904910444	697553.6263985296
0.7581695310227928	674889.1713302662
0.7582958926112967	652220.9388527962
0.7584222752600652	631330.5573261576
0.7585486789726085	611460.1719293679
0.7586751037524372	591586.4748016712
0.7588015496030628	571709.4653910811
0.7589280165279966	551829.1431456285
0.7590545045307512	531945.5075131351
0.7591810136148396	512058.55794137
0.7593075437837755	492168.2938779803
0.7594340950410726	474451.863574982
0.7595606673902461	457364.15102396964
0.7596872608348112	440273.5905208484
0.7598138753782836	423180.18159099546
0.75994051102418	406083.9237596382
0.7600671677760173	388984.81655198906
0.7601938456373134	371882.8594931256
0.7603205446115863	354778.05210809526
0.7604472647023548	340054.41976970545
0.7605740059131385	325565.3053770808
0.7607007682474575	311073.7761320433
0.7608275517088319	296579.8316321638
0.7609543563007835	282083.4714748354
0.7610811820268336	267584.6952574896
0.7612080288905045	253083.50257746875
0.7613348968953197	238688.06970515772
0.7614617860448022	226509.78406899137
0.7615886963424764	214329.46871853573
0.7617156277918667	202147.12331553348
0.7618425803964988	189962.74752162068
0.7619695541598982	177776.34099841214
0.7620965490855914	165587.90340745874
0.7622235651771058	153397.43441022607
0.7623506024379685	141859.16579316734
0.7624776608717082	133186.54495038398
0.7626047404818536	124512.47867079312
0.7627318412719337	115836.9667135039
0.762858963245479	107160.00883754967
0.7629861064060198	98481.60480194868
0.7631132707570876	89801.75436566606
0.7632404563022137	81120.45728765185
0.7633676630449308	73390.03781144085
0.7634948909887717	67685.51256955724
0.7636221401372697	61980.03657347408
0.7637494104939593	56273.60966471952
0.7638767020623748	50566.23168482174
0.7640040148460518	44857.902475254145
0.7641313488485262	39148.62187748516
0.7642587040733344	33438.389732943404
0.7643860805240132	28979.278538111445
0.7645134782041005	26013.52217025273
0.7646408971171346	23047.27150966481
0.764768337266654	20080.52647396787
0.7648957986561985	17113.28698076403
0.7650232812893079	14145.552947645045
