#wavelength	surface flux
0.8	839496.3714791173
0.8002000000000001	852926.8897825166
0.8004000500000003	867101.4048277258
0.8006001500125003	881286.9446859567
0.8008003000500035	895476.0309291531
0.8010005001250161	909668.664443917
0.8012007502500472	923864.846117039
0.8014010504376099	937432.8976114315
0.8016014007002193	950792.7478771012
0.8018018010503944	964155.9381053372
0.8020022515006572	977522.4691311362
0.8022027520635323	990892.3417896802
0.8024033027515483	1005053.2023765908
0.8026039035772362	1019989.465032785
0.8028045545531306	1034929.461754644
0.8030052556917691	1049873.1934756907
0.803206007005692	1064820.6611296544
0.8034068085074435	1079772.9162380889
0.8036076602095705	1094731.8543613185
0.8038085621246229	1109694.532219067
0.8040095142651542	1124660.9507462892
0.8042105166437206	1139631.110878138
0.8044115692728815	1154607.3156593626
0.8046126721651998	1169686.2822708548
0.8048138253332411	1184769.018623988
0.8050150287895745	1199855.5256612233
0.805216282546772	1214945.804325214
0.8054175866174087	1230039.8555588624
0.8056189410140631	1244995.119514196
0.8058203457493168	1259913.7683353694
0.8060218008357541	1274836.1468187291
0.8062233062859632	1289762.255896717
0.8064248621125346	1304692.0965019644
0.806626468328063	1320426.666618493
0.8068281249451449	1336853.1299444567
0.8070298319763813	1353283.6998862722
0.8072315894343755	1369718.3774705608
0.8074333973317341	1386157.1637242518
0.8076352556810671	1401622.96169298
0.8078371644949874	1414740.5881123692
0.8080391237861113	1427861.4939383664
0.8082411335670578	1440985.6799908122
0.8084431938504498	1454113.1470897845
0.8086453046489125	1467134.0722580499
0.8088474659750746	1478113.5303074461
0.8090496778415686	1489095.7332213693
0.809251940261029	1500080.6816860132
0.8094542532460944	1511068.3763877826
0.8096566168094059	1522058.818013215
0.8098590309636085	1535420.5574447769
0.8100614957213493	1549340.0158243724
0.8102640110952797	1563262.9540685648
0.8104665770980536	1577189.3730473237
0.8106691937423283	1591119.2736308323
0.8108718610407639	1605335.3459727098
0.8110745790060241	1619771.129990224
0.8112773476507757	1634210.5229537555
0.8114801669876885	1648653.5257655238
0.8116830370294355	1663100.1393279869
0.8118859577886929	1676460.9706649205
0.8120889292781401	1687562.4234863122
0.8122919515104597	1698666.651670908
0.8124950244983374	1709773.6559125509
0.8126981482544621	1720883.4369052525
0.8129013227915257	1732532.9903017473
0.8131045481222237	1750334.1304602453
0.8133078242592543	1768139.7209037845
0.8135111512153191	1785949.76274493
0.813714529003123	1803764.2570965379
0.8139179576353739	1821583.2050717366
0.8141214371247829	1848357.2537710024
0.8143249674840641	1876873.6767875724
0.814528548725935	1905397.2289098797
0.8147321808631167	1933927.911920256
0.8149358639083326	1962465.727601376
0.8151395978743097	1986962.5056376662
0.8153433827737784	2008730.2929519292
0.8155472186194719	2030503.5222130131
0.8157511054241268	2052282.194781408
0.815955043200483	2074066.31201796
0.8161590319612831	2099198.016094958
0.8163630717192736	2130460.0687442245
0.8165671624872033	2161729.9369066185
0.8167713042778252	2193007.6225360837
0.8169754971038948	2224293.127586972
0.8171797409781707	2251270.600777104
0.8173840359134155	2243800.0252848333
0.8175883819223938	2236327.582148698
0.8177927790178745	2228853.270901775
0.8179972272126291	2221377.0910770376
0.8182017265194322	2213899.042207352
0.8184062769510622	2233133.2412537443
0.8186108785203001	2256483.156133344
0.8188155312399301	2279838.908491632
0.8190202351227402	2303200.4997880356
0.819224990181521	2326567.9314822485
0.8194297964290664	2364514.5872462764
0.8196346538781738	2411254.809952092
0.8198395625416434	2458006.717713565
0.8200445224322789	2504770.3134519984
0.820249533562887	2551545.600089352
0.8204545959462778	2591589.1768889893
0.8206597095952644	2620789.4384410214
0.8208648745226633	2649997.0000584642
0.8210700907412941	2679211.863566307
0.8212753582639793	2708434.0307899965
0.8214806771035456	2735165.4618343567
0.8216860472728215	2746512.595256673
0.8218914687846397	2757862.5654623453
0.822096941651836	2769215.373160575
0.822302465887249	2780571.019060723
0.8225080415037209	2791929.5038723517
0.8227136685140968	2803500.627722309
0.8229193469312254	2815098.460971868
0.8231250767679583	2826699.193679744
0.8233308580371503	2838302.8265707903
0.8235366907516598	2849909.3603700683
0.8237425749243477	2885891.2855573674
0.8239485105680789	2934800.054249991
0.824154497695721	2983721.0501347566
0.824360536320145	3032654.276268503
0.8245666264542252	3081599.73570878
0.8247727681108388	3122214.9158770097
0.8249789613028664	3150892.197280342
0.8251852060431922	3179576.6480040504
0.825391502344703	3208268.2698404267
0.8255978502202894	3236967.064582288
0.8258042496828445	3266028.963387624
0.8260107007452654	3296826.7236938654
0.8262172034204517	3327632.183440152
0.8264237577213068	3358445.3445513835
0.8266303636607373	3389266.208952906
0.8268370212516525	3420094.778570514
0.8270437305069654	3437620.1458646837
0.8272504914395923	3454109.733435479
0.8274573040624523	3470603.4434031714
0.8276641683884679	3487101.2767983405
0.8278710844305652	3503603.2346518785
0.8280780522016729	3529604.056296054
0.8282850717147234	3559951.405440433
0.8284921429826521	3590306.3414220666
0.8286992660183978	3620668.8661377197
0.8289064408349024	3651038.9814845305
0.8291136674451112	3678752.9689867557
0.8293209458619727	3703115.067072279
0.8295282760984382	3727483.255682291
0.829735658167463	3751857.5363394837
0.8299430920820048	3776237.9105668096
0.8301505778550254	3801088.1522867274
0.8303581154994891	3827795.658021592
0.8305657050283641	3854509.840632917
0.8307733464546212	3881230.7017898737
0.8309810397912352	3907958.2431621635
0.8311887850511829	3934692.466419744
0.8313965822474458	3981173.792816938
0.8316044313930077	4028582.9968404435
0.8318123325008561	4076004.053165
0.8320202855839813	4123436.964753614
0.8322282906553774	4170881.734570129
0.8324363477280413	4203899.536229997
0.8326444568149735	4231112.570582569
0.8328526179291771	4258332.408193697
0.8330608310836596	4285559.050764269
0.8332690962914304	4312792.499995448
0.8334774135655034	4332285.29247168
0.833685782918895	4343128.785188951
0.8338942043646247	4353974.988779394
0.834102677915716	4364823.903920744
0.834311203585195	4375675.531290868
0.8345197813860912	4391980.320792804
0.8347284113314379	4426635.908287823
0.8349370934342709	4461300.159679696
0.8351458277076294	4495973.077134375
0.8353546141645565	4530654.662818477
0.8355634528180977	4565344.918898984
0.8357723436813022	4585396.2367984075
0.8359812867672226	4605271.706856926
0.8361902820889144	4625152.1457829485
0.8363993296594368	4645037.554818708
0.8366084294918518	4664927.935206734
0.8368175815992247	4707886.995103317
0.8370267859946247	4758800.172316765
0.8372360426911234	4809726.077824501
0.8374453517017962	4860664.714808609
0.8376547130397217	4911616.086451957
0.8378641267179816	4954013.845450314
0.8380735927496613	4987922.157374313
0.8382831111478488	5021838.946376273
0.8384926819256358	5055764.214575466
0.8387023050961173	5089697.964091738
0.8389119806723914	5122181.553739643
0.8391217086675596	5150568.165395997
0.8393314890947265	5178961.873705246
0.8395413219670003	5207362.680441573
0.8397512072974922	5235770.587379605
0.8399611450993165	5264139.328892479
0.8401711353855914	5290217.539949425
0.8403811781694378	5316302.270559127
0.8405912734639802	5342393.5223514885
0.8408014212823464	5368491.29695681
0.8410116216376671	5394595.596005781
0.8412218745430766	5421329.520436734
0.8414321800117124	5448251.426202606
0.8416425380567154	5475180.062444934
0.8418529486912297	5502115.430846328
0.8420634119284025	5529057.5330898
0.8422739277813847	5590597.842598845
0.8424844962633302	5682629.966066424
0.842695117387396	5774685.097564752
0.8429057911667428	5866763.242845959
0.8431165176145345	5958864.40766353
0.8433272967439382	6022730.394171396
0.8435381285681244	6017682.752589153
0.8437490131002665	6012633.849096516
0.8439599503535415	6007583.683378009
0.84417094034113	6002532.255118068
0.8443819830762154	5999822.593384568
0.8445930785719846	6044312.781465595
0.8448042268416277	6088814.092093618
0.8450154278983382	6133326.528049292
0.8452266817553128	6177850.092113951
0.8454379884257517	6222384.787069633
0.8456493479228583	6289733.071971378
0.845860760259839	6362589.2994648
0.846072225449904	6435463.741015094
0.8462837435062666	6508356.401175791
0.8464953144421433	6581267.28450157
0.8467069382707537	6637906.920715222
0.8469186150053215	6681863.571484591
0.847130344659073	6725831.2114166645
0.8473421272452377	6769809.843258678
0.8475539627770492	6813799.469758696
0.8477658512677435	6853943.435987192
0.8479777927305605	6885908.333480508
0.8481897871787432	6917881.222198189
0.848401834625538	6949862.104138068
0.8486139350841944	6981850.981298412
0.8488260885679657	7008923.200438194
0.8490382950901076	6975972.388519151
0.8492505546638802	6943013.338897112
0.8494628673025462	6910046.049512679
0.8496752330193721	6877070.518305851
0.8498876518276269	6844086.743216267
0.8501001237405839	6560306.045944983
0.8503126487715191	6226392.579161169
0.850525226933712	5892395.634010844
0.8507378582404455	5558315.189624235
0.8509505427050057	5224151.2251263345
0.8511632803406821	4963225.458322593
0.8513760711607672	4752446.424636317
0.8515889151785576	4541614.696191293
0.8518018124073523	4330730.259814334
0.8520147628604541	4119793.1023284052
0.8522277665511693	4059799.7709619957
0.8524408234928071	4279041.327727588
0.8526539336986805	4498337.69488243
0.8528670971821053	4717688.886129076
0.8530803139564007	4937094.9151732735
0.8532935840348901	5186232.244702348
0.8535069074308987	5686064.634869548
0.8537202841577566	6186021.983134709
0.8539337142287962	6686104.320736993
0.8541471976573534	7186311.678923366
0.8543607344567677	7686644.088949375
0.8545743246403821	7874064.38546117
0.8547879682215422	8011817.6523878975
0.8550016652135977	8149605.357631338
0.8552154156299011	8287427.509801097
0.8554292194838088	8425284.117508998
0.8556430767886797	8525047.057073466
0.855856987557877	8601684.542466842
0.8560709518047664	8678341.187231516
0.8562849695427177	8755016.996157411
0.8564990407851035	8831711.97403556
0.8567131655452999	8901699.038923442
0.8569273438366862	8960681.044460615
0.8571415756726455	9019677.795499183
0.8573558610665638	9078689.295725532
0.8575702000318304	9137715.548826873
0.8577845925818384	9197611.396708788
0.857999038729984	9262861.852982836
0.8582135384896665	9328128.621870937
0.858428091874289	9393411.707451263
0.8586426988972576	9458711.113802966
0.8588573595719821	9524026.845006282
0.8590720739118751	9570568.994400276
0.8592868419303532	9614907.392711077
0.8595016636408359	9659256.875621457
0.8597165390567462	9703617.445902549
0.8599314681915105	9747989.106326222
0.8601464510585584	9742706.20744779
0.860361487671323	9711059.806346763
0.8605765780432408	9679405.493645469
0.8607917221877518	9647743.267365975
0.8610069201182988	9616073.125529919
0.8612221718483286	9517265.111936508
0.8614374773912907	9321655.482625034
0.8616528367606385	9125996.950906284
0.8618682499698288	8930289.504554482
0.8620837170323213	8734533.131341122
0.8622992379615795	8578273.431906227
0.8625148127710699	8617670.754989842
0.8627304414742627	8657077.92740423
0.8629461240846313	8696494.951611731
0.8631618606156526	8735921.830075284
0.8633776510808066	8775358.565258447
0.8635934954935769	8896208.62630717
0.8638093938674504	9023761.689264275
0.8640253462159173	9151346.640487112
0.8642413525524714	9278963.487947755
0.8644574128906095	9406612.239620235
0.8646735272438323	9515613.58654319
0.8648896956256433	9615955.78384762
0.8651059180495498	9716323.066701386
0.8653221945290621	9816715.441375768
0.8655385250776946	9917132.914143959
0.8657549097089641	10018459.947091214
0.8659713484363913	10120944.609660503
0.8661878412735006	10223454.89339548
0.866404388233819	10325990.804701379
0.8666209893308775	10428552.349985056
0.8668376445782103	10519009.426537868
0.8670543539893549	10559979.98431817
0.8672711175778525	10600960.784737948
0.8674879353572469	10641951.830357784
0.8677048073410862	10682953.123739041
0.8679217335429217	10723964.667443668
0.8681387139763074	10802056.14078323
0.8683557486548015	10882008.664088707
0.8685728375919655	10961981.17552511
0.8687899808013633	11041973.680089196
0.8690071782965637	11121986.182779528
0.869224430091138	11165081.06450977
0.8694417361986609	11193156.847414408
0.8696590966327107	11221239.649264766
0.869876511406869	11249329.471815588
0.8700939805347206	11277426.316822033
0.8703115040298544	11315339.141964553
0.870529081905862	11364475.919560717
0.8707467141763385	11413624.981351266
0.8709644008548827	11462786.330407258
0.8711821419550964	11511959.969800483
0.8713999374905854	11560599.112375457
0.871617787474958	11607363.251943622
0.8718356919218269	11654139.082546722
0.8720536508448075	11700926.607107474
0.8722716642575187	11747725.82854934
0.8724897321735832	11794536.749796588
0.8727078546066265	11868179.525484296
0.8729260315702784	11942248.734354068
0.873144263078171	12016336.460525978
0.8733625491439405	12090442.70862944
0.8735808897812266	12164567.483294956
0.8737992850036719	12203007.79192391
0.874017734824923	12228812.296067344
0.8742362392586293	12254623.251336802
0.874454798318444	12280440.659345075
0.8746734120180236	12306264.521705348
0.8748920803710283	12342731.942475054
0.875110803391121	12389897.754481278
0.8753295810919689	12437075.357940532
0.875548413487242	12484264.75580065
0.8757673005906139	12531465.951010235
0.8759862424157616	12606925.490854856
0.8762052389763657	12764136.604652477
0.8764242902861098	12921387.02122844
0.8766433963586814	13078676.75040859
0.8768625572077712	13236005.802021082
0.8770817728470732	13391973.119023455
0.8773010432902849	13438587.661632303
0.8775203685511077	13485213.85787687
0.8777397486432454	13531851.710670441
0.8779591835804065	13578501.222927265
0.8781786733763015	13625162.397562092
0.8783982180446457	13610382.250029618
0.878617817599157	13577317.292334955
0.8788374720535569	13544244.068400886
0.8790571814215703	13511162.57616084
0.8792769457169257	13478072.813547734
0.879496764953355	13496368.453281118
0.8797166391445934	13560874.956155298
0.8799365683043796	13625397.585655201
0.8801565524464557	13689936.345812479
0.8803765915845676	13754491.240659857
0.8805966857324639	13816039.191631826
0.880816834903897	13870009.452385651
0.881037039112623	13923993.205704687
0.8812572983724012	13977990.454962047
0.8814776126969944	14032001.203531746
0.8816979821001687	14084585.08906485
0.8819184065956938	14103275.668992223
0.8821388861973429	14121970.921564598
0.8823594209188923	14140670.847950097
0.882580010774122	14159375.449317185
0.8828006557768155	14178084.726834625
0.8830213559407598	14269942.620727489
0.8832421112797452	14380219.922229856
0.8834629218075651	14490524.793057533
0.8836837875380171	14600857.240102949
0.8839047084849018	14711217.270260144
0.884125684662023	14763839.302915584
0.8843467160831886	14770182.750205059
0.8845678027622095	14776527.783356354
0.8847889447129001	14782874.402765939
0.8850101419490785	14789222.608830376
0.8852313944845657	14872354.425756248
0.885452702333187	15123573.458389908
0.8856740655087704	15374855.29578169
0.8858954840251476	15626199.953632751
0.8861169578961539	15877607.44764816
0.886338487135628	16099539.240413522
0.886560071757412	15928444.97265756
0.8867817117753515	15757307.931334661
0.8870034072032955	15586128.105751356
0.8872251580550963	15414905.485211855
0.8874469643446101	15243640.059017114
0.8876688260856963	15257926.432048924
0.8878907432922178	15310627.560902799
0.8881127159780409	15363341.865038851
0.8883347441570356	15416069.347751003
0.8885568278430749	15468810.012333777
0.8887789670500358	15461218.296028571
0.8890011617917983	15410817.127665818
0.8892234120822464	15360403.359010952
0.8894457179352669	15309976.986913964
0.8896680793647509	15259538.00822391
0.8898904963845921	15200952.370852722
0.8901129690086883	15126832.107589591
0.8903354972509405	15052693.314260663
0.8905580811252535	14978535.986233346
0.8907807206455347	14904360.118874123
0.8910034158256963	14817870.617934847
0.8912261666796527	14621478.72300267
0.8914489732213227	14425037.730096705
0.8916718354646282	14228547.62694232
0.8918947534234944	14032008.401262335
0.8921177271118502	13835420.040776055
0.8923407565436284	13173717.373891735
0.8925638417327644	12435984.508141091
0.8927869826931977	11698067.209173765
0.8930101794388711	10959965.430881744
0.8932334319837308	10221679.127145268
0.8934567403417267	9750074.416218977
0.8936801045268123	9444177.711118912
0.8939035245529441	9138204.53184278
0.8941270004340824	8832154.859271707
0.894350532184191	8526028.674282571
0.8945741198172371	8629447.345860273
0.8947977633471915	9412200.083128223
0.8950214627880284	10195148.508580457
0.8952452181537254	10978292.67113859
0.8954690294582639	11761632.619737834
0.8956928967156286	12537009.580662474
0.8959168199398075	13259632.53315609
0.8961407991447926	13982436.14138801
0.8963648343445789	14705420.450521972
0.896588925553165	15428585.505732808
0.8968130727845534	16151931.352207541
0.8970372760527496	16324582.242055997
0.8972615353717629	16428350.639290772
0.8974858507556059	16532144.97862487
0.8977102222182949	16635965.26654377
0.8979346497738496	16739811.509534707
0.8981591334362931	17031571.826341767
0.8983836732196523	17426156.67390503
0.8986082691379572	17820840.167679925
0.8988329212052417	18215622.332328264
0.8990576294355432	18610503.192518104
0.8992823938429022	18869256.64853768
0.8995072144413631	18925523.85764912
0.8997320912449734	18981805.13356282
0.8999570242677847	19038100.479795482
0.9001820135238516	19094409.899864707
0.9004070590272328	19161012.079916924
0.9006321607919896	19281515.271557797
0.9008573188321878	19402048.588996705
0.9010825331618959	19522612.03976491
0.9013078037951865	19643205.63139583
0.9015331307461353	19763829.371424593
0.9017585140288219	20168868.093785662
0.9019839536573292	20598502.87804955
0.9022094496457435	21028245.071009193
0.9024350020081551	21458094.699517563
0.9026606107586572	21888051.79043292
0.902886275911347	22112744.16037881
0.9031119974803249	22238489.002852276
0.9033377754796951	22364265.281536363
0.903563609923565	22490073.004290063
0.903789500826046	22615912.17897454
0.9040154482012526	22661101.892370883
0.904241452063303	22601787.81456473
0.9044675124263188	22542458.90823914
0.9046936293044254	22483115.16968698
0.9049198027117517	22423756.595200147
0.9051460326624297	22394673.25110053
0.9053723191705955	22494564.800915796
0.9055986622503881	22594481.323618423
0.9058250619159507	22694422.825451728
0.9060515181814298	22794389.312660556
0.9062780310609752	22894380.791491117
0.9065046005687405	22821818.28396659
0.906731226718883	22739609.964518037
0.9069579095255627	22657381.09298973
0.907184649002944	22575131.664243538
0.907411445165195	22492861.673140075
0.9076382980264862	22777894.576609552
0.907865207600993	23215547.491787985
0.9080921739028933	23653309.820195086
0.9083191969463691	24091181.589184217
0.9085462767456058	24529162.82611581
0.9087734133147922	24701694.232289065
0.9090006066681211	24567544.45803585
0.909227856819788	24433361.14633925
0.9094551637839932	24299144.288814537
0.9096825275749393	24164893.87707549
0.9099099482068329	24031967.540071733
0.9101374256938848	23903833.038124066
0.9103649600503083	23775666.50255097
0.9105925512903209	23647467.925344005
0.9108201994281437	23519237.298492607
0.9110479044780008	23390974.61398464
0.9112756664541204	23842993.07171957
0.911503485370734	24308407.801091414
0.9117313612420768	24773938.884145606
0.9119592940823873	25239586.34997042
0.912187283905908	25705350.227661837
0.9124153307268845	25693341.28406472
0.9126434345595664	25507883.46940939
0.9128715954182063	25322379.29030057
0.9130998133170609	25136828.735146884
0.9133280882703902	24951231.79235442
0.913556420292458	24918793.37646663
0.9137848093975312	25044349.353435077
0.9140132555998806	25169936.719397753
0.9142417589137806	25295555.482201926
