#wavelength	surface flux
0.8	119017111.87901686
0.8002000000000001	120957122.91311252
0.8004000500000003	123249640.80660778
0.8006001500125003	125546287.59692793
0.8008003000500035	127843508.54894583
0.8010005001250161	130141303.8062028
0.8012007502500472	132439673.51227076
0.8014010504376099	135040407.74425867
0.8016014007002193	137742882.56750154
0.8018018010503944	140446033.0094502
0.8020022515006572	143149859.23901057
0.8022027520635323	145854361.42512602
0.8024033027515483	148583061.83539528
0.8026039035772362	151335495.16067594
0.8028045545531306	154088616.59428805
0.8030052556917691	156842426.30825987
0.803206007005692	159596924.47465777
0.8034068085074435	162106668.02982336
0.8036076602095705	163929025.62826914
0.8038085621246229	165751838.81611305
0.8040095142651542	167575107.7072551
0.8042105166437206	169398832.41561928
0.8044115692728815	171225118.55495325
0.8046126721651998	173142422.52155778
0.8048138253332411	175060205.81415245
0.8050150287895745	176978468.55257204
0.805216282546772	178897210.85667574
0.8054175866174087	180816432.84635442
0.8056189410140631	182879514.40596783
0.8058203457493168	184983697.50870425
0.8060218008357541	187088406.65721366
0.8062233062859632	189193641.98301122
0.8064248621125346	191299403.6176388
0.806626468328063	193520190.54344377
0.8068281249451449	195839873.32737845
0.8070298319763813	198160136.032012
0.8072315894343755	200480978.8023199
0.8074333973317341	202802401.7833213
0.8076352556810671	205205584.98276418
0.8078371644949874	207804782.4630574
0.8080391237861113	210404629.74272132
0.8082411335670578	213005126.98420355
0.8084431938504498	215606274.34999886
0.8086453046489125	218217408.93649656
0.8088474659750746	221003033.28725117
0.8090496778415686	223789354.04409716
0.809251940261029	226576371.38113037
0.8094542532460944	229364085.4725002
0.8096566168094059	232152496.4923897
0.8098590309636085	234282688.81973645
0.8100614957213493	236259189.0730392
0.8102640110952797	238236183.45140553
0.8104665770980536	240213672.0783672
0.8106691937423283	242191655.07748637
0.8108718610407639	243797384.6688887
0.8110745790060241	245118494.93508267
0.8112773476507757	246439935.47884434
0.8114801669876885	247761706.38274163
0.8116830370294355	249083807.72936413
0.8118859577886929	250590551.76068306
0.8120889292781401	252480496.8925728
0.8122919515104597	254370914.51074535
0.8124950244983374	256261804.73332256
0.8126981482544621	258153167.67845514
0.8129013227915257	260056438.27686533
0.8131045481222237	262091115.0447334
0.8133078242592543	264126300.48179367
0.8135111512153191	266161994.71521267
0.813714529003123	268198197.87219024
0.8139179576353739	270234910.0799574
0.8141214371247829	271189364.7094373
0.8143249674840641	271934091.26657724
0.814528548725935	272679004.0053561
0.8147321808631167	273424102.97232056
0.8149358639083326	274169388.2140266
0.8151395978743097	273755143.13846827
0.8153433827737784	272557241.28310657
0.8155472186194719	271359039.9522814
0.8157511054241268	270160539.07112384
0.815955043200483	268961738.5647451
0.8161590319612831	265854882.6649374
0.8163630717192736	259251520.28901592
0.8165671624872033	252646507.07250774
0.8167713042778252	246039842.60268897
0.8169754971038948	239431526.46674946
0.8171797409781707	231866819.0820985
0.8173840359134155	216678242.03735298
0.8175883819223938	201485867.8483638
0.8177927790178745	186289695.56581864
0.8179972272126291	171089724.2401989
0.8182017265194322	155885952.92176306
0.8184062769510622	152035906.91386956
0.8186108785203001	149932653.58504158
0.8188155312399301	147828874.4428842
0.8190202351227402	145724569.35593897
0.819224990181521	143619738.1927233
0.8194297964290664	151813203.63849112
0.8196346538781738	166216314.63530982
0.8198395625416434	180623026.40987197
0.8200445224322789	195033339.86238384
0.820249533562887	209447255.89325458
0.8204545959462778	220511527.6974144
0.8206597095952644	226181603.9129617
0.8208648745226633	231853097.64756727
0.8210700907412941	237526009.25560558
0.8212753582639793	243200339.09154013
0.8214806771035456	248608370.8843907
0.8216860472728215	252368294.1005038
0.8218914687846397	256129157.2974211
0.822096941651836	259890960.71013957
0.822302465887249	263653704.57370907
0.8225080415037209	267417389.12324643
0.8227136685140968	270889666.9255965
0.8229193469312254	274329625.22700876
0.8231250767679583	277770443.51799756
0.8233308580371503	281212122.0135572
0.8235366907516598	284654660.92874324
0.8237425749243477	288435786.82659256
0.8239485105680789	292396858.9073593
0.824154497695721	296358921.2561437
0.824360536320145	300321974.120516
0.8245666264542252	304286017.7481042
0.8247727681108388	306698260.54628396
0.8249789613028664	306887216.2345954
0.8251852060431922	307076219.1618291
0.825391502344703	307265269.3397945
0.8255978502202894	307454366.7803046
0.8258042496828445	307033448.98830205
0.8260107007452654	303649614.4392243
0.8262172034204517	300264933.9315128
0.8264237577213068	296879407.25367343
0.8266303636607373	293493034.1941631
0.8268370212516525	290105814.5413896
0.8270437305069654	289495196.7640212
0.8272504914395923	289101465.8955286
0.8274573040624523	288707636.5943188
0.8276641683884679	288313708.835784
0.8278710844305652	287919682.5953092
0.8280780522016729	287619102.40253645
0.8282850717147234	287361206.1072392
0.8284921429826521	287103245.33786833
0.8286992660183978	286845220.07830495
0.8289064408349024	286587130.3124268
0.8291136674451112	286267080.5071652
0.8293209458619727	285868903.5441323
0.8295282760984382	285470627.03685915
0.829735658167463	285072250.96045876
0.8299430920820048	284673775.2900398
0.8301505778550254	284568519.87964046
0.8303581154994891	285633963.68737966
0.8305657050283641	286699673.8560718
0.8307733464546212	287765650.4523054
0.8309810397912352	288831893.5426897
0.8311887850511829	289898403.1938445
0.8313965822474458	291923279.0486097
0.8316044313930077	293993131.59177464
0.8318123325008561	296063501.5980773
0.8320202855839813	298134389.1968806
0.8322282906553774	300205794.51758367
0.8324363477280413	301768232.28640145
0.8326444568149735	303125943.6387226
0.8328526179291771	304483994.4188802
0.8330608310836596	305842384.7117349
0.8332690962914304	307201114.60216105
0.8334774135655034	307756503.32154185
0.833685782918895	307414292.98243123
0.8338942043646247	307071997.0907361
0.834102677915716	306729615.6250677
0.834311203585195	306387148.56403327
0.8345197813860912	306130088.9739464
0.8347284113314379	306160742.8471779
0.8349370934342709	306191404.3838778
0.8351458277076294	306222073.58596176
0.8353546141645565	306252750.45534635
0.8355634528180977	306283434.9939482
0.8357723436813022	307359710.467786
0.8359812867672226	308449165.2996458
0.8361902820889144	309538892.4952129
0.8363993296594368	310628892.1225793
0.8366084294918518	311719164.2498529
0.8368175815992247	311384339.67089313
0.8370267859946247	310558519.56754637
0.8372360426911234	309732493.00917405
0.8374453517017962	308906259.9441622
0.8376547130397217	308079820.32088417
0.8378641267179816	308512753.1492176
0.8380735927496613	310195624.06844413
0.8382831111478488	311878915.70539945
0.8384926819256358	313562628.1652632
0.8387023050961173	315246761.5532433
0.8389119806723914	316222440.29247814
0.8391217086675596	315203355.1495851
0.8393314890947265	314184015.2354072
0.8395413219670003	313164420.4862506
0.8397512072974922	312144570.83840597
0.8399611450993165	311163850.01526684
0.8401711353855914	312138668.8051222
0.8403811781694378	313113731.2996748
0.8405912734639802	314089037.5598513
0.8408014212823464	315064587.6465933
0.8410116216376671	316040381.6208568
0.8412218745430766	314243146.8915009
0.8414321800117124	311638547.528599
0.8416425380567154	309033297.0158552
0.8418529486912297	306427395.19048256
0.8420634119284025	303820841.88965577
0.8422739277813847	303669092.0533013
0.8424844962633302	305680655.50587237
0.842695117387396	307692721.8493041
0.8429057911667428	309705291.20932174
0.8431165176145345	311718363.71168035
0.8433272967439382	309761060.65680087
0.8435381285681244	298117193.69579655
0.8437490131002665	286470415.7680546
0.8439599503535415	274820726.14583796
0.84417094034113	263168124.10120732
0.8443819830762154	251840558.12767377
0.8445930785719846	247116725.36734486
0.8448042268416277	242391711.64882845
0.8450154278983382	237665516.676883
0.8452266817553128	232938140.15619496
0.8454379884257517	228209581.79137617
0.8456493479228583	227590093.9504155
0.845860760259839	227960249.4777095
0.846072225449904	228330497.54388535
0.8462837435062666	228700838.1720778
0.8464953144421433	229071271.38542753
0.8467069382707537	230170852.33256862
0.8469186150053215	231838984.2546839
0.847130344659073	233507533.2097802
0.8473421272452377	235176499.3021136
0.8475539627770492	236845882.63597178
0.8477658512677435	238675422.05664298
0.8479777927305605	240844603.04390973
0.8481897871787432	243014326.32642275
0.848401834625538	245184592.03975764
0.8486139350841944	247355400.3195195
0.8488260885679657	249438628.3924599
0.8490382950901076	250448190.2967704
0.8492505546638802	251458004.59155744
0.8494628673025462	252468071.33991784
0.8496752330193721	253478390.60496682
0.8498876518276269	254488962.4498307
0.8501001237405839	253663081.8169812
0.8503126487715191	252470356.1141313
0.850525226933712	251277332.22985637
0.8507378582404455	250084010.08961037
0.8509505427050057	248890389.6188286
0.8511632803406821	247633949.23476768
0.8513760711607672	246334378.956259
0.8515889151785576	245034483.78517872
0.8518018124073523	243734263.6403067
0.8520147628604541	242433718.4403993
0.8522277665511693	242570181.93153414
0.8524408234928071	245364854.71160766
0.8526539336986805	248160226.15987694
0.8528670971821053	250956296.4510085
0.8530803139564007	253753065.7597095
0.8532935840348901	256602855.81496486
0.8535069074308987	259895240.57950005
0.8537202841577566	263188448.44022912
0.8539337142287962	266482479.60292375
0.8541471976573534	269777334.273407
0.8543607344567677	273073012.65755844
0.8545743246403821	273568117.0804985
0.8547879682215422	273618451.27769405
0.8550016652135977	273668798.05843884
0.8552154156299011	273719157.4258788
0.8554292194838088	273769529.3831607
0.8556430767886797	273579015.1978413
0.855856987557877	273242186.0342369
0.8560709518047664	272905272.6633419
0.8562849695427177	272568275.064104
0.8564990407851035	272231193.2154662
0.8567131655452999	271703346.75638556
0.8569273438366862	270862932.23508364
0.8571415756726455	270022307.61015123
0.8573558610665638	269181472.8290623
0.8575702000318304	268340427.839279
0.8577845925818384	268079649.30728796
0.857999038729984	271444677.01722586
0.8582135384896665	274810545.98409045
0.858428091874289	278177256.4181969
0.8586426988972576	281544808.52991104
0.8588573595719821	284913202.52965426
0.8590720739118751	285472446.5246809
0.8592868419303532	285700523.8655102
0.8595016636408359	285928658.2256747
0.8597165390567462	286156849.6194292
0.8599314681915105	286385098.0610321
0.8601464510585584	285130983.4241095
0.860361487671323	283089696.99614847
0.8605765780432408	281047900.2465811
0.8607917221877518	279005593.0478246
0.8610069201182988	276962775.27226895
0.8612221718483286	271831762.39819705
0.8614374773912907	262248151.86019665
0.8616528367606385	252662145.41956434
0.8618682499698288	243073742.4773158
0.8620837170323213	233482942.4343333
0.8622992379615795	225461271.71906748
0.8625148127710699	225214480.76514408
0.8627304414742627	224967628.11348215
0.8629461240846313	224720713.7486573
0.8631618606156526	224473737.65524116
0.8633776510808066	224226699.81780177
0.8635934954935769	230095638.83689848
0.8638093938674504	236467387.8377896
0.8640253462159173	242840729.77593073
0.8642413525524714	249215665.04955626
0.8644574128906095	255592194.05699888
0.8646735272438323	257689000.04021478
0.8648896956256433	257795399.1174965
0.8651059180495498	257901824.79454756
0.8653221945290621	258008277.07801777
0.8655385250776946	258114755.97455898
0.8657549097089641	260320138.84560692
0.8659713484363913	265213097.46298596
0.8661878412735006	270107279.3200216
0.866404388233819	275002684.7225209
0.8666209893308775	279899313.97636855
0.8668376445782103	283825911.0159407
0.8670543539893549	283789299.4032762
0.8672711175778525	283752678.63770854
0.8674879353572469	283716048.7169495
0.8677048073410862	283679409.6387103
0.8679217335429217	283642761.4007015
0.8681387139763074	280730306.5980308
0.8683557486548015	277674261.3934376
0.8685728375919655	274617452.1775395
0.8687899808013633	271559878.75934416
0.8690071782965637	268501540.94779027
0.869224430091138	265487707.146317
0.8694417361986609	262491539.62028438
0.8696590966327107	259494623.05237094
0.869876511406869	256496957.25531533
0.8700939805347206	253498542.04181194
0.8703115040298544	251224535.12912515
0.870529081905862	249779024.98005965
0.8707467141763385	248333153.45345742
0.8709644008548827	246886920.45897356
0.8711821419550964	245440325.90624198
0.8713999374905854	244903245.6061909
0.871617787474958	247506328.46304345
0.8718356919218269	250110062.0906126
0.8720536508448075	252714446.6515888
0.8722716642575187	255319482.30870372
0.8724897321735832	257925169.2247341
0.8727078546066265	261183465.34175804
0.8729260315702784	264452494.4493136
0.873144263078171	267722340.8141426
0.8733625491439405	270993004.64056313
0.8735808897812266	274264486.1329415
0.8737992850036719	274830004.755837
0.874017734824923	274436967.52730894
0.8742362392586293	274043832.03947383
0.874454798318444	273650598.26776683
0.8746734120180236	273257266.18761694
0.8748920803710283	273786643.7076175
0.875110803391121	275243487.6134854
0.8753295810919689	276700695.7303306
0.875548413487242	278158268.14920497
0.8757673005906139	279616204.96118414
0.8759862424157616	282523792.17280895
0.8762052389763657	289625683.4733074
0.8764242902861098	296729350.24662596
0.8766433963586814	303834792.93663985
0.8768625572077712	310942011.9873284
0.8770817728470732	318006996.22710073
0.8773010432902849	321637430.8124421
0.8775203685511077	325268773.006435
0.8777397486432454	328901023.0359718
0.8779591835804065	332534181.12802047
0.8781786733763015	336168247.50958735
0.8783982180446457	333215119.63854617
0.878617817599157	328301416.0527737
0.8788374720535569	323386484.04110706
0.8790571814215703	318470323.29643875
0.8792769457169257	313552933.51158416
0.879496764953355	310538232.8412916
0.8797166391445934	309234526.2447911
0.8799365683043796	307930493.72164136
0.8801565524464557	306626135.19036084
0.8803765915845676	305321450.5694463
0.8805966857324639	305438057.7861309
0.880816834903897	309125372.4089847
0.881037039112623	312813608.8604957
0.8812572983724012	316502767.37111914
0.8814776126969944	320192848.17137194
0.8816979821001687	323774904.96049315
0.8819184065956938	324793237.5785317
0.8821388861973429	325811824.7797258
0.8823594209188923	326830666.6277192
0.882580010774122	327849763.1861742
0.8828006557768155	328869114.5187693
0.8830213559407598	335201943.7575068
0.8832421112797452	342872685.73825806
0.8834629218075651	350545345.4044999
0.8836837875380171	358219923.2356606
0.8839047084849018	365896419.71128035
0.884125684662023	364183339.6384468
0.8843467160831886	354943746.94605607
0.8845678027622095	345701844.35549223
0.8847889447129001	336457631.28927904
0.8850101419490785	327211107.16980094
0.8852313944845657	319328087.58329695
0.885452702333187	314432701.30661803
0.8856740655087704	309536091.1833706
0.8858954840251476	304638256.90759367
0.8861169578961539	299739198.1732501
0.886338487135628	294634098.05715024
0.886560071757412	286802143.61795795
0.8867817117753515	278968231.1901561
0.8870034072032955	271132360.28424376
0.8872251580550963	263294530.41061413
0.8874469643446101	255454741.07951123
0.8876688260856963	255276453.56995854
0.8878907432922178	256684173.1145957
0.8881127159780409	258092244.58911815
0.8883347441570356	259500668.08151093
0.8885568278430749	260909443.6797753
0.8887789670500358	261796887.45144072
0.8890011617917983	262314484.18908724
0.8892234120822464	262832210.32591838
0.8894457179352669	263350065.89428332
0.8896680793647509	263868050.92654073
0.8898904963845921	265582700.3353606
0.8901129690086883	269580798.45441777
0.8903354972509405	273579896.0980037
0.8905580811252535	277579993.5160036
0.8907807206455347	281581090.9583526
0.8910034158256963	285502759.16494334
0.8912261666796527	288706612.1627344
0.8914489732213227	291911266.1237758
0.8916718354646282	295116721.2483106
0.8918947534234944	298322977.7366235
0.8921177271118502	301530035.7890565
0.8923407565436284	301927556.669656
0.8925638417327644	301866734.2332422
0.8927869826931977	301805896.5912193
0.8930101794388711	301745043.7397859
0.8932334319837308	301684175.6751396
0.8934567403417267	301426766.451275
0.8936801045268123	301047175.1360846
0.8939035245529441	300667488.9230657
0.8941270004340824	300287707.78849345
0.894350532184191	299907831.7086376
0.8945741198172371	301224109.16603816
0.8947977633471915	305353741.50563
0.8950214627880284	309484406.25330657
0.8952452181537254	313616103.6671676
0.8954690294582639	317748834.00538456
0.8956928967156286	321857773.80523926
0.8959168199398075	325806643.7340094
0.8961407991447926	329756500.88026273
0.8963648343445789	333707345.4908025
0.896588925553165	337659177.8124927
0.8968130727845534	341611998.0922639
0.8970372760527496	344714785.9443526
0.8972615353717629	347711869.67426264
0.8974858507556059	350709702.6751055
0.8977102222182949	353708285.1341977
0.8979346497738496	356707617.23890644
0.8981591334362931	359376582.0207259
0.8983836732196523	361865133.856913
0.8986082691379572	364354307.8310574
0.8988329212052417	366844104.0986954
0.8990576294355432	369334522.81540245
0.8992823938429022	371249861.11429894
0.8995072144413631	372309681.013977
0.8997320912449734	373369765.86862963
0.8999570242677847	374430115.74449563
0.9001820135238516	375490730.7078307
0.9004070590272328	377013619.39543575
0.9006321607919896	380958895.3522374
0.9008573188321878	384905157.62803227
0.9010825331618959	388852406.4693942
0.9013078037951865	392800642.12296706
0.9015331307461353	396749864.83545125
0.9017585140288219	397541520.72134584
0.9019839536573292	398061320.06683666
0.9022094496457435	398581249.3621634
0.9024350020081551	399101308.6398146
0.9026606107586572	399621497.9322851
0.902886275911347	401899812.93092597
0.9031119974803249	405026173.7836989
0.9033377754796951	408153316.22668517
0.903563609923565	411281240.45528066
0.903789500826046	414409946.66493547
0.9040154482012526	416602201.6140753
0.904241452063303	417580900.54349214
0.9044675124263188	418559844.1476411
0.9046936293044254	419539032.487691
0.9049198027117517	420518465.6248263
0.9051460326624297	420250898.663118
0.9053723191705955	414672205.62818384
0.9055986622503881	409092117.91999626
0.9058250619159507	403510635.1898813
0.9060515181814298	397927757.08908045
0.9062780310609752	392343483.2687582
0.9065046005687405	395146920.9487987
0.906731226718883	398419062.9969811
0.9069579095255627	401692023.0806712
0.907184649002944	404965801.40438247
0.907411445165195	408240398.17267805
0.9076382980264862	410969714.5738151
0.907865207600993	413472919.39399004
0.9080921739028933	415976750.0153693
0.9083191969463691	418481206.5944035
0.9085462767456058	420986289.2875837
0.9087734133147922	424634982.8140166
0.9090006066681211	429604749.8511792
0.909227856819788	434575759.3300946
0.9094551637839932	439548011.5613865
0.9096825275749393	444521506.85573477
0.9099099482068329	448788188.5594342
0.9101374256938848	450539490.2044076
0.9103649600503083	452291229.67479134
0.9105925512903209	454043407.08004236
0.9108201994281437	455796022.5296466
0.9110479044780008	457549076.1331112
0.9112756664541204	462265590.8832901
0.911503485370734	467051107.8335873
0.9117313612420768	471837821.163122
0.9119592940823873	476625731.17098767
0.912187283905908	481414838.1563569
0.9124153307268845	482893178.0377129
0.9126434345595664	483169838.0233398
0.9128715954182063	483446567.1739629
0.9130998133170609	483723365.5068738
0.9133280882703902	484000233.03936785
0.913556420292458	485559942.77765685
0.9137848093975312	488442985.16749704
0.9140132555998806	491326748.31793433
0.9142417589137806	494211232.40915936
