#wavelength	surface flux
0.8	108549.92503401526
0.8002000000000001	110566.39191811554
0.8004000500000003	112752.91763421531
0.8006001500125003	114941.70265131094
0.8008003000500035	117131.03486466101
0.8010005001250161	119320.91441106543
0.8012007502500472	121511.34142735328
0.8014010504376099	123654.49243314756
0.8016014007002193	125782.15977597809
0.8018018010503944	127910.3590356443
0.8020022515006572	130039.09034512639
0.8022027520635323	132168.353837434
0.8024033027515483	134441.03809963705
0.8026039035772362	136854.31564906423
0.8028045545531306	139268.19651787888
0.8030052556917691	141682.6808569119
0.803206007005692	144097.76881702757
0.8034068085074435	146522.61398034956
0.8036076602095705	148973.7237653272
0.8038085621246229	151425.44632774912
0.8040095142651542	153877.78182081316
0.8042105166437206	156330.73039774963
0.8044115692728815	158787.14810474694
0.8046126721651998	161367.01690227442
0.8048138253332411	163947.5306669992
0.8050150287895745	166528.68956016755
0.805216282546772	169110.49374305853
0.8054175866174087	171692.94337699382
0.8056189410140631	174304.51801524547
0.8058203457493168	176924.80706219992
0.8060218008357541	179545.75118141275
0.8062233062859632	182167.35053665668
0.8064248621125346	184789.60529173765
0.806626468328063	187535.2784298283
0.8068281249451449	190387.07639685977
0.8070298319763813	193239.58731338652
0.8072315894343755	196092.81135764025
0.8074333973317341	198946.7487079061
0.8076352556810671	201726.00451543074
0.8078371644949874	204324.46671715486
0.8080391237861113	206923.57853443007
0.8082411335670578	209523.34012965797
0.8084431938504498	212123.7516652874
0.8086453046489125	214712.84037875046
0.8088474659750746	217079.66195051718
0.8090496778415686	219447.07522768
0.809251940261029	221815.0803581604
0.8094542532460944	224183.67748992544
0.8096566168094059	226552.86677097072
0.8098590309636085	229195.96997232788
0.8100614957213493	231903.70710709185
0.8102640110952797	234612.12117613986
0.8104665770980536	237321.21234870618
0.8106691937423283	240030.98079406668
0.8108718610407639	242819.28281435178
0.8110745790060241	245667.81440852006
0.8112773476507757	248517.05813558938
0.8114801669876885	251367.01417358973
0.8116830370294355	254217.6827005979
0.8118859577886929	256934.66106345743
0.8120889292781401	259373.15811318948
0.8122919515104597	261812.26478718378
0.8124950244983374	264251.9812378467
0.8126981482544621	266692.30761762196
0.8129013227915257	269206.56780368707
0.8131045481222237	272561.0244126322
0.8133078242592543	275916.31963572995
0.8135111512153191	279272.45368263253
0.813714529003123	282629.4267630473
0.8139179576353739	285987.2390867327
0.8141214371247829	290660.2072724554
0.8143249674840641	295589.21175848326
0.814528548725935	300519.4484956296
0.8147321808631167	305450.917791967
0.8149358639083326	310383.6199556269
0.8151395978743097	314899.27922003064
0.8153433827737784	319133.4625337728
0.8155472186194719	323368.7043933419
0.8157511054241268	327605.00506337505
0.815955043200483	331842.3648085786
0.8161590319612831	336675.2095856515
0.8163630717192736	342598.4751968834
0.8165671624872033	348523.2216245115
0.8167713042778252	354449.4492387524
0.8169754971038948	360377.1584098998
0.8171797409781707	365796.1054184869
0.8173840359134155	367142.9705672551
0.8175883819223938	368490.17243230896
0.8177927790178745	369837.7110978298
0.8179972272126291	371185.5866480174
0.8182017265194322	372533.7991670912
0.8184062769510622	377994.8379522943
0.8186108785203001	384090.09321918245
0.8188155312399301	390186.8722998791
0.8190202351227402	396285.17557535274
0.819224990181521	402385.00342664134
0.8194297964290664	408446.9654814053
0.8196346538781738	414486.7003198881
0.8198395625416434	420527.94509207824
0.8200445224322789	426570.70017546386
0.820249533562887	432614.9659476186
0.8204545959462778	438455.5563301602
0.8206597095952644	443967.364798578
0.8208648745226633	449480.5512191172
0.8210700907412941	454995.1159362606
0.8212753582639793	460511.05929457775
0.8214806771035456	465666.2712551813
0.8216860472728215	468591.7308805589
0.8218914687846397	471517.9218708429
0.822096941651836	474444.84440887615
0.822302465887249	477372.4986775421
0.8225080415037209	480300.8848597768
0.8227136685140968	483400.32949156524
0.8229193469312254	486519.884585384
0.8231250767679583	489640.2195679773
0.8233308580371503	492761.3346343145
0.8235366907516598	495883.2299794206
0.8237425749243477	503089.57780772017
0.8239485105680789	512462.1451765021
0.824154497695721	521837.0556871203
0.824360536320145	531214.3099253679
0.8245666264542252	540593.9084771746
0.8247727681108388	548434.5480653343
0.8249789613028664	554069.7105881141
0.8251852060431922	559706.2819015295
0.825391502344703	565344.2623577707
0.8255978502202894	570983.6523091311
0.8258042496828445	576841.1542518453
0.8260107007452654	583752.5497927789
0.8262172034204517	590665.6731825907
0.8264237577213068	597580.5248532519
0.8266303636607373	604497.1052368336
0.8268370212516525	611415.4147655079
0.8270437305069654	615974.2265487782
0.8272504914395923	620349.6634656826
0.8274573040624523	624726.1942418172
0.8276641683884679	629103.819150642
0.8278710844305652	633482.5384656993
0.8280780522016729	639373.5088994659
0.8282850717147234	645956.6988856457
0.8284921429826521	652541.5346693152
0.8286992660183978	659128.0166619358
0.8289064408349024	665716.1452750501
0.8291136674451112	671944.1958456109
0.8293209458619727	677717.6862354203
0.8295282760984382	683492.6199978194
0.829735658167463	689268.9974936658
0.8299430920820048	695046.8190838787
0.8301505778550254	700906.2023980618
0.8303581154994891	707086.8220382823
0.8305657050283641	713268.9868334191
0.8307733464546212	719452.6971697498
0.8309810397912352	725637.9534336746
0.8311887850511829	731824.7560116533
0.8313965822474458	741571.0324656463
0.8316044313930077	751484.8877094953
0.8318123325008561	761401.2214171645
0.8320202855839813	771320.0342082558
0.8322282906553774	781241.3267025457
0.8324363477280413	788777.3623298997
0.8326444568149735	795353.987397057
0.8328526179291771	801932.2566204733
0.8330608310836596	808512.1704112056
0.8332690962914304	815093.7291803767
0.8334774135655034	820421.1234697744
0.833685782918895	824347.068743668
0.8338942043646247	828273.9955038778
0.834102677915716	832201.9039957803
0.834311203585195	836130.7944648027
0.8345197813860912	841120.2851272897
0.8347284113314379	849677.7963436041
0.8349370934342709	858237.4469377178
0.8351458277076294	866799.2374444697
0.8353546141645565	875363.1683988626
0.8355634528180977	883929.2403359904
0.8357723436813022	890136.8927483114
0.8359812867672226	896316.9501596037
0.8361902820889144	902498.5525852457
0.8363993296594368	908681.7004114959
0.8366084294918518	914866.3940247048
0.8368175815992247	924509.9514809332
0.8370267859946247	935346.6555425889
0.8372360426911234	946186.0687802567
0.8374453517017962	957028.1918712327
0.8376547130397217	967873.0254929801
0.8378641267179816	977566.1689537747
0.8380735927496613	986116.2694544179
0.8382831111478488	994668.5074801812
0.8384926819256358	1003222.8835654464
0.8387023050961173	1011779.3982447402
0.8389119806723914	1020107.4597581654
0.8391217086675596	1027788.6412217595
0.8393314890947265	1035471.7429807136
0.8395413219670003	1043156.7655151082
0.8397512072974922	1050843.7093051418
0.8399611450993165	1058541.0059575315
0.8401711353855914	1066658.9136588546
0.8403811781694378	1074778.8508371005
0.8405912734639802	1082900.8179996433
0.8408014212823464	1091024.8156539802
0.8410116216376671	1099150.84430773
0.8412218745430766	1107007.0826128437
0.8414321800117124	1114786.1953067349
0.8416425380567154	1122567.2527788032
0.8418529486912297	1130350.2555152413
0.8420634119284025	1138135.204002357
0.8422739277813847	1151311.7863975882
0.8424844962633302	1169240.1869165616
0.842695117387396	1187173.069535642
0.8429057911667428	1205110.4353753778
0.8431165176145345	1223052.2855565823
0.8433272967439382	1237002.4936323063
0.8435381285681244	1241208.5259948592
0.8437490131002665	1245415.6098655018
0.8439599503535415	1249623.7455071094
0.84417094034113	1253832.9331826305
0.8443819830762154	1258358.2881962596
0.8445930785719846	1269232.7939917778
0.8448042268416277	1280110.0184137388
0.8450154278983382	1290989.9621418042
0.8452266817553128	1301872.6258558005
0.8454379884257517	1312758.0102357266
0.8456493479228583	1326992.192259894
0.845860760259839	1342035.7082167927
0.846072225449904	1357082.9850526804
0.8462837435062666	1372134.0237077803
0.8464953144421433	1387188.8251225525
0.8467069382707537	1399917.5675360404
0.8469186150053215	1410833.466892245
0.847130344659073	1421752.0952232918
0.8473421272452377	1432673.4532114104
0.8475539627770492	1443597.5415390374
0.8477658512677435	1453712.613288684
0.8479777927305605	1462106.5746701728
0.8481897871787432	1470502.6345420047
0.848401834625538	1478900.7934288094
0.8486139350841944	1487301.0518553306
0.8488260885679657	1494747.3233392306
0.8490382950901076	1490541.0951852119
0.8492505546638802	1486333.8154741526
0.8494628673025462	1482125.4839431671
0.8496752330193721	1477916.1003292925
0.8498876518276269	1473705.6643695203
0.8501001237405839	1415584.1619946023
0.8503126487715191	1346686.7436754948
0.850525226933712	1277772.101001846
0.8507378582404455	1208840.229667529
0.8509505427050057	1139891.1253653388
0.8511632803406821	1085140.994159502
0.8513760711607672	1040112.6762994012
0.8515889151785576	995073.1013597655
0.8518018124073523	950022.2665264326
0.8520147628604541	904960.168984418
0.8522277665511693	893318.0080376728
0.8524408234928071	943499.9038075348
0.8526539336986805	993694.3450513529
0.8528670971821053	1043901.3349054849
0.8530803139564007	1094120.8765070213
0.8532935840348901	1150753.4554167807
0.8535069074308987	1261455.5371837285
0.8537202841577566	1372185.294471211
0.8539337142287962	1482942.7341980278
0.8541471976573534	1593727.863284707
0.8543607344567677	1704540.6886536782
0.8545743246403821	1747983.6189045557
0.8547879682215422	1780733.9009579993
0.8550016652135977	1813492.370581952
0.8552154156299011	1846259.0298233123
0.8554292194838088	1879033.8807295067
0.8556430767886797	1903963.4094296354
0.855856987557877	1924130.723069726
0.8560709518047664	1944303.0785382139
0.8562849695427177	1964480.4770955765
0.8564990407851035	1984662.920002584
0.8567131655452999	2003531.733428105
0.8569273438366862	2020244.5709104447
0.8571415756726455	2036961.5866021581
0.8573558610665638	2053682.7815478006
0.8575702000318304	2070408.1567921615
0.8577845925818384	2087225.467343689
0.857999038729984	2104595.125806764
0.8582135384896665	2121969.1266844505
0.858428091874289	2139347.471062358
0.8586426988972576	2156730.160026355
0.8588573595719821	2174117.1946625994
0.8590720739118751	2190085.2733243834
0.8592868419303532	2205889.532360788
0.8595016636408359	2221697.7424619524
0.8597165390567462	2237509.9046156364
0.8599314681915105	2253326.019809863
0.8601464510585584	2266378.3676585136
0.860361487671323	2277964.8914091326
0.8605765780432408	2289554.3117906856
0.8607917221877518	2301146.6295273434
0.8610069201182988	2312741.8453434324
0.8612221718483286	2321914.7733601755
0.8614374773912907	2327593.759919485
0.8616528367606385	2333274.166225433
0.8618682499698288	2338955.992632961
0.8620837170323213	2344639.2394970898
0.8622992379615795	2352252.69336009
0.8625148127710699	2369412.874472966
0.8627304414742627	2386577.3456311217
0.8629461240846313	2403746.1079070694
0.8631618606156526	2420919.162373588
0.8633776510808066	2438096.5101037202
0.8635934954935769	2457649.7929580742
0.8638093938674504	2477402.3718179064
0.8640253462159173	2497159.8888224526
0.8642413525524714	2516922.34520625
0.8644574128906095	2536689.7422041385
0.8646735272438323	2556598.052016068
0.8648896956256433	2576574.5691716475
0.8651059180495498	2596556.0804565167
0.8653221945290621	2616542.5871191886
0.8655385250776946	2636534.090408554
0.8657549097089641	2656890.943301375
0.8659713484363913	2677714.2148332526
0.8661878412735006	2698542.692183023
0.866404388233819	2719376.376652128
0.8666209893308775	2740215.2695423407
0.8668376445782103	2760391.688085181
0.8670543539893549	2777847.993097064
0.8672711175778525	2795308.6621852117
0.8674879353572469	2812773.696440612
0.8677048073410862	2830243.0969545827
0.8679217335429217	2847716.8648186927
0.8681387139763074	2868721.941422654
0.8683557486548015	2889907.478704098
0.8685728375919655	2911098.312369889
0.8687899808013633	2932294.4437440503
0.8690071782965637	2953495.8741510827
0.869224430091138	2973751.8968883133
0.8694417361986609	2993626.1417367007
0.8696590966327107	3013505.355146296
0.869876511406869	3033389.5383592444
0.8700939805347206	3053278.692617987
0.8703115040298544	3073536.790948611
0.870529081905862	3094216.078845274
0.8707467141763385	3114900.536563904
0.8709644008548827	3135590.165396963
0.8711821419550964	3156284.966637217
0.8713999374905854	3176924.4532905337
0.871617787474958	3197360.3337489944
0.8718356919218269	3217801.3231775877
0.8720536508448075	3238247.42285354
0.8722716642575187	3258698.634054399
0.8724897321735832	3279154.9580580676
0.8727078546066265	3299865.9859508555
0.8729260315702784	3320585.9886803804
0.873144263078171	3341311.1714105653
0.8733625491439405	3362041.535436435
0.8735808897812266	3382777.0820533196
0.8737992850036719	3402733.914918695
0.874017734824923	3422418.0933383224
0.8742362392586293	3442107.1928025465
0.874454798318444	3461801.214541636
0.8746734120180236	3481500.1597861582
0.8748920803710283	3502314.3741919063
0.875110803391121	3524249.582497182
0.8753295810919689	3546190.274604546
0.875548413487242	3568136.4518849365
0.8757673005906139	3590088.1157096485
0.8759862424157616	3613052.445743816
0.8762052389763657	3638936.8347842395
0.8764242902861098	3664827.694921905
0.8766433963586814	3690725.0277746124
0.8768625572077712	3716628.8349605408
0.8770817728470732	3742482.809016988
0.8773010432902849	3763946.7755820067
0.8775203685511077	3785416.108138697
0.8777397486432454	3806890.8080285
0.8779591835804065	3828370.8765933015
0.8781786733763015	3849856.3151752157
0.8783982180446457	3869084.1820749617
0.878617817599157	3887643.672684142
0.8788374720535569	3906207.8031659657
0.8790571814215703	3924776.574680405
0.8792769457169257	3943349.9883877235
0.879496764953355	3962105.1495600143
0.8797166391445934	3981024.2277512727
0.8799365683043796	3999948.0357120805
0.8801565524464557	4018876.574624878
0.8803765915845676	4037809.8456724216
0.8805966857324639	4056253.139761342
0.880816834903897	4073458.4807675914
0.881037039112623	4090668.1231090985
0.8812572983724012	4107882.06786119
0.8814776126969944	4125100.3160994765
0.8816979821001687	4142028.486677259
0.8819184065956938	4152031.0822286117
0.8821388861973429	4162036.1784288627
0.8823594209188923	4172043.7759031537
0.882580010774122	4182053.875276809
0.8828006557768155	4192066.477175313
0.8830213559407598	4212032.949508711
0.8832421112797452	4234507.283345741
0.8834629218075651	4256987.235766218
0.8836837875380171	4279472.808174806
0.8839047084849018	4301964.0019765
0.884125684662023	4330468.493432438
0.8843467160831886	4363794.495139802
0.8845678027622095	4397128.828347593
0.8847889447129001	4430471.495138692
0.8850101419490785	4463822.497596482
0.8852313944845657	4494124.533669252
0.885452702333187	4517742.081478599
0.8856740655087704	4541365.533674896
0.8858954840251476	4564994.891734235
0.8861169578961539	4588630.157133078
0.886338487135628	4609952.405325073
0.886560071757412	4600421.092088752
0.8867817117753515	4590887.396024122
0.8870034072032955	4581351.316535472
0.8872251580550963	4571812.85302696
0.8874469643446101	4562272.004902566
0.8876688260856963	4581837.605602008
0.8878907432922178	4607432.543956847
0.8881127159780409	4633033.881046258
0.8883347441570356	4658641.618469972
0.8885568278430749	4684255.757828015
0.8887789670500358	4704715.510195854
0.8890011617917983	4721519.448717897
0.8892234120822464	4738327.588224579
0.8894457179352669	4755139.929766122
0.8896680793647509	4771956.474393065
0.8898904963845921	4777532.955155179
0.8901129690086883	4761656.470709938
0.8903354972509405	4745776.017143589
0.8905580811252535	4729891.593463836
0.8907807206455347	4714003.198678185
0.8910034158256963	4693151.018995046
0.8912261666796527	4627967.95849576
0.8914489732213227	4562768.602231331
0.8916718354646282	4497552.946127772
0.8918947534234944	4432320.98611025
0.8921177271118502	4367072.718102764
0.8923407565436284	4129599.79742475
0.8925638417327644	3863975.645599093
0.8927869826931977	3598285.087735391
0.8930101794388711	3332528.1072322405
0.8932334319837308	3066704.6874840064
0.8934567403417267	2899039.788037459
0.8936801045268123	2792368.2324901074
0.8939035245529441	2685670.009053941
0.8941270004340824	2578945.1110618743
0.894350532184191	2472193.5318453363
0.8945741198172371	2487915.731202039
0.8947977633471915	2706794.2724344144
0.8950214627880284	2925727.5333020883
0.8952452181537254	3144715.527484849
0.8954690294582639	3363758.2686662874
0.8956928967156286	3586842.9198481706
0.8959168199398075	3835858.5209123567
0.8961407991447926	4084936.375876872
0.8963648343445789	4334076.500305122
0.896588925553165	4583278.909764338
0.8968130727845534	4832543.619825952
0.8970372760527496	4925022.237336577
0.8972615353717629	4997899.079932421
0.8974858507556059	5070794.141738923
0.8977102222182949	5143707.427310857
0.8979346497738496	5216638.941204224
0.8981591334362931	5332636.237869542
0.8983836732196523	5472204.226695362
0.8986082691379572	5611807.107518297
0.8988329212052417	5751444.889061437
0.8990576294355432	5891117.580050083
0.8992823938429022	5991716.480967257
0.8995072144413631	6034190.852406113
0.8997320912449734	6076675.842437815
0.8999570242677847	6119171.453717013
0.9001820135238516	6161677.688899035
0.9004070590272328	6200352.378604722
0.9006321607919896	6218894.760366726
0.9008573188321878	6237441.777724189
0.9010825331618959	6255993.431835982
0.9013078037951865	6274549.723861307
0.9015331307461353	6293110.654959628
0.9017585140288219	6394742.90154045
0.9019839536573292	6503555.304230752
0.9022094496457435	6612394.91002165
0.9024350020081551	6721261.725714117
0.9026606107586572	6830155.758110473
0.902886275911347	6911105.669479455
0.9031119974803249	6978591.68327451
0.9033377754796951	7046094.568573016
0.903563609923565	7113614.329592815
0.903789500826046	7181150.970552915
0.9040154482012526	7231516.364475919
0.904241452063303	7259628.626557859
0.9044675124263188	7287747.916705312
0.9046936293044254	7315874.236675299
0.9049198027117517	7344007.588225292
0.9051460326624297	7373751.655384278
0.9053723191705955	7410332.0107446425
0.9055986622503881	7446921.511193813
0.9058250619159507	7483520.159018097
0.9060515181814298	7520127.95650436
0.9062780310609752	7556744.905939969
0.9065046005687405	7506338.036478842
0.906731226718883	7451063.25304368
0.9069579095255627	7395774.650912733
0.907184649002944	7340472.226631247
0.907411445165195	7285155.976743637
0.9076382980264862	7359026.159054107
0.907865207600993	7486571.43812154
0.9080921739028933	7614148.6035087025
0.9083191969463691	7741757.663187191
0.9085462767456058	7869398.625130661
0.9087734133147922	7945151.630942484
0.9090006066681211	7960955.485787132
0.909227856819788	7976763.291595471
0.9094551637839932	7992575.049355282
0.9096825275749393	8008390.76005453
0.9099099482068329	8013553.882199418
0.9101374256938848	7980844.758363331
0.9103649600503083	7948127.4572463
0.9105925512903209	7915401.976803997
0.9108201994281437	7882668.314991549
0.9110479044780008	7849926.469763684
0.9112756664541204	7978549.575148016
0.911503485370734	8110898.638944042
0.9117313612420768	8243280.790006017
0.9119592940823873	8375696.036605718
0.912187283905908	8508144.387017109
0.9124153307268845	8513281.067557925
0.9126434345595664	8472200.319920408
0.9128715954182063	8431109.30209602
0.9130998133170609	8390008.011517156
0.9133280882703902	8348896.445615648
0.913556420292458	8361820.049823882
0.9137848093975312	8430484.753459333
0.9140132555998806	8499166.623270685
0.9142417589137806	8567865.663549494
0.9144703193535092	8636581.878588416
0.9146989369333476	8695768.893718297
