#wavelength	surface flux
0.8	103999782.19116768
0.8002000000000001	105178505.50903738
0.8004000500000003	106684503.29404703
0.8006001500125003	108194180.39628804
0.8008003000500035	109704234.91780472
0.8010005001250161	111214666.95295247
0.8012007502500472	112725476.59610684
0.8014010504376099	114603332.84167126
0.8016014007002193	116604481.43064919
0.8018018010503944	118606130.30677435
0.8020022515006572	120608279.59511945
0.8022027520635323	122610929.42078489
0.8024033027515483	124593480.73419249
0.8026039035772362	126556341.2970179
0.8028045545531306	128519692.57498413
0.8030052556917691	130483534.69077078
0.803206007005692	132447867.76708464
0.8034068085074435	134246138.99871337
0.8036076602095705	135577987.51035038
0.8038085621246229	136910168.98411423
0.8040095142651542	138242683.50324735
0.8042105166437206	139575531.1510098
0.8044115692728815	140916148.00804293
0.8046126721651998	142576935.3670027
0.8048138253332411	144238137.92280087
0.8050150287895745	145899755.77923954
0.805216282546772	147561789.04014185
0.8054175866174087	149224237.80935854
0.8056189410140631	151290022.2808875
0.8058203457493168	153470375.71682927
0.8060218008357541	155651274.24112725
0.8062233062859632	157832717.99005735
0.8064248621125346	160014707.09992322
0.806626468328063	162335578.97245744
0.8068281249451449	164775846.0386851
0.8070298319763813	167216723.17168236
0.8072315894343755	169658210.52396104
0.8074333973317341	172100308.2480787
0.8076352556810671	174642305.04025447
0.8078371644949874	177423941.43549472
0.8080391237861113	180206273.23983446
0.8082411335670578	182989300.62712356
0.8084431938504498	185773023.7712624
0.8086453046489125	188585571.99567938
0.8088474659750746	191922537.7249496
0.8090496778415686	195260337.6956566
0.809251940261029	198598972.11635387
0.8094542532460944	201938441.19565916
0.8096566168094059	205278745.14223048
0.8098590309636085	208318569.8461685
0.8100614957213493	211288629.42968923
0.8102640110952797	214259431.5281062
0.8104665770980536	217230976.327049
0.8106691937423283	220203264.01219264
0.8108718610407639	222884829.24762225
0.8110745790060241	225344196.48792574
0.8112773476507757	227804178.57004145
0.8114801669876885	230264775.64767706
0.8116830370294355	232725987.87458062
0.8118859577886929	235395082.0869373
0.8120889292781401	238495345.53550798
0.8122919515104597	241596384.0499406
0.8124950244983374	244698197.82400194
0.8126981482544621	247800787.05150634
0.8129013227915257	250949257.84723762
0.8131045481222237	254614985.45120943
0.8133078242592543	258281629.48708263
0.8135111512153191	261949190.1839638
0.813714529003123	265617667.77101964
0.8139179576353739	269287062.4774729
0.8141214371247829	272196058.4759067
0.8143249674840641	274958149.73474514
0.814528548725935	277720931.5163966
0.8147321808631167	280484403.9934972
0.8149358639083326	283248567.3387162
0.8151395978743097	284583668.7548434
0.8153433827737784	284953102.85258275
0.8155472186194719	285322629.30884635
0.8157511054241268	285692248.146724
0.815955043200483	286061959.3893114
0.8161590319612831	283833294.33437675
0.8163630717192736	276842694.9142961
0.8165671624872033	269850347.8443681
0.8167713042778252	262856252.68766582
0.8169754971038948	255860409.00717086
0.8171797409781707	247477621.08797473
0.8173840359134155	228034294.56128284
0.8175883819223938	208586107.20298168
0.8177927790178745	189133057.79782978
0.8179972272126291	169675145.13032156
0.8182017265194322	150212367.98466605
0.8184062769510622	145445064.254867
0.8186108785203001	142938733.31224638
0.8188155312399301	140431775.78689352
0.8190202351227402	137924191.5221565
0.819224990181521	135415980.3613549
0.8194297964290664	146517557.2086462
0.8196346538781738	165825562.98585072
0.8198395625416434	185138395.76449186
0.8200445224322789	204456056.75133577
0.820249533562887	223778547.1534207
0.8204545959462778	237567001.34695765
0.8206597095952644	242444246.01906466
0.8208648745226633	247322710.00234348
0.8210700907412941	252202393.60161734
0.8212753582639793	257083297.12178606
0.8214806771035456	261774126.3372289
0.8216860472728215	265287520.88860816
0.8218914687846397	268801793.7886254
0.822096941651836	272316945.25686955
0.822302465887249	275832975.5129787
0.8225080415037209	279349884.7766537
0.8227136685140968	283302037.51718885
0.8229193469312254	287304487.7164042
0.8231250767679583	291307938.5281707
0.8233308580371503	295312390.202638
0.8235366907516598	299317842.99002683
0.8237425749243477	304473667.50149727
0.8239485105680789	310239967.4656293
0.824154497695721	316007709.0047486
0.824360536320145	321776892.4792538
0.8245666264542252	327547518.24962735
0.8247727681108388	330837639.5063206
0.8249789613028664	330573967.8115878
0.8251852060431922	330310230.19893116
0.825391502344703	330046426.65187144
0.8255978502202894	329782557.15392476
0.8258042496828445	328612443.7302954
0.8260107007452654	323041120.7071706
0.8262172034204517	317468404.8532956
0.8264237577213068	311894295.8204557
0.8266303636607373	306318793.2603551
0.8268370212516525	300741896.82461727
0.8270437305069654	299696585.38119584
0.8272504914395923	299005235.47517973
0.8274573040624523	298313712.73168695
0.8276641683884679	297622017.1075089
0.8278710844305652	296930148.559424
0.8280780522016729	296484347.09232426
0.8282850717147234	296150990.0448573
0.8284921429826521	295817549.65812886
0.8286992660183978	295484025.91130346
0.8289064408349024	295150418.78354156
0.8291136674451112	294718030.8376823
0.8293209458619727	294161082.298526
0.8295282760984382	293603994.52223563
0.829735658167463	293046767.4740006
0.8299430920820048	292489401.11900413
0.8301505778550254	292284281.2909706
0.8303581154994891	293485585.3762775
0.8305657050283641	294687189.78760695
0.8307733464546212	295889094.60003835
0.8309810397912352	297091299.88867474
0.8311887850511829	298293805.72863096
0.8313965822474458	300836886.8433758
0.8316044313930077	303442812.964543
0.8318123325008561	306049390.56724286
0.8320202855839813	308656619.8143421
0.8322282906553774	311264500.8687534
0.8324363477280413	313327429.63868517
0.8326444568149735	315171215.7926681
0.8328526179291771	317015462.89318746
0.8330608310836596	318860171.05548465
0.8332690962914304	320705340.39482003
0.8334774135655034	321465526.4658027
0.833685782918895	321013425.36380935
0.8338942043646247	320561211.23654073
0.834102677915716	320108884.05574
0.834311203585195	319656443.7931444
0.8345197813860912	319312024.33208007
0.8347284113314379	319331507.6248399
0.8349370934342709	319350995.7884229
0.8351458277076294	319370488.82404673
0.8353546141645565	319389986.7329295
0.8355634528180977	319409489.5162896
0.8357723436813022	320946332.999516
0.8359812867672226	322502295.9248526
0.8361902820889144	324058647.8409198
0.8363993296594368	325615388.8449664
0.8366084294918518	327172519.0342646
0.8368175815992247	327092228.82411057
0.8370267859946247	326447840.0647305
0.8372360426911234	325803290.2081609
0.8374453517017962	325158579.2141272
0.8376547130397217	324513707.042345
0.8378641267179816	325334357.914071
0.8380735927496613	327609553.74185926
0.8382831111478488	329885318.3686031
0.8384926819256358	332161651.93650246
0.8387023050961173	334438554.5877957
0.8389119806723914	335874364.4999724
0.8391217086675596	334941821.5740529
0.8393314890947265	334009045.5124026
0.8395413219670003	333076036.25673676
0.8397512072974922	332142793.7487564
0.8399611450993165	331259542.16721004
0.8401711353855914	332870187.43600863
0.8403811781694378	334481235.3661241
0.8405912734639802	336092686.0582224
0.8408014212823464	337704539.6129945
0.8410116216376671	339316796.13115513
0.8412218745430766	337019821.9581737
0.8414321800117124	333584720.986429
0.8416425380567154	330148761.23943967
0.8418529486912297	326711942.5025128
0.8420634119284025	323274264.5609046
0.8422739277813847	323267513.53763187
0.8424844962633302	326284297.7563388
0.842695117387396	329301836.1710965
0.8429057911667428	332320128.97045803
0.8431165176145345	335339176.34302086
0.8433272967439382	333665472.0072595
0.8435381285681244	320542585.45462203
0.8437490131002665	307416418.1803493
0.8439599503535415	294286969.3642662
0.84417094034113	281154238.1859696
0.8443819830762154	268452038.7427133
0.8445930785719846	264485902.35494208
0.8448042268416277	260518774.43307614
0.8450154278983382	256550654.72923023
0.8452266817553128	252581542.9954587
0.8454379884257517	248611438.9837532
0.8456493479228583	248296037.46385244
0.845860760259839	248860892.38963872
0.846072225449904	249425888.52915642
0.8462837435062666	249991025.9177091
0.8464953144421433	250556304.59060928
0.8467069382707537	251660897.9407337
0.8469186150053215	253186036.51243776
0.847130344659073	254711556.3687852
0.8473421272452377	256237457.60509524
0.8475539627770492	257763740.3167159
0.8477658512677435	259406094.6742247
0.8479777927305605	261294512.26072255
0.8481897871787432	263183401.95161656
0.848401834625538	265072763.86493433
0.8486139350841944	266962598.11872926
0.8488260885679657	268770924.55580294
0.8490382950901076	269580392.6218629
0.8492505546638802	270390063.0549398
0.8494628673025462	271199935.9056247
0.8496752330193721	272010011.2245234
0.8498876518276269	272820289.0622508
0.8501001237405839	271100548.4876649
0.8503126487715191	268875301.4321106
0.850525226933712	266649498.06479362
0.8507378582404455	264423138.24663484
0.8509505427050057	262196221.83852023
0.8511632803406821	259655443.79302427
0.8513760711607672	256899474.06223464
0.8515889151785576	254142815.33900806
0.8518018124073523	251385467.45110297
0.8520147628604541	248627430.22622752
0.8522277665511693	248041705.87957668
0.8524408234928071	251474540.351565
0.8526539336986805	254908233.03217226
0.8528670971821053	258342784.13594988
0.8530803139564007	261778193.8774994
0.8532935840348901	265242595.86112756
0.8535069074308987	268945464.7969212
0.8537202841577566	272649259.44995195
0.8539337142287962	276353980.0516463
0.8541471976573534	280059626.8334888
0.8543607344567677	283766200.0270274
0.8545743246403821	283206992.3048897
0.8547879682215422	281970042.8544258
0.8550016652135977	280732784.1665994
0.8552154156299011	279495216.16410094
0.8554292194838088	278257338.76960105
0.8556430767886797	277184982.01099485
0.855856987557877	276213044.82326794
0.8560709518047664	275240864.65124476
0.8562849695427177	274268441.4341782
0.8564990407851035	273295775.1113071
0.8567131655452999	271917286.3684733
0.8569273438366862	269873897.86144793
0.8571415756726455	267829998.50729543
0.8573558610665638	265785588.17830363
0.8575702000318304	263740666.74673185
0.8577845925818384	262633850.38473216
0.857999038729984	267389700.5171888
0.8582135384896665	272146739.61217743
0.858428091874289	276904967.9669401
0.8586426988972576	281664385.8787902
0.8588573595719821	286424993.6451199
0.8590720739118751	286208491.49367654
0.8592868419303532	285404978.76336735
0.8595016636408359	284601265.1548755
0.8597165390567462	283797350.61798185
0.8599314681915105	282993235.1024537
0.8601464510585584	280255609.66138166
0.860361487671323	276491112.94737065
0.8605765780432408	272725675.10918224
0.8607917221877518	268959295.9115312
0.8610069201182988	265191975.11908174
0.8612221718483286	257111182.65805733
0.8614374773912907	242811274.6217813
0.8616528367606385	228507791.60850006
0.8618682499698288	214200732.72445646
0.8620837170323213	199890097.0756942
0.8622992379615795	187878363.0962098
0.8625148127710699	187257714.25583434
0.8627304414742627	186636910.25324872
0.8629461240846313	186015951.04966238
0.8631618606156526	185394836.60627508
0.8633776510808066	184773566.88427705
0.8635934954935769	192747194.6675469
0.8638093938674504	201427367.8829596
0.8640253462159173	210109711.14167586
0.8642413525524714	218794224.98620662
0.8644574128906095	227480909.9591967
0.8646735272438323	229421691.25564054
0.8648896956256433	228224915.73039433
0.8651059180495498	227027841.01126677
0.8653221945290621	225830467.02346057
0.8655385250776946	224632793.69215572
0.8657549097089641	226881907.69618872
0.8659713484363913	233544612.78054243
0.8661878412735006	240208983.54117033
0.866404388233819	246875020.39448744
0.8666209893308775	253542723.75701484
0.8668376445782103	258786702.3758945
0.8670543539893549	258214244.99974924
0.8672711175778525	257641644.50925958
0.8674879353572469	257068900.86864793
0.8677048073410862	256496014.04212588
0.8679217335429217	255922983.99389687
0.8681387139763074	253259140.86057806
0.8683557486548015	250490772.6158924
0.8685728375919655	247721712.2791422
0.8687899808013633	244951959.67731383
0.8690071782965637	242181514.63733143
0.869224430091138	239542587.621967
0.8694417361986609	236956797.21545526
0.8696590966327107	234370360.36134252
0.869876511406869	231783276.8980161
0.8700939805347206	229195546.66382506
0.8703115040298544	227478356.37817028
0.870529081905862	226756755.42501408
0.8707467141763385	226034974.07161984
0.8709644008548827	225313012.27288732
0.8711821419550964	224590869.98370552
0.8713999374905854	224542186.49910945
0.871617787474958	226818453.93316004
0.8718356919218269	229095290.43407118
0.8720536508448075	231372696.14410773
0.8722716642575187	233650671.20557043
0.8724897321735832	235929215.7607995
0.8727078546066265	240251512.17545232
0.8729260315702784	244605972.6682632
0.873144263078171	248961521.77619264
0.8733625491439405	253318159.77139947
0.8735808897812266	257675886.9261068
0.8737992850036719	258235259.87147567
0.874017734824923	257449072.19577762
0.8742362392586293	256662687.97316095
0.874454798318444	255876107.15448868
0.8746734120180236	255089329.6906118
0.8748920803710283	255090182.18617365
0.875110803391121	255882725.61250913
0.8753295810919689	256675467.17470163
0.875548413487242	257468406.9222847
0.8757673005906139	258261544.90480468
0.8759862424157616	261361834.07344574
0.8762052389763657	271138175.4066015
0.8764242902861098	280916960.82508373
0.8766433963586814	290698190.9399232
0.8768625572077712	300481866.36229444
0.8770817728470732	310196912.17414767
0.8773010432902849	314364988.75432307
0.8775203685511077	318534107.3536495
0.8777397486432454	322704268.2326206
0.8779591835804065	326875471.6518165
0.8781786733763015	331047717.87186164
0.8783982180446457	326335952.98719007
0.878617817599157	318979872.6212165
0.8788374720535569	311621953.2351548
0.8790571814215703	304262194.3692485
0.8792769457169257	296900595.5636256
0.879496764953355	293097511.58607
0.8797166391445934	292494470.03562117
0.8799365683043796	291891277.72478473
0.8801565524464557	291287934.61587054
0.8803765915845676	290684440.6711786
0.8805966857324639	291301779.1431772
0.880816834903897	294986015.93891793
0.881037039112623	298671173.7938591
0.8812572983724012	302357252.93826365
0.8814776126969944	306044253.6024559
0.8816979821001687	309687317.175848
0.8819184065956938	312275306.8482379
0.8821388861973429	314863943.51804847
0.8823594209188923	317453227.347024
0.882580010774122	320043158.4969557
0.8828006557768155	322633737.1296762
0.8830213559407598	332042724.918744
0.8832421112797452	343168801.18011796
0.8834629218075651	354297658.9605506
0.8836837875380171	365429298.95543164
0.8839047084849018	376563721.8603132
0.884125684662023	374704751.83072835
0.8843467160831886	362430541.3644257
0.8845678027622095	350153262.3455065
0.8847889447129001	337872914.0068302
0.8850101419490785	325589495.5810715
0.8852313944845657	316145259.3661928
0.885452702333187	312920005.4483506
0.8856740655087704	309693945.21702945
0.8858954840251476	306467078.4706513
0.8861169578961539	303239405.0075881
0.886338487135628	299627755.10298043
0.886560071757412	290916209.5576613
0.8867817117753515	282202486.125956
0.8870034072032955	273486584.2633889
0.8872251580550963	264768503.42536634
0.8874469643446101	256048243.06712893
0.8876688260856963	255250078.80902153
0.8878907432922178	256091745.51777014
0.8881127159780409	256933622.64319542
0.8883347441570356	257775710.23790303
0.8885568278430749	258618008.35450846
0.8887789670500358	258396939.5499525
0.8890011617917983	257421341.6337417
0.8892234120822464	256445499.81805143
0.8894457179352669	255469414.041908
0.8896680793647509	254493084.24431977
0.8898904963845921	255046889.3121289
0.8901129690086883	258520836.14770076
0.8903354972509405	261995651.46998063
0.8905580811252535	265471335.49609378
0.8907807206455347	268947888.44320875
0.8910034158256963	272487501.53502333
0.8912261666796527	276583798.307695
0.8914489732213227	280681119.1545609
0.8916718354646282	284779464.3316426
0.8918947534234944	288878834.0950146
0.8921177271118502	292979228.7008249
0.8923407565436284	294252075.7386334
0.8925638417327644	295063823.8737554
0.8927869826931977	295875774.94591147
0.8930101794388711	296687929.0058355
0.8932334319837308	297500286.10427433
0.8934567403417267	298052403.8400801
0.8936801045268123	298442825.27945364
0.8939035245529441	298833344.3241868
0.8941270004340824	299223960.9986813
0.894350532184191	299614675.3273443
0.8945741198172371	302221059.5504508
0.8947977633471915	308502357.60792303
0.8950214627880284	314785225.9899093
0.8952452181537254	321069665.08898735
0.8954690294582639	327355675.29784393
0.8956928967156286	333491993.5762258
0.8959168199398075	338648200.1381531
0.8961407991447926	343805695.7517222
0.8963648343445789	348964480.7391946
0.896588925553165	354124555.42291087
0.8968130727845534	359285920.12529874
0.8970372760527496	362749626.54871404
0.8972615353717629	366001626.2126669
0.8974858507556059	369254438.87653613
0.8977102222182949	372508064.7435704
0.8979346497738496	375762504.0170733
0.8981591334362931	378932818.83369297
0.8983836732196523	382057475.5975372
0.8986082691379572	385182913.52557033
0.8988329212052417	388309132.81308544
0.8990576294355432	391436133.6554252
0.8992823938429022	393985603.03702044
0.8995072144413631	395675831.5336248
0.8997320912449734	397366482.5873528
0.8999570242677847	399057556.3038438
0.9001820135238516	400749052.788764
0.9004070590272328	403299702.9267255
0.9006321607919896	410352750.4376415
0.9008573188321878	417407561.2104424
0.9010825331618959	424464135.6859332
0.9013078037951865	431522474.30504394
0.9015331307461353	438582577.5088057
0.9017585140288219	441819715.5854018
0.9019839536573292	444728229.0247526
0.9022094496457435	447637469.59246117
0.9024350020081551	450547437.470315
0.9026606107586572	453458132.8401373
0.902886275911347	457458969.1322279
0.9031119974803249	461985978.64931023
0.9033377754796951	466514119.9187719
0.903563609923565	471043393.22354895
0.903789500826046	475573798.8466552
0.9040154482012526	478614386.2458493
0.904241452063303	479724337.17962384
0.9044675124263188	480834565.6011316
0.9046936293044254	481945071.5797446
0.9049198027117517	483055855.1848527
0.9051460326624297	482742783.04924846
0.9053723191705955	476365341.1678524
0.9055986622503881	469986304.9259921
0.9058250619159507	463605673.92507094
0.9060515181814298	457223447.7663956
0.9062780310609752	450839626.0511851
0.9065046005687405	456367268.36889094
0.906731226718883	462560886.9927581
0.9069579095255627	468756054.0212731
0.907184649002944	474952769.84154564
0.907411445165195	481151034.8407796
0.9076382980264862	486613613.904556
0.907865207600993	491771386.07467335
0.9080921739028933	496930447.68783176
0.9083191969463691	502090799.0663926
0.9085462767456058	507252440.5328006
0.9087734133147922	512951530.6695129
0.9090006066681211	519271315.01480544
0.909227856819788	525592679.306176
0.9094551637839932	531915623.938628
0.9096825275749393	538240149.3072362
0.9099099482068329	544222138.180028
0.9101374256938848	548982622.5362767
0.9103649600503083	553744297.0136122
0.9105925512903209	558507161.9095662
0.9108201994281437	563271217.521749
0.9110479044780008	568036464.1478295
0.9112756664541204	578245144.3380748
0.911503485370734	588580948.6640829
0.9117313612420768	598919336.9411726
0.9119592940823873	609260309.8153284
0.912187283905908	619603867.932706
0.9124153307268845	623639785.4043618
0.9126434345595664	625386468.4657351
0.9128715954182063	627133588.1978719
0.9130998133170609	628881144.7099428
0.9133280882703902	630629138.1111416
0.913556420292458	634599526.0048753
0.9137848093975312	640862444.067418
0.9140132555998806	647126927.8594755
0.9142417589137806	653392977.7724813
