#wavelength	surface flux
0.7	4904179.806375178
0.7001166666666666	4911582.184777183
0.7002333527777778	4916032.36046938
0.700350058336574	4920483.277857525
0.7004667833462966	4924934.937065228
0.7005835278101878	4929387.338216145
0.7007002917314895	4933840.481433912
0.7008170751134447	4938294.366842216
0.7009338779592968	4942748.994564752
0.7010507002722901	4945520.50420467
0.7011675420556689	4946243.329457255
0.701284403312678	4946966.275180714
0.7014012840465635	4947689.341395128
0.7015181842605713	4948412.528120577
0.701635103957948	4949135.835377147
0.701752043141941	4949859.2631849265
0.701869001815798	4950582.811564008
0.7019859799827672	4951350.806890147
0.7021029776460976	4952149.77886313
0.7022199948090387	4952948.883998111
0.7023370314748403	4953748.122317281
0.7024540876467528	4954547.4938428365
0.702571163328027	4955346.998596978
0.7026882585219152	4956146.636601915
0.7028053732316688	4956946.407879851
0.7029225074605406	4961543.743305802
0.7030396612117841	4967608.207161224
0.7031568344886527	4973673.681760624
0.7032740272944008	4979740.167272453
0.7033912396322832	4985807.663865203
0.7035084715055552	4991876.171707381
0.7036257229174727	4997945.690967533
0.7037429938712924	5004016.221814235
0.7038602843702709	5008784.432167401
0.7039775944176659	5013332.382535344
0.7040949240167356	5017881.090895017
0.7042122731707383	5022430.557372747
0.7043296418829335	5026980.782094893
0.7044470301565806	5031531.765187826
0.70456443799494	5036083.506777937
0.7046818654012724	5040636.006991648
0.7047993123788394	5044471.396082303
0.7049167789309024	5048306.600616927
0.7050342650607243	5052142.444352314
0.7051517707715678	5055978.927394988
0.7052692960666963	5059816.0498515
0.705386840949374	5063653.811828421
0.7055044054228656	5067492.213432344
0.7056219894904361	5071276.692426765
0.7057395931553511	5074715.064285712
0.705857216420877	5078154.00920664
0.7059748592902804	5081593.5272850515
0.7060925217668288	5085033.618616479
0.70621020385379	5088474.283296462
0.7063279055544321	5091915.521420554
0.7064456268720246	5095357.333084338
0.7065633678098366	5098671.017236456
0.7066811283711383	5101630.8083505295
0.7067989085592001	5104591.092763121
0.7069167083772933	5107551.870556447
0.7070345278286895	5110513.14181274
0.707152366916661	5113474.906614243
0.7072702256444803	5116437.16504321
0.7073881040154211	5119399.917181918
0.7075060020327569	5121448.813539729
0.7076239196997625	5122166.440789259
0.7077418570197124	5122884.18764333
0.7078598139958823	5123602.054121876
0.7079777906315483	5124320.040244835
0.7080957869299869	5125038.146032149
0.7082138028944751	5125756.371503759
0.7083318385282908	5126474.716679616
0.7084498938347124	5125488.65320627
0.708567968817018	5123057.291405177
0.7086860634784875	5120625.524377114
0.7088041778224007	5118193.352054545
0.7089223118520377	5115760.774369924
0.7090404655706796	5113327.791255692
0.709158638981608	5110894.402644271
0.709276832088105	5108460.608468081
0.7093950448934531	5109765.364296249
0.7095132774009353	5112853.485862803
0.7096315296138355	5115942.122116284
0.7097498015354378	5119031.273142476
0.7098680931690269	5122120.939027167
0.7099864045178884	5125211.119856177
0.7101047355853081	5128301.815715324
0.7102230863745722	5131393.026690446
0.7103414568889679	5128877.135687519
0.7104598471317828	5125086.642630639
0.7105782571063047	5121295.517824917
0.7106966868158224	5117503.761165063
0.710815136263625	5113711.372545765
0.7109336054530023	5109918.351861695
0.7110520943872445	5106124.699007513
0.7111706030696424	5102330.413877852
0.7112891315034873	5100538.59938795
0.7114076796920712	5098842.060076276
0.7115262476386865	5097145.238008049
0.7116448353466263	5095448.133136146
0.711763442819184	5093750.745413429
0.711882070059654	5092053.074792758
0.7120007170713306	5090355.121226984
0.7121193838575091	5088868.228250557
0.7122380704214853	5089585.346916362
0.7123567767665555	5090302.585101943
0.7124755028960166	5091019.942827223
0.7125942488131658	5091737.420112124
0.7127130145213015	5092455.016976573
0.7128318000237216	5093172.733440498
0.7129506053237256	5093890.569523835
0.7130694304246129	5093259.51191673
0.7131882753296837	5087911.723300454
0.7133071400422386	5082563.043386075
0.7134260245655789	5077213.472025047
0.7135449289030065	5071863.00906879
0.7136638530578235	5066511.65436871
0.7137827970333332	5061159.407776172
0.7139017608328388	5055806.269142537
0.7140207444596443	5050788.982877217
0.7141397479170543	5046371.579267796
0.7142587712083737	5041953.439424448
0.7143778143369084	5037534.563224454
0.7144968773059646	5033114.950545094
0.7146159601188489	5028694.601263621
0.7147350627788687	5024273.515257268
0.7148541852893318	5019851.6924032485
0.7149733276535467	5014772.245738328
0.7150924898748222	5009029.56249136
0.715211671956468	5003285.922130516
0.7153308739017941	4997541.324496274
0.715450095714111	4991795.769429095
0.71556933739673	4986049.256769405
0.7156885989529628	4980301.786357605
0.7158078803861218	4974553.358034062
0.7159271816995193	4962585.198788424
0.7160465028964692	4946965.013165857
0.7161658439802853	4931342.22417902
0.7162852049542819	4915716.831394021
0.7164045858217744	4900088.834376882
0.716523986586078	4884458.23269358
0.7166434072505089	4868825.025910005
0.716762847818384	4853189.213591961
0.7168823082930204	4843666.4990858855
0.7170017886777359	4835941.411487034
0.7171212889758488	4828215.036373587
0.7172408091906781	4820487.373530952
0.7173603493255433	4812758.422744508
0.7174799093837642	4805028.183799604
0.7175994893686615	4797296.656481539
0.7177190892835562	4789563.840575592
0.7178387091317702	4789891.491116138
0.7179583489166254	4791028.458413105
0.7180780086414448	4792165.615204624
0.7181976883095517	4793302.961522275
0.7183173879242699	4794440.497397644
0.718437107488924	4795578.222862327
0.7185568470068389	4796716.137947921
0.7186766064813399	4797551.836602879
0.7187963859157535	4790826.856015456
0.7189161853134061	4784100.754597935
0.719036004677625	4777373.53216351
0.7191558440117378	4770645.18852535
0.7192757033190732	4763915.723496575
0.7193955826029597	4757185.136890302
0.7195154818667269	4750453.428519591
0.7196354011137046	4743002.808664472
0.7197553403472235	4732246.115723925
0.7198752995706147	4721487.630001225
0.7199952787872098	4710727.351197563
0.720115278000341	4699965.279014102
0.7202352972133411	4689201.413151942
0.7203553364295432	4678435.753312156
0.7204753956522815	4667668.299195712
0.7205954748848902	4659312.566412882
0.7207155741307044	4656276.341546988
0.7208356933930594	4653239.610643623
0.7209558326752915	4650202.37361844
0.7210759919807375	4647164.630387081
0.7211961713127342	4644126.380865188
0.7213163706746197	4641087.62496837
0.7214365900697322	4638048.362612239
0.7215568295014103	4632086.806915622
0.721677088972994	4622638.07376497
0.7217973684878227	4613187.765825474
0.7219176680492374	4603735.882834644
0.7220379876605789	4594282.424529987
0.722158327325189	4584827.390648943
0.7222786870464099	4575370.780928925
0.7223990668275843	4565912.595107282
0.7225194666720555	4556163.013850541
0.7226398865831676	4546206.405632513
0.7227603265642646	4536248.1379798055
0.722880786618692	4526288.210615801
0.7230012667497951	4516326.6232639095
0.7231217669609201	4506363.375647458
0.7232422872554135	4496398.467489746
0.7233628276366229	4486431.898513991
0.7234833881078956	4477708.143674128
0.7236039686725803	4469455.414093693
0.7237245693340255	4461201.30905834
0.7238451900955812	4452945.828338801
0.7239658309605971	4444688.971705818
0.7240864919324239	4436430.738930051
0.7242071730144127	4428171.129782154
0.724327874209915	4419910.144032751
0.7244485955222832	4403269.389354225
0.7245693369548704	4385240.564867936
0.7246900985110294	4367208.735577593
0.7248108801941148	4349173.900982318
0.7249316820074803	4331136.0605813395
0.7250525039544815	4313095.213873598
0.7251733460384739	4295051.360358069
0.7252942082628137	4277019.655670003
0.7254150906308574	4267766.891151942
0.7255359931459625	4258512.584506461
0.7256569158114868	4249256.735476536
0.7257778586307888	4239999.343805102
0.7258988216072273	4230740.409235058
0.7260198047441617	4221479.931509263
0.7261408080449525	4212217.910370498
0.72626183151296	4202890.075336341
0.7263828751515454	4193133.573141075
0.7265039389640706	4183375.444862112
0.726625022953898	4173615.69022843
0.7267461271243904	4163854.308968971
0.7268672514789111	4154091.3008126416
0.7269883960208241	4144326.665488295
0.7271095607534942	4134560.402724721
0.7272307456802866	4123843.605339197
0.7273519508045666	4110561.79521229
0.7274731761297006	4097277.7714503678
0.7275944216590555	4083991.533684486
0.7277156873959987	4070703.0815456384
0.7278369733438982	4057412.414664746
0.727958279506122	4044119.5326727424
0.7280796058860397	4030824.4352003904
0.7282009524870207	4015481.6665109415
0.7283223193124353	3997110.8844231428
0.7284437063656539	3978737.0405383673
0.7285651136500483	3960360.134346248
0.7286865411689898	3941980.1653364673
0.7288079889258514	3923597.1329984744
0.7289294569240056	3905211.0368218003
0.7290509451668262	3886821.8762957426
0.7291724536576875	3870612.858631945
0.7292939823999636	3856210.1620805664
0.7294155313970303	3841805.0650797333
0.7295371006522632	3827397.567229404
0.7296586901690385	3812987.6681294446
0.7297802999507332	3798575.367379641
0.7299019300007252	3784160.664579676
0.7300235803223919	3769743.5593292825
0.7301452509191123	3757216.160496797
0.7302669417942654	3745560.0135977124
0.7303886529512311	3733901.924007474
0.7305103843933897	3722241.8914023014
0.7306321361241218	3710579.91545837
0.7307539081468093	3698915.9958517607
0.7308757004648336	3687250.132258575
0.7309975130815778	3675582.3243547766
0.7311193460004248	3664073.585152199
0.7312411992247582	3652599.37919018
0.7313630727579622	3641123.2608605027
0.7314849666034219	3629645.229844426
0.7316068807645224	3618165.285823187
0.7317288152446498	3606683.4284779388
0.7318507700471907	3595199.6574897943
0.7319727451755319	3583713.9725398226
0.732094740633061	3568292.3350001425
0.7322167564231665	3552691.015536943
0.7323387925492371	3537087.095853832
0.7324608490146619	3521480.5755174453
0.732582925822831	3505871.4540943317
0.7327050229771347	3490259.731150999
0.7328271404809642	3474645.4062538263
0.7329492783377112	3459081.0896862834
0.7330714365507675	3444031.398093595
0.7331936151235259	3428979.198218978
0.7333158140593796	3413924.4896443994
0.7334380333617229	3398867.271951702
0.7335602730339499	3383807.5447227154
0.7336825330794556	3368745.3075391874
0.7338048135016354	3353680.5599828246
0.7339271143038857	3339212.730262353
0.734049435489603	3326750.9861686956
0.7341717770621846	3314287.165117687
0.7342941390250283	3301821.2667631763
0.7344165213815324	3289353.2907589446
0.734538924135096	3276883.236758694
0.7346613472891185	3264411.1044161264
0.734783790847	3251936.89338483
0.7349062548121412	3236995.4073727303
0.7350287391879431	3217694.0965986904
0.7351512439778078	3198389.568939482
0.7352737691851374	3179081.82385902
0.735396314813335	3159770.8608210282
0.7355188808658037	3140456.6792892283
0.7356414673459482	3121139.2787271338
0.7357640742571725	3101818.658598292
0.7358867016028818	3084107.8035615846
0.7360093493864824	3067986.9650557428
0.7361320176113801	3051863.439743505
0.736254706280982	3035737.227177048
0.7363774153986956	3019608.326908476
0.7365001449679286	3003476.7384898923
0.7366228949920899	2987342.4614732256
0.7367456654745885	2971205.4954103897
0.7368684564188344	2955580.353372754
0.7369912678282374	2940243.399342958
0.7371140997062088	2924903.88915415
0.7372369520561599	2909561.822380297
0.7373598248815024	2894217.198595349
0.7374827181856494	2878870.017373078
0.7376056319720137	2863520.2782872687
0.7377285662440091	2848167.9809116093
0.7378515210050496	2830304.5203476734
0.7379744962585505	2811683.3197700987
0.738097492007927	2793059.015659099
0.7382205082565949	2774431.6074974253
0.738343545007971	2755801.094767729
0.7384666022654723	2737167.4769525584
0.7385896800325165	2718530.7535344474
0.7387127783125219	2699890.9239957426
0.7388358971089073	2687514.451812251
0.7389590364250921	2675764.4587757136
0.7390821962644963	2664012.5074069942
0.7392053766305403	2652258.5973797305
0.7393285775266454	2640502.7283674544
0.7394517989562333	2628744.9000436645
0.7395750409227259	2616985.1120818397
0.7396983034295463	2605071.7482132115
0.739821586480118	2589783.5893172156
0.7399448900778645	2574492.8823947674
0.7400682142262109	2559199.6270211185
0.740191558928582	2543903.8227715907
0.7403149241884034	2528605.4692213666
0.7404383100091014	2513304.565945547
0.7405617163941028	2498001.112519191
0.7406851433468352	2482247.6459163735
0.7408085908707264	2464444.519947468
0.7409320589692048	2446638.4267909094
0.7410555476456997	2428829.365952144
0.7411790569036406	2411017.3369365847
0.7413025867464579	2393202.339249518
0.7414261371775823	2375384.372396165
0.7415497082004452	2357563.4358816836
0.7416732998184786	2339850.6116758673
0.741796912035115	2322373.129090103
0.7419205448537874	2304892.733590578
0.7420441982779297	2287409.4246918038
0.742167872310976	2269923.201908197
0.7422915669563612	2252434.064754127
0.7424152822175206	2234942.012743869
0.7425390180978901	2217447.04539162
0.7426627746009065	2201087.9576456076
0.7427865517300065	2186114.4165663566
0.7429103494886282	2171138.3798969095
0.7430341678802096	2156159.847221363
0.7431580069081896	2141178.8181237043
0.7432818665760077	2126195.2921878416
0.7434057468871037	2111209.268997669
0.7435296478449182	2096220.7481369732
0.7436535694528923	2080404.0190327256
0.7437775117144678	2064019.4298775804
0.7439014746330868	2047632.109957601
0.7440254582121922	2031242.0588176206
0.7441494624552276	2014849.2760024436
0.7442734873656368	1998453.761056801
0.7443975329468645	1982055.5135253211
0.7445215992023557	1965654.5329525878
0.7446456861355559	1949507.7249146595
0.7447697937499119	1933452.8631026824
0.7448939220488703	1917395.325480407
0.7450180710358784	1901335.1116018752
0.7451422407143843	1885272.2210210287
0.7452664310878367	1869206.653291737
0.7453906421596846	1853138.4079678408
0.7455148739333779	1837067.484603052
0.7456391264123667	1821228.7028161685
0.7457633996001021	1805424.8276622638
0.7458876935000356	1789618.3185291383
0.7460120081156189	1773809.1749778544
0.7461363434503048	1757997.3965693044
0.7462606995075466	1742182.9828643387
0.7463850762907978	1726365.9334237792
0.7465094738035127	1710547.7644781712
0.7466338920491467	1695123.7115665996
0.746758331031155	1679697.0879795272
0.7468827907529935	1664267.8932885423
0.7470072712181189	1648836.1270651082
0.7471317724299886	1633401.788880634
0.7472562943920602	1617964.8783064731
0.7473808371077922	1602525.3949138697
0.7475054005806435	1587059.6135865527
0.7476299848140736	1571445.1198583276
0.7477545898115426	1555828.0237144774
0.7478792155765113	1540208.3247212663
0.7480038621124406	1524586.0224449022
0.7481285294227926	1508961.1164514953
0.7482532175110298	1493333.606307073
0.7483779263806148	1477703.4915776488
0.7485026560350116	1462197.7594928178
0.7486274064776842	1447033.130475443
0.748752177712097	1431865.9740199265
0.7488769697417158	1416696.2897049682
0.749001782570006	1401524.0771093094
0.7491266162004343	1386349.3358115554
0.7492514706364677	1371172.065390245
0.7493763458815739	1355992.2654238492
0.7495012419392209	1340823.4726743156
0.7496261588128773	1325671.6131072002
0.7497510965060128	1310517.2282301465
0.7498760550220971	1295360.3176222853
0.7500010343646007	1280200.8808626542
0.7501260345369949	1265038.917530222
0.750251055542751	1249874.4272039183
0.7503760973853414	1234707.409462551
0.7505011600682389	1219795.2549356932
0.750626243594917	1205095.5306916162
0.7507513479688495	1190393.356493521
0.7508764731935109	1175688.7319330543
0.7510016192723765	1160981.6566018239
0.7511267862089218	1146272.1300913852
0.7512519740066232	1131560.1519931895
0.7513771826689577	1116845.7218986358
0.7515024121994025	1102727.1436166528
0.7516276626014359	1088885.175287364
0.751752933878536	1075040.8999633777
0.7518782260341824	1061194.3172601662
0.7520035390718548	1047345.4267931646
0.7521288729950334	1033494.2281777591
0.7522542278071992	1019640.7210292498
0.7523796035118337	1005784.9049628759
0.7525050001124189	992002.9505172946
0.7526304176124378	978235.2645516178
0.7527558560153731	964465.2839716312
0.752881315324709	950693.0083948678
0.7530067955439299	936918.4374388367
0.7531322966765205	923141.5707209979
0.7532578187259665	909362.407858702
0.7533833616957542	895580.9484692628
0.75350892558937	882083.5390063786
0.7536345104103016	868597.3448218703
0.7537601161620366	855108.9029383383
0.7538857428480638	841618.2129811461
0.7540113904718717	828125.2745756449
0.7541370590369503	814630.0873470792
0.7542627485467898	801132.6509206336
0.7543884590048808	787722.0813439373
0.7545141904147151	775197.9557352595
0.7546399427797842	762671.7427723336
0.7547657161035808	750143.4421072452
0.754891510389598	737613.0533920467
0.7550173256413296	725080.576278724
0.7551431618622698	712546.0104192187
0.7552690190559135	700009.3554654062
0.7553948972257561	687556.4690813787
0.7555207963752938	675389.7002395223
0.755646716508023	663220.9036028658
0.755772657627441	651050.0788334324
0.7558986197370455	638877.2255932022
0.756024602840335	626702.3435441018
0.7561506069408084	614525.4323479934
0.7562766320419653	602346.4916666746
0.7564026781473054	590259.3939063392
0.75652874526033	578335.4726153568
0.7566548333845401	566409.5640041532
0.7567809425234375	554481.6677415186
0.7569070726805247	542551.7834961804
0.7570332238593047	530619.9109368029
0.7571593960632813	518686.0497319874
0.7572855892959586	506750.1995503038
0.7574118035608413	495419.9600346142
0.7575380388614347	484682.2670298568
0.7576642952012449	473942.7844095945
0.7577905725837782	463201.5118755777
0.7579168710125422	452458.4491294527
0.7580431904910444	441713.59587286605
0.7581695310227928	430966.95180741686
0.7582958926112967	420218.5166346099
0.7584222752600652	409918.4505667943
0.7585486789726085	399875.2678547798
0.7586751037524372	389830.4112789761
0.7588015496030628	379783.8805603902
0.7589280165279966	369735.6754200377
0.7590545045307512	359685.79557882855
0.7591810136148396	349634.24075764604
0.7593075437837755	339581.01067731186
0.7594340950410726	330143.0808712039
0.7595606673902461	320882.5853239195
0.7596872608348112	311620.54636070126
0.7598138753782836	302356.9637243327
0.75994051102418	293091.83715751604
0.7600671677760173	283825.1664029455
0.7601938456373134	274556.9512032422
0.7603205446115863	265287.1913010107
0.7604472647023548	256708.45273409603
0.7605740059131385	248197.12538443878
0.7607007682474575	239684.37948021494
0.7608275517088319	231170.21478502595
0.7609543563007835	222654.6310623689
0.7610811820268336	214137.62807576318
0.7612080288905045	205619.20558867604
0.7613348968953197	197126.89641194823
0.7614617860448022	189198.08919008967
0.7615886963424764	181267.96050034996
0.7617156277918667	173336.51012250295
0.7618425803964988	165403.73783625313
0.7619695541598982	157469.64342129102
0.7620965490855914	149534.22665726565
0.7622235651771058	141597.4873237704
0.7623506024379685	133932.63731342435
0.7624776608717082	127464.02834298256
0.7626047404818536	120994.34127104543
0.7627318412719337	114523.57591794073
0.762858963245479	108051.7321039398
0.7629861064060198	101578.8096493026
0.7631132707570876	95104.80837424958
0.7632404563022137	88629.72809898987
0.7633676630449308	82572.38231998817
0.7634948909887717	77405.54224592468
0.7636221401372697	72237.84103185557
0.7637494104939593	67069.2785342459
0.7638767020623748	61899.85460956076
0.7640040148460518	56729.569114215614
0.7641313488485262	51558.421904621435
0.7642587040733344	46386.412837153126
0.7643860805240132	41905.91762304872
0.7645134782041005	38250.88760858855
0.7646408971171346	34595.248422457786
0.764768337266654	30938.999963130664
0.7648957986561985	27282.142129059146
0.7650232812893079	23624.674818682433
0.7651507851695227	19966.597930420623
0.7652783103003843	16307.911362677885
0.7654058566854343	13806.975795735614
0.7655334243282153	12095.076566981206
