#wavelength	surface flux
0.8	5456710.532060643
0.8002000000000001	5527482.357569303
0.8004000500000003	5601223.548703099
0.8006001500125003	5675012.989934815
0.8008003000500035	5748820.878526845
0.8010005001250161	5822647.219091058
0.8012007502500472	5896492.016240304
0.8014010504376099	5967589.898058198
0.8016014007002193	6037779.237694057
0.8018018010503944	6107986.124664823
0.8020022515006572	6178210.5633573625
0.8022027520635323	6248452.558159515
0.8024033027515483	6321139.815335263
0.8026039035772362	6396224.297548002
0.8028045545531306	6471327.550881297
0.8030052556917691	6546449.580027963
0.803206007005692	6621590.389681849
0.8034068085074435	6696816.556924302
0.8036076602095705	6772248.142872045
0.8038085621246229	6847698.586716215
0.8040095142651542	6923167.893171393
0.8042105166437206	6998656.06695316
0.8044115692728815	7074108.806987547
0.8046126721651998	7147244.622464707
0.8048138253332411	7220398.721895677
0.8050150287895745	7293571.109851573
0.805216282546772	7366761.790904438
0.8054175866174087	7439970.769627528
0.8056189410140631	7514846.9651813535
0.8058203457493168	7590208.629558114
0.8060218008357541	7665589.134350874
0.8062233062859632	7740988.484269869
0.8064248621125346	7816406.684026292
0.806626468328063	7894999.492961242
0.8068281249451449	7976322.3615593035
0.8070298319763813	8057665.560874614
0.8072315894343755	8139029.095989693
0.8074333973317341	8220412.97198858
0.8076352556810671	8297410.5652520545
0.8078371644949874	8363819.916796807
0.8080391237861113	8430245.870679462
0.8082411335670578	8496688.431050546
0.8084431938504498	8563147.602061793
0.8086453046489125	8629351.658751814
0.8088474659750746	8690513.157180723
0.8090496778415686	8751689.945984319
0.809251940261029	8812882.028985074
0.8094542532460944	8874089.410006631
0.8096566168094059	8935312.092873372
0.8098590309636085	9007152.838375054
0.8100614957213493	9081493.205905013
0.8102640110952797	9155852.158526864
0.8104665770980536	9230229.700886901
0.8106691937423283	9304625.837632556
0.8108718610407639	9379980.981947629
0.8110745790060241	9456074.04609706
0.8112773476507757	9532186.133512594
0.8114801669876885	9608317.248949964
0.8116830370294355	9684467.397166146
0.8118859577886929	9757128.370113002
0.8120889292781401	9822520.796897585
0.8122919515104597	9887929.571788859
0.8124950244983374	9953354.698873859
0.8126981482544621	10018796.18224062
0.8129013227915257	10086191.689494
0.8131045481222237	10175790.58911897
0.8133078242592543	10265411.888468856
0.8135111512153191	10355055.593143554
0.813714529003123	10444721.708744433
0.8139179576353739	10534410.240874225
0.8141214371247829	10656530.535112381
0.8143249674840641	10784966.075564492
0.814528548725935	10913433.724901637
0.8147321808631167	11041933.491151292
0.8149358639083326	11170465.382342469
0.8151395978743097	11279782.050786378
0.8153433827737784	11376121.72732367
0.8155472186194719	11472485.48878006
0.8157511054241268	11568873.341176797
0.815955043200483	11665285.290536698
0.8161590319612831	11744818.792488147
0.8163630717192736	11793400.314550908
0.8165671624872033	11841993.981994132
0.8167713042778252	11890599.797854263
0.8169754971038948	11939217.765168386
0.8171797409781707	11953341.995865561
0.8173840359134155	11691998.542103427
0.8175883819223938	11430589.752478153
0.8177927790178745	11169115.610655323
0.8179972272126291	10907576.100296967
0.8182017265194322	10645971.205061287
0.8184062769510622	10599952.83590724
0.8186108785203001	10587108.601964485
0.8188155312399301	10574261.156963263
0.8190202351227402	10561410.500100777
0.819224990181521	10548556.630574081
0.8194297964290664	10894077.327752532
0.8196346538781738	11455695.97641133
0.8198395625416434	12017455.029732069
0.8200445224322789	12579354.522816375
0.820249533562887	13141394.490773788
0.8204545959462778	13570942.018139208
0.8206597095952644	13787127.77904064
0.8208648745226633	14003367.586382464
0.8210700907412941	14219661.453676088
0.8212753582639793	14436009.394436317
0.8214806771035456	14634806.773671124
0.8216860472728215	14725187.76888295
0.8218914687846397	14815591.359343583
0.822096941651836	14906017.550701879
0.822302465887249	14996466.348607961
0.8225080415037209	15086937.75871357
0.8227136685140968	15173982.658210918
0.8229193469312254	15260657.770766484
0.8231250767679583	15347354.552100219
0.8233308580371503	15434073.007629238
0.8235366907516598	15520813.142772203
0.8237425749243477	15680138.50483827
0.8239485105680789	15877963.65107088
0.824154497695721	16075838.253589924
0.824360536320145	16273762.324759634
0.8245666264542252	16471735.87694713
0.8247727681108388	16646521.186428765
0.8249789613028664	16788069.380512867
0.8251852060431922	16929652.96164561
0.825391502344703	17071271.93867358
0.8255978502202894	17212926.32044593
0.8258042496828445	17353880.839191906
0.8260107007452654	17491299.673873458
0.8262172034204517	17628752.86326354
0.8264237577213068	17766240.415951006
0.8266303636607373	17903762.340526704
0.8268370212516525	18041318.645583477
0.8270437305069654	18141414.659916088
0.8272504914395923	18238605.732709322
0.8274573040624523	18335821.103270777
0.8276641683884679	18433060.777674787
0.8278710844305652	18530324.761997517
0.8280780522016729	18654947.258766606
0.8282850717147234	18792095.321739
0.8284921429826521	18929277.671726994
0.8286992660183978	19066494.317302592
0.8289064408349024	19203745.26703949
0.8291136674451112	19337315.625907034
0.8293209458619727	19466235.070067596
0.8295282760984382	19595186.744089026
0.829735658167463	19724170.65602911
0.8299430920820048	19853186.81394701
0.8301505778550254	19983998.300770152
0.8303581154994891	20121879.43854856
0.8305657050283641	20259795.04661155
0.8307733464546212	20397745.13357645
0.8309810397912352	20535729.708063316
0.8311887850511829	20673748.77869353
0.8313965822474458	20863052.26708927
0.8316044313930077	21054781.860918347
0.8318123325008561	21246559.387146063
0.8320202855839813	21438384.85775524
0.8322282906553774	21630258.284732085
0.8324363477280413	21784176.22197495
0.8326444568149735	21922832.58054588
0.8328526179291771	22061523.603206288
0.8330608310836596	22200249.29862257
0.8332690962914304	22339009.675462525
0.8334774135655034	22455339.232592333
0.833685782918895	22546603.159908928
0.8338942043646247	22637889.90320729
0.834102677915716	22729199.468191545
0.834311203585195	22820531.860566974
0.8345197813860912	22924955.87916836
0.8347284113314379	23073396.783584848
0.8349370934342709	23221874.798227355
0.8351458277076294	23370389.93237334
0.8353546141645565	23518942.195303116
0.8355634528180977	23667531.596298557
0.8357723436813022	23770640.58935482
0.8359812867672226	23873213.333830953
0.8361902820889144	23975811.721493147
0.8363993296594368	24078435.758752294
0.8366084294918518	24181085.452020787
0.8368175815992247	24372092.81326819
0.8370267859946247	24593570.37634095
0.8372360426911234	24815103.30880441
0.8374453517017962	25036691.624500968
0.8376547130397217	25258335.337276418
0.8378641267179816	25443263.63988204
0.8380735927496613	25591751.961427797
0.8382831111478488	25740277.405053858
0.8384926819256358	25888839.980040744
0.8387023050961173	26037439.695671503
0.8389119806723914	26183636.49790168
0.8391217086675596	26323002.713807866
0.8393314890947265	26462403.771267917
0.8395413219670003	26601839.67899235
0.8397512072974922	26741310.44569381
0.8399611450993165	26880050.858862143
0.8401711353855914	26980825.344592843
0.8403811781694378	27081625.02394495
0.8405912734639802	27182449.90321692
0.8408014212823464	27283299.988708757
0.8410116216376671	27384175.286721952
0.8412218745430766	27517001.946285482
0.8414321800117124	27659151.088059682
0.8416425380567154	27801335.767119396
0.8418529486912297	27943555.992348906
0.8420634119284025	28085811.772634603
0.8422739277813847	28343988.91852324
0.8424844962633302	28704330.496760562
0.842695117387396	29064762.160391986
0.8429057911667428	29425283.93193933
0.8431165176145345	29785895.833929732
0.8433272967439382	30037596.282830622
0.8435381285681244	30023474.513489373
0.8437490131002665	30009349.213705793
0.8439599503535415	29995220.38259728
0.84417094034113	29981088.019280974
0.8443819830762154	29977105.57048271
0.8445930785719846	30177664.196143802
0.8448042268416277	30378272.9614612
0.8450154278983382	30578931.878969904
0.8452266817553128	30779640.961207967
0.8454379884257517	30980400.220716614
0.8456493479228583	31268073.934683256
0.845860760259839	31576737.52597784
0.846072225449904	31885478.28317024
0.8462837435062666	32194296.22555201
0.8464953144421433	32503191.37241955
0.8467069382707537	32743198.455842916
0.8469186150053215	32929509.21768818
0.847130344659073	33115866.557223957
0.8473421272452377	33302270.486094434
0.8475539627770492	33488721.01594732
0.8477658512677435	33651197.85578321
0.8479777927305605	33762711.3651969
0.8481897871787432	33874252.752987914
0.848401834625538	33985822.02612594
0.8486139350841944	34097419.19158217
0.8488260885679657	34183115.71881462
0.8490382950901076	33952774.00254093
0.8492505546638802	33722374.70083806
0.8494628673025462	33491917.79930984
0.8496752330193721	33261403.2835559
0.8498876518276269	33030831.13917333
0.8501001237405839	31493111.2453476
0.8503126487715191	29694088.780096542
0.850525226933712	27894616.55923017
0.8507378582404455	26094694.4703086
0.8509505427050057	24294322.40086376
0.8511632803406821	22914213.10142899
0.8513760711607672	21821870.046260737
0.8515889151785576	20729253.905327
0.8518018124073523	19636364.61035894
0.8520147628604541	18543202.093067784
0.8522277665511693	18198345.145414565
0.8524408234928071	19237808.09962106
0.8526539336986805	20277530.919566385
0.8528670971821053	21317513.670216765
0.8530803139564007	22357756.41655358
0.8532935840348901	23526869.84224557
0.8535069074308987	25782457.94108048
0.8537202841577566	28038609.936941996
0.8539337142287962	30295325.97080273
0.8541471976573534	32552606.18367052
0.8543607344567677	34810450.71659194
0.8545743246403821	35432607.73377803
0.8547879682215422	35795064.7748658
0.8550016652135977	36157612.430213794
0.8552154156299011	36520250.72247564
0.8554292194838088	36882979.67431082
0.8556430767886797	37120578.485990584
0.855856987557877	37282205.921294145
0.8560709518047664	37443873.76345642
0.8562849695427177	37605582.0225793
0.8564990407851035	37767330.708767004
0.8567131655452999	37875762.9395854
0.8569273438366862	37896795.22936139
0.8571415756726455	37917832.77720983
0.8573558610665638	37938875.584445246
0.8575702000318304	37959923.65238244
0.8577845925818384	38030532.45790909
0.857999038729984	38410700.67245483
0.8582135384896665	38790963.929054104
0.858428091874289	39171322.251467556
0.8586426988972576	39551775.663461514
0.8588573595719821	39932324.1888086
0.8590720739118751	39936252.08180911
0.8592868419303532	39895765.04193865
0.8595016636408359	39855267.88030822
0.8597165390567462	39814760.59438739
0.8599314681915105	39774243.18164507
0.8601464510585584	39244017.672577806
0.860361487671323	38453731.34467946
0.8605765780432408	37663247.44519937
0.8607917221877518	36872565.92474376
0.8610069201182988	36081686.73390824
0.8612221718483286	34525467.84493151
0.8614374773912907	31865804.192706242
0.8616528367606385	29205475.624568634
0.8618682499698288	26544481.97428731
0.8620837170323213	23882823.075593855
0.8622992379615795	21666037.00981321
0.8625148127710699	21653494.8410937
0.8627304414742627	21640949.536832005
0.8629461240846313	21628401.096244242
0.8631618606156526	21615849.51854633
0.8633776510808066	21603294.802954
0.8635934954935769	22497222.360480446
0.8638093938674504	23465679.648603305
0.8640253462159173	24434379.051048163
0.8642413525524714	25403320.62834361
0.8644574128906095	26372504.441033177
0.8646735272438323	26886073.21445273
0.8648896956256433	27187784.08797955
0.8651059180495498	27489570.38922477
0.8653221945290621	27791432.137045015
0.8655385250776946	28093369.350302637
0.8657549097089641	28622083.27478964
0.8659713484363913	29441156.782904442
0.8661878412735006	30260435.059396654
0.866404388233819	31079918.155457877
0.8666209893308775	31899606.12229274
0.8668376445782103	32532172.124614242
0.8670543539893549	32400320.149900515
0.8672711175778525	32268435.21219302
0.8674879353572469	32136517.303251244
0.8677048073410862	32004566.414832182
0.8679217335429217	31872582.538690932
0.8681387139763074	32193890.48898181
0.8683557486548015	32537798.788490344
0.8685728375919655	32881793.06507418
0.8687899808013633	33225873.340226408
0.8690071782965637	33570039.635447875
0.869224430091138	33484628.21087322
0.8694417361986609	33224365.79209797
0.8696590966327107	32964038.307718083
0.869876511406869	32703645.74146709
0.8700939805347206	32443188.077074658
0.8703115040298544	32299389.49403474
0.870529081905862	32289004.4841649
0.8707467141763385	32278616.878042594
0.8709644008548827	32268226.675018758
0.8711821419550964	32257833.87444417
0.8713999374905854	32244581.569478683
0.871617787474958	32221465.77693749
0.8718356919218269	32198344.205448136
0.8720536508448075	32175216.85356591
0.8722716642575187	32152083.719845723
0.8724897321735832	32128944.802842103
0.8727078546066265	32574828.8711373
0.8729260315702784	33027959.87663902
0.873144263078171	33481204.164891634
0.8733625491439405	33934561.764216356
0.8735808897812266	34388032.70294108
0.8737992850036719	34391659.33818648
0.874017734824923	34235919.27149783
0.8742362392586293	34080140.269792564
0.874454798318444	33924322.32333689
0.8746734120180236	33768465.42239461
0.8748920803710283	33661119.8452019
0.875110803391121	33602535.844831645
0.8753295810919689	33543937.198461264
0.875548413487242	33485323.902429286
0.8757673005906139	33426695.9530733
0.8759862424157616	33706902.59292091
0.8762052389763657	34967655.56949739
0.8764242902861098	36228723.73431715
0.8766433963586814	37490107.16617845
0.8768625572077712	38751805.943898104
0.8770817728470732	39997898.969316445
0.8773010432902849	40001218.19105128
0.8775203685511077	40004538.24259155
0.8777397486432454	40007859.12414471
0.8779591835804065	40011180.835918255
0.8781786733763015	40014503.378119744
0.8783982180446457	39231110.38229742
0.878617817599157	38213488.12340535
0.8788374720535569	37195611.45894905
0.8790571814215703	36177480.32532689
0.8792769457169257	35159094.658921294
0.879496764953355	34780863.073963866
0.8797166391445934	34978306.39530885
0.8799365683043796	35175799.0774842
0.8801565524464557	35373341.132830076
0.8803765915845676	35570932.573689975
0.8805966857324639	35779565.553695455
0.880816834903897	36015859.655545935
0.881037039112623	36252212.83092197
0.8812572983724012	36488625.09459183
0.8814776126969944	36725096.46132771
0.8816979821001687	36962268.83613754
0.8819184065956938	37214610.708153926
0.8821388861973429	37467015.66563858
0.8823594209188923	37719483.72436236
0.882580010774122	37972014.90010071
0.8828006557768155	38224609.20863313
0.8830213559407598	38834367.217692986
0.8832421112797452	39534092.079897374
0.8834629218075651	40233991.8733169
0.8836837875380171	40934066.64168499
0.8839047084849018	41634316.42874528
0.884125684662023	41579554.55801385
0.8843467160831886	40919593.28898707
0.8845678027622095	40259467.02964304
0.8847889447129001	39599175.73873404
0.8850101419490785	38938719.37500244
0.8852313944845657	39370077.4892006
0.885452702333187	42191752.8378347
0.8856740655087704	45014133.60530555
0.8858954840251476	47837219.96796752
0.8861169578961539	50661012.10221884
0.886338487135628	53164608.21794423
0.886560071757412	51398457.212394215
0.8867817117753515	49631864.66909287
0.8870034072032955	47864830.4776549
0.8872251580550963	46097354.527671136
0.8874469643446101	44329436.708698794
0.8876688260856963	43993066.07315376
0.8878907432922178	43952979.85422079
0.8881127159780409	43912883.61373312
0.8883347441570356	43872777.34918527
0.8885568278430749	43832661.05807134
0.8887789670500358	43276691.78719073
0.8890011617917983	42354658.13000757
0.8892234120822464	41432393.9644097
0.8894457179352669	40509899.23277118
0.8896680793647509	39587173.87744902
0.8898904963845921	38924536.53255567
0.8901129690086883	38758428.44455879
0.8903354972509405	38592278.82953995
0.8905580811252535	38426087.67711723
0.8907807206455347	38259854.97690663
0.8910034158256963	38113191.430841655
0.8912261666796527	38141751.44631463
0.8914489732213227	38170318.60179148
0.8916718354646282	38198892.899057224
0.8918947534234944	38227474.33989726
0.8921177271118502	38256062.92609748
0.8923407565436284	37501418.88455153
0.8925638417327644	36618818.47741854
0.8927869826931977	35735997.42018347
0.8930101794388711	34852955.657684155
0.8932334319837308	33969693.134744346
0.8934567403417267	33455617.730918944
0.8936801045268123	33170957.35481594
0.8939035245529441	32886225.813619107
0.8941270004340824	32601423.089536864
0.894350532184191	32316549.16477367
0.8945741198172371	33243140.27117244
0.8947977633471915	36179151.378829814
0.8950214627880284	39115896.48926398
0.8952452181537254	42053375.78597401
0.8954690294582639	44991589.45250999
0.8956928967156286	47800622.84676605
0.8959168199398075	49767257.55994371
0.8961407991447926	51734383.93180017
0.8963648343445789	53702002.08524954
0.896588925553165	55670112.14323617
0.8968130727845534	57638714.22873754
0.8970372760527496	57364165.445711866
0.8972615353717629	56808823.100982055
0.8974858507556059	56253341.920666
0.8977102222182949	55697721.87005502
0.8979346497738496	55141962.91443108
0.8981591334362931	54990353.43614839
0.8983836732196523	55059801.88454261
0.8986082691379572	55129267.69504887
0.8988329212052417	55198750.872007765
0.8990576294355432	55268251.41976096
0.8992823938429022	55237273.97168802
0.8995072144413631	55056864.9336363
0.8997320912449734	54876410.79332513
0.8999570242677847	54695911.53947893
0.9001820135238516	54515367.16081925
0.9004070590272328	54648663.66276872
0.9006321607919896	56427491.07476131
0.9008573188321878	58206763.1936087
0.9010825331618959	59986480.13048495
0.9013078037951865	61766641.99659571
0.9015331307461353	63547248.90317205
0.9017585140288219	65999441.46136576
0.9019839536573292	68510054.13854876
0.9022094496457435	71021294.46889925
0.9024350020081551	73533162.60933515
0.9026606107586572	76045658.71680537
0.902886275911347	76858332.88823986
0.9031119974803249	76851474.93699385
0.9033377754796951	76844615.27126005
0.903563609923565	76837753.89060982
0.903789500826046	76830890.79461442
0.9040154482012526	76017701.26310813
0.904241452063303	74159785.1638016
0.9044675124263188	72301404.58547065
0.9046936293044254	70442559.41199541
0.9049198027117517	68583249.5272259
0.9051460326624297	67069223.54108161
0.9053723191705955	67027097.55774553
0.9055986622503881	66984961.04291367
0.9058250619159507	66942813.99395309
0.9060515181814298	66900656.408230245
0.9062780310609752	66858488.283111
0.9065046005687405	68996699.93448502
0.906731226718883	71257083.66828151
0.9069579095255627	73518032.49800852
0.907184649002944	75779546.56494312
0.907411445165195	78041626.01039675
0.9076382980264862	79704846.20396791
0.907865207600993	81119542.2050724
0.9080921739028933	82534591.88017677
0.9083191969463691	83949995.31769969
0.9085462767456058	85365752.60608266
0.9087734133147922	85206865.42126262
0.9090006066681211	83228795.82570392
0.909227856819788	81250231.71274893
0.9094551637839932	79271172.95876299
0.9096825275749393	77291619.44008917
0.9099099482068329	75935053.21315
0.9101374256938848	76794014.32371716
0.9103649600503083	77653190.17456158
0.9105925512903209	78512580.81936853
0.9108201994281437	79372186.31183757
0.9110479044780008	80232006.70567876
0.9112756664541204	82498710.83554703
0.911503485370734	84798180.04185347
0.9117313612420768	87098224.1154615
0.9119592940823873	89398843.20008722
0.912187283905908	91700037.43948483
0.9124153307268845	92109079.58019619
0.9126434345595664	91831274.5691292
0.9128715954182063	91553400.10680972
0.9130998133170609	91275456.17587453
0.9133280882703902	90997442.75895661
0.913556420292458	90407646.53607078
0.9137848093975312	89496228.33257332
0.9140132555998806	88584582.2745251
0.9142417589137806	87672708.30496232
0.9144703193535092	86760606.36690657
0.9146989369333476	85984642.12572388
