#wavelength	surface flux
0.7	96271653.73178597
0.7001166666666666	96661911.83595484
0.7002333527777778	97574263.73423265
0.700350058336574	98486767.69115971
0.7004667833462966	99399423.73207842
0.7005835278101878	100312231.88233979
0.7007002917314895	101225192.1672914
0.7008170751134447	102138304.61229038
0.7009338779592968	103051569.24269643
0.7010507002722901	103690451.92262529
0.7011675420556689	103995351.2605876
0.701284403312678	104300301.41510575
0.7014012840465635	104605302.39465009
0.7015181842605713	104910354.20769095
0.701635103957948	105215456.86270045
0.701752043141941	105520610.3681524
0.701869001815798	105825814.73252234
0.7019859799827672	105616789.95304531
0.7021029776460976	105049820.40622441
0.7022199948090387	104482756.36447833
0.7023370314748403	103915597.81205888
0.7024540876467528	103348344.73321411
0.702571163328027	102780997.11219046
0.7026882585219152	102213554.93322846
0.7028053732316688	101646018.1805708
0.7029225074605406	101591246.2821541
0.7030396612117841	101734503.80663493
0.7031568344886527	101877785.20736988
0.7032740272944008	102021090.48833819
0.7033912396322832	102164419.65352006
0.7035084715055552	102307772.706896
0.7036257229174727	102451149.65244755
0.7037429938712924	102594550.49415682
0.7038602843702709	103732938.4475676
0.7039775944176659	105040269.17396139
0.7040949240167356	106347817.7888101
0.7042122731707383	107655584.32842727
0.7043296418829335	108963568.8291351
0.7044470301565806	110271771.32725951
0.70456443799494	111580191.85913259
0.7046818654012724	112888830.46109511
0.7047993123788394	106068040.66073251
0.7049167789309024	99236784.93194275
0.7050342650607243	92404390.66052097
0.7051517707715678	85570857.65672383
0.7052692960666963	78736185.73076276
0.705386840949374	71900374.69281694
0.7055044054228656	65063424.353020325
0.7056219894904361	59212012.21352281
0.7057395931553511	59629856.5348683
0.705857216420877	60047770.496934354
0.7059748592902804	60465754.111327186
0.7060925217668288	60883807.389656164
0.70621020385379	61301930.34353147
0.7063279055544321	61720122.98456522
0.7064456268720246	62138385.32437311
0.7065633678098366	62574522.68875859
0.7066811283711383	63059768.90448246
0.7067989085592001	63545095.99457562
0.7069167083772933	64030503.97251682
0.7070345278286895	64515992.85178799
0.707152366916661	65001562.64587247
0.7072702256444803	65487213.36825541
0.7073881040154211	65972945.03242606
0.7075060020327569	66323528.419662766
0.7076239196997625	66477229.50149219
0.7077418570197124	66630956.20016843
0.7078598139958823	66784708.519961104
0.7079777906315483	66938486.46514056
0.7080957869299869	67092290.03997743
0.7082138028944751	67246119.24874336
0.7083318385282908	67399974.09571086
0.7084498938347124	67132324.9048781
0.708567968817018	66507249.629734665
0.7086860634784875	65882070.175377995
0.7088041778224007	65256786.52444508
0.7089223118520377	64631398.65957118
0.7090404655706796	64005906.56338682
0.709158638981608	63380310.21851903
0.709276832088105	62754609.607593656
0.7093950448934531	62572111.54486108
0.7095132774009353	62601000.876191214
0.7096315296138355	62629895.022409916
0.7097498015354378	62658793.98431965
0.7098680931690269	62687697.76272301
0.7099864045178884	62716606.3584228
0.7101047355853081	62745519.77222187
0.7102230863745722	62774438.00492322
0.7103414568889679	62741396.661816396
0.7104598471317828	62694270.04127655
0.7105782571063047	62647135.56629999
0.7106966868158224	62599993.2355776
0.710815136263625	62552843.0478001
0.7109336054530023	62505685.00165794
0.7110520943872445	62458519.09584144
0.7111706030696424	62411345.32904061
0.7112891315034873	62795906.55553757
0.7114076796920712	63201131.570616685
0.7115262476386865	63606424.12319832
0.7116448353466263	64011784.224538445
0.711763442819184	64417211.88589568
0.711882070059654	64822707.118530154
0.7120007170713306	65228269.93370315
0.7121193838575091	65591111.71560871
0.7122380704214853	65507739.543576635
0.7123567767665555	65424353.47618265
0.7124755028960166	65340953.51111072
0.7125942488131658	65257539.64604468
0.7127130145213015	65174111.87866756
0.7128318000237216	65090670.206662804
0.7129506053237256	65007214.62771259
0.7130694304246129	64852595.31197529
0.7131882753296837	64449185.364585735
0.7133071400422386	64045708.182204835
0.7134260245655789	63642163.753627144
0.7135449289030065	63238552.067644574
0.7136638530578235	62834873.11304788
0.7137827970333332	62431126.87862484
0.7139017608328388	62027313.353162825
0.7140207444596443	61883733.40993304
0.7141397479170543	62204480.480207585
0.7142587712083737	62525281.008326724
0.7143778143369084	62846135.003200814
0.7144968773059646	63167042.47374078
0.7146159601188489	63488003.42885906
0.7147350627788687	63809017.8774699
0.7148541852893318	64130085.8284887
0.7149733276535467	64541490.505209915
0.7150924898748222	65044003.3248078
0.715211671956468	65546599.896542385
0.7153308739017941	66049280.23437265
0.715450095714111	66552044.35225899
0.71556933739673	67054892.26416504
0.7156885989529628	67557823.98405634
0.7158078803861218	68060839.52590172
0.7159271816995193	68264538.86170815
0.7160465028964692	68292543.00188048
0.7161658439802853	68320551.8094095
0.7162852049542819	68348565.2850731
0.7164045858217744	68376583.42964932
0.716523986586078	68404606.24391632
0.7166434072505089	68432633.72865233
0.716762847818384	68460665.8846358
0.7168823082930204	68744801.9907702
0.7170017886777359	69104328.77069147
0.7171212889758488	69463915.47174248
0.7172408091906781	69823562.10391045
0.7173603493255433	70183268.67718388
0.7174799093837642	70543035.20155266
0.7175994893686615	70902861.68700899
0.7177190892835562	71262748.14354606
0.7178387091317702	71853101.44018942
0.7179583489166254	72466682.03136405
0.7180780086414448	73080364.88597104
0.7181976883095517	73694150.02105376
0.7183173879242699	74308037.45365906
0.718437107488924	74922027.2008366
0.7185568470068389	75536119.27963892
0.7186766064813399	76142940.8278787
0.7187963859157535	76565525.28355071
0.7189161853134061	76988180.16996531
0.719036004677625	77410905.49886103
0.7191558440117378	77833701.28197797
0.7192757033190732	78256567.53105934
0.7193955826029597	78679504.2578484
0.7195154818667269	79102511.47409229
0.7196354011137046	79417133.44553465
0.7197553403472235	79232458.21282066
0.7198752995706147	79047752.2009013
0.7199952787872098	78863015.4046465
0.720115278000341	78678247.81892566
0.7202352972133411	78493449.43860719
0.7203553364295432	78308620.25855893
0.7204753956522815	78123760.27364707
0.7205954748848902	77980216.47496668
0.7207155741307044	77927803.4257471
0.7208356933930594	77875381.64101939
0.7209558326752915	77822951.11932756
0.7210759919807375	77770511.85921538
0.7211961713127342	77718063.85922657
0.7213163706746197	77665607.11790437
0.7214365900697322	77613141.63379198
0.7215568295014103	77979354.72170173
0.721677088972994	78845193.34674363
0.7217973684878227	79711176.27822159
0.7219176680492374	80577303.54018916
0.7220379876605789	81443575.15669987
0.722158327325189	82309991.15181364
0.7222786870464099	83176551.54959282
0.7223990668275843	84043256.37410532
0.7225194666720555	84483222.84167817
0.7226398865831676	84620720.10418358
0.7227603265642646	84758240.28289908
0.722880786618692	84895783.38164465
0.7230012667497951	85033349.40423992
0.7231217669609201	85170938.35450566
0.7232422872554135	85308550.23626298
0.7233628276366229	85446185.05333415
0.7234833881078956	85560050.79043181
0.7236039686725803	85664902.5936731
0.7237245693340255	85769771.87221476
0.7238451900955812	85874658.6289697
0.7239658309605971	85979562.86685064
0.7240864919324239	86084484.58877139
0.7242071730144127	86189423.79764578
0.724327874209915	86294380.4963881
0.7244485955222832	87028880.72098257
0.7245693369548704	87867590.173303
0.7246900985110294	88706439.41053091
0.7248108801941148	89545428.45596725
0.7249316820074803	90384557.33290836
0.7250525039544815	91223826.06466366
0.7251733460384739	92063234.67454106
0.7252942082628137	92901981.70295586
0.7254150906308574	93276463.9466295
0.7255359931459625	93651008.60401045
0.7256569158114868	94025615.68550107
0.7257778586307888	94400285.20150547
0.7258988216072273	94775017.1624291
0.7260198047441617	95149811.57867913
0.7261408080449525	95524668.46066584
0.72626183151296	95833493.25135876
0.7263828751515454	95703133.19007498
0.7265039389640706	95572751.40211433
0.726625022953898	95442347.88385563
0.7267461271243904	95311922.63167714
0.7268672514789111	95181475.6419567
0.7269883960208241	95051006.91107143
0.7271095607534942	94920516.4353976
0.7272307456802866	94800609.1313357
0.7273519508045666	94709328.29145238
0.7274731761297006	94618032.23809578
0.7275944216590555	94526720.96873029
0.7277156873959987	94435394.48081987
0.7278369733438982	94344052.77182798
0.727958279506122	94252695.83921818
0.7280796058860397	94161323.68045284
0.7282009524870207	94254420.53563212
0.7283223193124353	94620405.64595647
0.7284437063656539	94986451.75379844
0.7285651136500483	95352558.86932567
0.7286865411689898	95718727.00270472
0.7288079889258514	96084956.16410689
0.7289294569240056	96451246.36370179
0.7290509451668262	96817597.6116637
0.7291724536576875	97530607.59760603
0.7292939823999636	98530929.90641177
0.7294155313970303	99531418.9356043
0.7295371006522632	100532074.71296811
0.7296586901690385	101532897.26629402
0.7297802999507332	102533886.62337838
0.7299019300007252	103535042.81202483
0.7300235803223919	104536365.86003338
0.7301452509191123	105322833.83142474
0.7302669417942654	106010185.31139739
0.7303886529512311	106697651.34995024
0.7305103843933897	107385231.96617636
0.7306321361241218	108072927.17917132
0.7307539081468093	108760737.00803635
0.7308757004648336	109448661.47187138
0.7309975130815778	110136700.58978453
0.7311193460004248	110951702.72252727
0.7312411992247582	111795557.53415544
0.7313630727579622	112639552.98825203
0.7314849666034219	113483689.10825849
0.7316068807645224	114327965.91761777
0.7317288152446498	115172383.43977898
0.7318507700471907	116016941.69819434
0.7319727451755319	116861640.71631911
0.732094740633061	117952281.78808886
0.7322167564231665	119054170.68441407
0.7323387925492371	120156243.2288887
0.7324608490146619	121258499.45212047
0.732582925822831	122360939.38472302
0.7327050229771347	123463563.05731308
0.7328271404809642	124566370.50051637
0.7329492783377112	125609118.28131042
0.7330714365507675	126059782.84975047
0.7331936151235259	126510522.52895182
0.7333158140593796	126961337.33143252
0.7334380333617229	127412227.26971433
0.7335602730339499	127863192.35631938
0.7336825330794556	128314232.60377231
0.7338048135016354	128765348.02459893
0.7339271143038857	128865279.77416113
0.734049435489603	127788270.14781594
0.7341717770621846	126711081.01986618
0.7342941390250283	125633712.36039564
0.7344165213815324	124556164.13948226
0.734538924135096	123478436.32719716
0.7346613472891185	122400528.89361142
0.734783790847	121322441.80878638
0.7349062548121412	119973317.06848912
0.7350287391879431	118145214.94247384
0.7351512439778078	116316808.13276716
0.7352737691851374	114488096.58859438
0.735396314813335	112659080.25916263
0.7355188808658037	110829759.09367901
0.7356414673459482	109000133.04133074
0.7357640742571725	107170202.05130833
0.7358867016028818	106487704.48987766
0.7360093493864824	106938588.3691787
0.7361320176113801	107389547.39579232
0.736254706280982	107840581.58224374
0.7363774153986956	108291690.94106014
0.7365001449679286	108742875.48476876
0.7366228949920899	109194135.2259017
0.7367456654745885	109645470.17699148
0.7368684564188344	109385747.94335794
0.7369912678282374	108724065.37285553
0.7371140997062088	108062272.52192442
0.7372369520561599	107400369.3721842
0.7373598248815024	106738355.90525386
0.7374827181856494	106076232.10274456
0.7376056319720137	105413997.94626816
0.7377285662440091	104751653.41743222
0.7378515210050496	104897611.40255351
0.7379744962585505	105286820.56391436
0.738097492007927	105676094.59346868
0.7382205082565949	106065433.50202768
0.738343545007971	106454837.3004047
0.7384666022654723	106844305.99941516
0.7385896800325165	107233839.60987487
0.7387127783125219	107623438.1426035
0.7388358971089073	107563339.58908452
0.7389590364250921	107458118.7722616
0.7390821962644963	107352880.41863582
0.7392053766305403	107247624.52528456
0.7393285775266454	107142351.08928435
0.7394517989562333	107037060.10771136
0.7395750409227259	106931751.57764162
0.7396983034295463	106926501.06228195
0.739821586480118	109147505.11763285
0.7399448900778645	111368879.3403219
0.7400682142262109	113590623.79205482
0.740191558928582	115812738.53452733
0.7403149241884034	118035223.62945516
0.7404383100091014	120258079.13856605
0.7405617163941028	122481305.1235937
0.7406851433468352	123977400.0544049
0.7408085908707264	122145599.50901258
0.7409320589692048	120313493.66353025
0.7410555476456997	118481082.46707217
0.7411790569036406	116648365.86874938
0.7413025867464579	114815343.81765966
0.7414261371775823	112982016.26289427
0.7415497082004452	111148383.15353781
0.7416732998184786	109845136.7602017
0.741796912035115	109680112.6742848
0.7419205448537874	109515061.08435363
0.7420441982779297	109349981.98582414
0.742167872310976	109184875.3741114
0.7422915669563612	109019741.24463007
0.7424152822175206	108854579.59279385
0.7425390180978901	108689390.41401576
0.7426627746009065	108183875.35204653
0.7427865517300065	107263427.97872098
0.7429103494886282	106342827.1974989
0.7430341678802096	105422072.982814
0.7431580069081896	104501165.30909337
0.7432818665760077	103580104.15075915
0.7434057468871037	102658889.48223265
0.7435296478449182	101737521.27792859
0.7436535694528923	101089462.68215652
0.7437775117144678	100628490.00437696
0.7439014746330868	100167440.4978185
0.7440254582121922	99706314.14967519
0.7441494624552276	99245110.94714035
0.7442734873656368	98783830.87740518
0.7443975329468645	98322473.92765802
0.7445215992023557	97861040.08508596
0.7446456861355559	97226873.06462777
0.7447697937499119	96528998.36333211
0.7448939220488703	95831007.3495864
0.7450180710358784	95132900.00400567
0.7451422407143843	94434676.30720061
0.7452664310878367	93736336.23977876
0.7453906421596846	93037879.78234641
0.7455148739333779	92339306.91550426
0.7456391264123667	92461379.79111618
0.7457633996001021	92714708.34486994
0.7458876935000356	92968079.12004977
0.7460120081156189	93221492.12369166
0.7461363434503048	93474947.36283427
0.7462606995075466	93728444.84451698
0.7463850762907978	93981984.57577957
0.7465094738035127	94232749.59484552
0.7466338920491467	93746653.03607248
0.746758331031155	93260475.46120581
0.7468827907529935	92774216.85674392
0.7470072712181189	92287877.20918126
0.7471317724299886	91801456.50501059
0.7472562943920602	91314954.7307229
0.7473808371077922	90828371.87280573
0.7475054005806435	90348715.49214293
0.7476299848140736	89912143.07884075
0.7477545898115426	89475497.90346956
0.7478792155765113	89038779.9539024
0.7480038621124406	88601989.21801063
0.7481285294227926	88165125.683663
0.7482532175110298	87728189.33872585
0.7483779263806148	87291180.17106514
0.7485026560350116	86893816.24746215
0.7486274064776842	86603881.58967029
0.748752177712097	86313898.60943598
0.7488769697417158	86023867.29870434
0.749001782570006	85733787.64942127
0.7491266162004343	85443659.65353008
0.7492514706364677	85153483.30297275
0.7493763458815739	84863258.58969006
0.7495012419392209	84506163.20900904
0.7496261588128773	84052943.29786299
0.7497510965060128	83599647.85006477
0.7498760550220971	83146276.85302542
0.7500010343646007	82692830.29415315
0.7501260345369949	82239308.16085419
0.750251055542751	81785710.44053352
0.7503760973853414	81332037.12059252
0.7505011600682389	80757629.68862289
0.750626243594917	80082379.43372327
0.7507513479688495	79407016.63711554
0.7508764731935109	78731541.28004146
0.7510016192723765	78055953.34374103
0.7511267862089218	77380252.80945186
0.7512519740066232	76704439.65840672
0.7513771826689577	76028513.87183602
0.7515024121994025	75452026.34514734
0.7516276626014359	74921858.96784899
0.751752933878536	74391603.22932202
0.7518782260341824	73861259.11483844
0.7520035390718548	73330826.60966888
0.7521288729950334	72800305.69908206
0.7522542278071992	72269696.36834344
0.7523796035118337	71738998.60271612
0.7525050001124189	71261564.32849583
0.7526304176124378	70795653.33588596
0.7527558560153731	70329664.69144458
0.752881315324709	69863598.38222869
0.7530067955439299	69397454.39529441
0.7531322966765205	68931232.71769628
0.7532578187259665	68464933.33648506
0.7533833616957542	67998556.23871033
0.75350892558937	67224012.73621519
0.7536345104103016	66434852.933100246
0.7537601161620366	65645561.60335185
0.7538857428480638	64856138.72504773
0.7540113904718717	64066584.27626491
0.7541370590369503	63276898.23507415
0.7542627485467898	62487080.57954268
0.7543884590048808	61697141.52716067
0.7545141904147151	60907172.92697479
0.7546399427797842	60117072.66535682
0.7547657161035808	59326840.72036179
0.754891510389598	58536477.07004264
0.7550173256413296	57745981.69244812
0.7551431618622698	56955354.565624185
0.7552690190559135	56164595.66761262
0.7553948972257561	55343570.04180139
0.7555207963752938	54421255.94802847
0.755646716508023	53498788.13524044
0.755772657627441	52576166.57781664
0.7558986197370455	51653391.25013313
0.756024602840335	50730462.126561895
0.7561506069408084	49807379.18147008
0.7562766320419653	48884142.389219925
0.7564026781473054	47963894.3205914
0.75652874526033	47049023.00856082
0.7566548333845401	46133999.21797778
0.7567809425234375	45218822.92342995
0.7569070726805247	44303494.099500224
0.7570332238593047	43388012.720766634
0.7571593960632813	42472378.76180238
0.7572855892959586	41556592.19717825
0.7574118035608413	40648758.1744092
0.7575380388614347	39748702.40118184
0.7576642952012449	38848496.6186586
0.7577905725837782	37948140.801839575
0.7579168710125422	37047634.92571615
0.7580431904910444	36146978.96527968
0.7581695310227928	35246172.895517625
0.7582958926112967	34345216.691409476
0.7584222752600652	33375966.158912078
0.7585486789726085	32367407.860222634
0.7586751037524372	31358681.468483023
0.7588015496030628	30349786.955676153
0.7589280165279966	29340724.29378581
0.7590545045307512	28331493.454785157
0.7591810136148396	27322094.41064469
0.7593075437837755	26312527.133328713
0.7594340950410726	25496724.540004596
0.7595606673902461	24737053.01946041
0.7596872608348112	23977254.88699537
0.7598138753782836	23217330.121509098
0.75994051102418	22457278.70189453
0.7600671677760173	21697100.60704395
0.7601938456373134	20936795.81584365
0.7603205446115863	20176364.307178576
0.7604472647023548	19414564.29858384
0.7605740059131385	18652513.892391305
0.7607007682474575	17890336.477796994
0.7608275517088319	17128032.03363528
0.7609543563007835	16365600.53873118
0.7610811820268336	15603041.971911721
0.7612080288905045	14840356.311999256
0.7613348968953197	14081749.916815659
0.7614617860448022	13409322.696592206
0.7615886963424764	12736783.405164467
0.7617156277918667	12064132.023855472
0.7618425803964988	11391368.533982374
0.7619695541598982	10718492.91686114
0.7620965490855914	10045505.153804217
0.7622235651771058	9372405.22611934
0.7623506024379685	8732954.843227508
0.7624776608717082	8241379.224983532
0.7626047404818536	7749721.677469827
0.7627318412719337	7257982.187032382
0.762858963245479	6766160.740012888
0.7629861064060198	6274257.32275218
0.7631132707570876	5782271.921588084
0.7632404563022137	5290204.522857569
0.7633676630449308	4850113.951675854
0.7634948909887717	4520766.015285643
0.7636221401372697	4191363.187573129
0.7637494104939593	3861905.459389019
0.7638767020623748	3532392.8215840207
0.7640040148460518	3202825.26500568
0.7641313488485262	2873202.780501254
0.7642587040733344	2543525.358915704
0.7643860805240132	2271139.974960343
0.7645134782041005	2067141.336138965
0.7646408971171346	1863108.6975443657
0.764768337266654	1659042.0535100752
0.7648957986561985	1454941.3983683798
0.7650232812893079	1250806.7264508544
0.7651507851695227	1046638.0320880075
0.7652783103003843	842435.3096094588
0.7654058566854343	706425.8605695257
0.7655334243282153	616892.4371172213
