#wavelength	surface flux
0.8	117963.47036712899
0.8002000000000001	119830.26983168109
0.8004000500000003	121897.0015253242
0.8006001500125003	123966.26470012861
0.8008003000500035	126036.04519072687
0.8010005001250161	128106.34312644876
0.8012007502500472	130177.15863665157
0.8014010504376099	132117.74223578986
0.8016014007002193	134015.01385436745
0.8018018010503944	135912.75979084964
0.8020022515006572	137810.98016381683
0.8022027520635323	139709.6750918756
0.8024033027515483	141753.47048143196
0.8026039035772362	143939.50445535366
0.8028045545531306	146126.08493776893
0.8030052556917691	148313.21206530588
0.803206007005692	150500.88597462277
0.8034068085074435	152687.4686701334
0.8036076602095705	154870.00608623686
0.8038085621246229	157053.0891366926
0.8040095142651542	159236.7179579123
0.8042105166437206	161420.8926863366
0.8044115692728815	163607.7726571831
0.8046126721651998	165888.07029010498
0.8048138253332411	168168.9379974333
0.8050150287895745	170450.37592169055
0.805216282546772	172732.38420542824
0.8054175866174087	175014.9629912357
0.8056189410140631	177264.4965051822
0.8058203457493168	179505.07691784643
0.8060218008357541	181746.21747561096
0.8062233062859632	183987.91831851605
0.8064248621125346	186230.17958663034
0.806626468328063	188612.30236147234
0.8068281249451449	191114.66332385433
0.8070298319763813	193617.64987648
0.8072315894343755	196121.26217574195
0.8074333973317341	198625.50037807965
0.8076352556810671	200959.68550539398
0.8078371644949874	202883.60100181034
0.8080391237861113	204807.99747710125
0.8082411335670578	206732.8750515098
0.8084431938504498	208658.23384531395
0.8086453046489125	210557.56183694562
0.8088474659750746	211963.75607774447
0.8090496778415686	213370.30186710542
0.809251940261029	214777.1992929127
0.8094542532460944	216184.44844307762
0.8096566168094059	217592.04940552847
0.8098590309636085	219402.45743297035
0.8100614957213493	221307.5159798871
0.8102640110952797	223213.05079144082
0.8104665770980536	225119.0619866982
0.8106691937423283	227025.54968475507
0.8108718610407639	228979.7356812366
0.8110745790060241	230970.51816174347
0.8112773476507757	232961.7983378722
0.8114801669876885	234953.57633404445
0.8116830370294355	236945.8522747146
0.8118859577886929	238684.66424484793
0.8120889292781401	239896.42065667192
0.8122919515104597	241108.48000759882
0.8124950244983374	242320.84237336353
0.8126981482544621	243533.50782971946
0.8129013227915257	244861.0713966603
0.8131045481222237	247501.0964856323
0.8133078242592543	250141.78158087685
0.8135111512153191	252783.1268473945
0.813714529003123	255425.13245022908
0.8139179576353739	258067.79855446483
0.8141214371247829	262532.5466696547
0.8143249674840641	267351.6152065342
0.814528548725935	272171.888510545
0.8147321808631167	276993.3668828883
0.8149358639083326	281816.05062482326
0.8151395978743097	285919.3644132934
0.8153433827737784	289536.8529056255
0.8155472186194719	293155.2457700793
0.8157511054241268	296774.5432327486
0.815955043200483	300394.745519786
0.8161590319612831	304950.35931847274
0.8163630717192736	311219.4811988926
0.8165671624872033	317490.1703597756
0.8167713042778252	323762.427192955
0.8169754971038948	330036.2520903458
0.8171797409781707	335467.09039519366
0.8173840359134155	334156.94188881683
0.8175883819223938	332846.4658453149
0.8177927790178745	331535.66218280134
0.8179972272126291	330224.5308193718
0.8182017265194322	328913.0716731028
0.8184062769510622	334078.76272935036
0.8186108785203001	340242.5332114362
0.8188155312399301	346407.8446361343
0.8190202351227402	352574.69738869544
0.819224990181521	358743.0918544408
0.8194297964290664	364556.8250013052
0.8196346538781738	370157.310603394
0.8198395625416434	375759.19632688107
0.8200445224322789	381362.4825218014
0.820249533562887	386967.16953826876
0.8204545959462778	392187.25144341955
0.8206597095952644	396787.37167724187
0.8208648745226633	401388.6419411262
0.8210700907412941	405991.0625225757
0.8212753582639793	410594.63370916597
0.8214806771035456	414679.1377308944
0.8216860472728215	415559.4858381946
0.8218914687846397	416440.0540325218
0.822096941651836	417320.842368898
0.822302465887249	418201.8509023577
0.8225080415037209	419083.07968795137
0.8227136685140968	419983.33238128584
0.8229193469312254	420885.9447394496
0.8231250767679583	421788.78275070316
0.8233308580371503	422691.846471459
0.8235366907516598	423595.1359581458
0.8237425749243477	430419.9018871583
0.8239485105680789	440384.7409283454
0.824154497695721	450352.07117928646
0.824360536320145	460321.89326279215
0.8245666264542252	470294.2078018182
0.8247727681108388	477895.1889139498
0.8249789613028664	482098.30393100565
0.8251852060431922	486302.4697268193
0.825391502344703	490507.68656408007
0.8255978502202894	494713.95470555394
0.8258042496828445	499251.078345931
0.8260107007452654	505391.05228844733
0.8262172034204517	511532.561224443
0.8264237577213068	517675.60553767433
0.8266303636607373	523820.1856119866
0.8268370212516525	529966.3018313145
0.8270437305069654	532334.3286225059
0.8272504914395923	534407.5942161848
0.8274573040624523	536481.3781262627
0.8276641683884679	538555.6804823162
0.8278710844305652	540630.5014139613
0.8280780522016729	544998.7295253337
0.8282850717147234	550416.1247693753
0.8284921429826521	555834.8743622224
0.8286992660183978	561254.978642472
0.8289064408349024	566676.4379487877
0.8291136674451112	571356.3396605621
0.8293209458619727	575100.6353328887
0.8295282760984382	578845.8670791283
0.829735658167463	582592.0351333088
0.8299430920820048	586339.1397294981
0.8301505778550254	590130.5498474932
0.8303581154994891	594096.0051819232
0.8305657050283641	598062.4518801906
0.8307733464546212	602029.8901901296
0.8309810397912352	605998.3203596525
0.8311887850511829	609967.74263671
0.8313965822474458	619333.0484013532
0.8316044313930077	628951.1009274877
0.8318123325008561	638571.5579667628
0.8320202855839813	648194.420120293
0.8322282906553774	657819.6879893625
0.8324363477280413	663818.8120213939
0.8326444568149735	668358.5943434642
0.8328526179291771	672899.51161111
0.8330608310836596	677441.5641080793
0.8332690962914304	681984.752118167
0.8334774135655034	684492.1296662082
0.833685782918895	684724.7981954514
0.8338942043646247	684957.5248918268
0.834102677915716	685190.3097698764
0.834311203585195	685423.1528441454
0.8345197813860912	687157.6518667336
0.8347284113314379	693947.1029221513
0.8349370934342709	700738.2513403291
0.8351458277076294	707531.0975456032
0.8353546141645565	714325.6419624399
0.8355634528180977	721121.885015378
0.8357723436813022	724400.2334395518
0.8359812867672226	727635.943436739
0.8361902820889144	730872.462361424
0.8363993296594368	734109.7904158412
0.8366084294918518	737347.927802273
0.8368175815992247	745504.0581320775
0.8370267859946247	755355.7559656819
0.8372360426911234	765209.9167237418
0.8374453517017962	775066.5410219901
0.8376547130397217	784925.6294763118
0.8378641267179816	793118.6809608535
0.8380735927496613	799658.1932518581
0.8382831111478488	806199.3404209318
0.8384926819256358	812742.1228767942
0.8387023050961173	819286.5410282762
0.8389119806723914	825341.232070819
0.8391217086675596	830014.5801454386
0.8393314890947265	834689.0965570733
0.8395413219670003	839364.7815978113
0.8397512072974922	844041.6355598128
0.8399611450993165	848728.7275895698
0.8401711353855914	853867.3474543641
0.8403811781694378	859007.2519741232
0.8405912734639802	864148.4414700135
0.8408014212823464	869290.9162632802
0.8410116216376671	874434.6766752446
0.8412218745430766	879198.899844301
0.8414321800117124	883853.5092183502
0.8416425380567154	888509.2822447451
0.8418529486912297	893166.2192143977
0.8420634119284025	897824.3204182888
0.8422739277813847	910354.186635702
0.8424844962633302	929821.4897584649
0.842695117387396	949293.6597069837
0.8429057911667428	968770.6976979903
0.8431165176145345	988252.6049485041
0.8433272967439382	1001616.2312026077
0.8435381285681244	1000047.133969258
0.8437490131002665	998477.6444616002
0.8439599503535415	996907.7625815666
0.84417094034113	995337.4882310617
0.8443819830762154	994256.9051629481
0.8445930785719846	1003048.8330229769
0.8448042268416277	1011842.9588649658
0.8450154278983382	1020639.2832384141
0.8452266817553128	1029437.8066929551
0.8454379884257517	1038238.5297783609
0.8456493479228583	1052129.8222559849
0.845860760259839	1067249.9280171327
0.846072225449904	1082373.8138047208
0.8462837435062666	1097501.4805637589
0.8464953144421433	1112632.9292394954
0.8467069382707537	1124401.1206629546
0.8469186150053215	1133547.7497728933
0.847130344659073	1142696.665540112
0.8473421272452377	1151847.8685362635
0.8475539627770492	1161001.3593331734
0.8477658512677435	1169695.610135918
0.8479777927305605	1177412.0397893593
0.8481897871787432	1185130.398550212
0.848401834625538	1192850.686900759
0.8486139350841944	1200572.9053233892
0.8488260885679657	1207540.5332609864
0.8490382950901076	1205288.180198453
0.8492505546638802	1203035.2640476525
0.8494628673025462	1200781.7846678153
0.8496752330193721	1198527.7419181298
0.8498876518276269	1196273.1356577598
0.8501001237405839	1155801.8786901082
0.8503126487715191	1107691.9017489138
0.850525226933712	1059569.897313511
0.8507378582404455	1011435.8623769996
0.8509505427050057	963289.7939317262
0.8511632803406821	924444.0238289557
0.8513760711607672	891965.7864177852
0.8515889151785576	859479.4294472114
0.8518018124073523	826984.9508874222
0.8520147628604541	794482.3487080121
0.8522277665511693	786448.1418326475
0.8524408234928071	823678.2932626256
0.8526539336986805	860917.7522304711
0.8528670971821053	898166.521063061
0.8530803139564007	935424.6020878152
0.8532935840348901	977114.2760894651
0.8535069074308987	1056162.773863784
0.8537202841577566	1135231.033762613
0.8539337142287962	1214319.0607264256
0.8541471976573534	1293426.8596969298
0.8543607344567677	1372554.435617191
0.8545743246403821	1403116.5857988712
0.8547879682215422	1425970.4902448573
0.8550016652135977	1448830.1081669517
0.8552154156299011	1471695.4409935279
0.8554292194838088	1494566.4901533274
0.8556430767886797	1511972.4707661425
0.855856987557877	1526061.0859191695
0.8560709518047664	1540153.2232259759
0.8562849695427177	1554248.8835671144
0.8564990407851035	1568348.067823342
0.8567131655452999	1581428.3224955879
0.8569273438366862	1592836.5216075794
0.8571415756726455	1604247.572769351
0.8573558610665638	1615661.4766939175
0.8575702000318304	1627078.2340944526
0.8577845925818384	1638731.298711418
0.857999038729984	1651845.510206475
0.8582135384896665	1664963.0002544026
0.858428091874289	1678083.7696748432
0.8586426988972576	1691207.8192876354
0.8588573595719821	1704335.149912835
0.8590720739118751	1716290.2216403228
0.8592868419303532	1728109.6823711314
0.8595016636408359	1739932.0979671227
0.8597165390567462	1751757.469167009
0.8599314681915105	1763585.7967096984
0.8601464510585584	1773756.846658844
0.860361487671323	1783049.1983942944
0.8605765780432408	1792343.873217676
0.8607917221877518	1801640.871709771
0.8610069201182988	1810940.1944514867
0.8612221718483286	1819380.3498641422
0.8614374773912907	1826580.6577815376
0.8616528367606385	1833782.76577591
0.8618682499698288	1840986.674297286
0.8620837170323213	1848192.3837957908
0.8622992379615795	1856581.6562834594
0.8625148127710699	1870821.1113037372
0.8627304414742627	1885064.126187771
0.8629461240846313	1899310.7018255286
0.8631618606156526	1913560.8391071965
0.8633776510808066	1927814.5389231823
0.8635934954935769	1941387.389900771
0.8638093938674504	1954907.531580021
0.8640253462159173	1968431.0532946903
0.8642413525524714	1981957.955889788
0.8644574128906095	1995488.2402105315
0.8646735272438323	2008100.921792636
0.8648896956256433	2020288.4728568206
0.8651059180495498	2032479.0708087718
0.8653221945290621	2044672.7164101992
0.8655385250776946	2056869.4104230443
0.8657549097089641	2070467.92799303
0.8659713484363913	2085860.5838895678
0.8661878412735006	2101257.0879500867
0.866404388233819	2116657.441136619
0.8666209893308775	2132061.6444114405
0.8668376445782103	2146658.3989548204
0.8670543539893549	2157947.4764267993
0.8672711175778525	2169239.3761681546
0.8674879353572469	2180534.098884432
0.8677048073410862	2191831.6452813935
0.8679217335429217	2203132.0160649605
0.8681387139763074	2218747.199088883
0.8683557486548015	2234580.494444305
0.8685728375919655	2250417.7481235857
0.8687899808013633	2266258.961116252
0.8690071782965637	2282104.134412186
0.869224430091138	2298029.1187526435
0.8694417361986609	2313988.947507056
0.8696590966327107	2329952.766218654
0.869876511406869	2345920.5758849303
0.8700939805347206	2361892.377503616
0.8703115040298544	2377975.7698437087
0.870529081905862	2394186.1984110246
0.8707467141763385	2410400.679585477
0.8709644008548827	2426619.214380222
0.8711821419550964	2442841.803808656
0.8713999374905854	2458750.0892661964
0.871617787474958	2473563.582294009
0.8718356919218269	2488380.778695092
0.8720536508448075	2503201.679395276
0.8722716642575187	2518026.285320627
0.8724897321735832	2532854.5973974653
0.8727078546066265	2546545.019510234
0.8729260315702784	2560221.496792658
0.873144263078171	2573901.393194389
0.8733625491439405	2587584.7095702216
0.8735808897812266	2601271.4467751533
0.8737992850036719	2614541.098255865
0.874017734824923	2627665.1303396714
0.8742362392586293	2640792.4434314934
0.874454798318444	2653923.0383515875
0.8746734120180236	2667056.915920411
0.8748920803710283	2681450.7763894172
0.875110803391121	2697111.0985046914
0.8753295810919689	2712775.3357005036
0.875548413487242	2728443.488955614
0.8757673005906139	2744115.5592490393
0.8759862424157616	2760289.223182908
0.8762052389763657	2777906.978434217
0.8764242902861098	2795529.138124327
0.8766433963586814	2813155.7033543647
0.8768625572077712	2830786.675225715
0.8770817728470732	2848375.8328699423
0.8773010432902849	2862360.493007881
0.8775203685511077	2876348.6493108748
0.8777397486432454	2890340.3026529266
0.8779591835804065	2904335.4539083308
0.8781786733763015	2918334.1039515305
0.8783982180446457	2931246.3609734606
0.878617817599157	2943837.6233578785
0.8788374720535569	2956432.0335578863
0.8790571814215703	2969029.592360441
0.8792769457169257	2981630.300552697
0.879496764953355	2991958.7064697905
0.8797166391445934	3000243.913279416
0.8799365683043796	3008531.1913907444
0.8801565524464557	3016820.541321601
0.8803765915845676	3025111.963589947
0.8805966857324639	3033675.1989068533
0.880816834903897	3042918.0815325943
0.881037039112623	3052163.2748789955
0.8812572983724012	3061410.7795237326
0.8814776126969944	3070660.5960446345
0.8816979821001687	3079551.2457814324
0.8819184065956938	3079934.8360688915
0.8821388861973429	3080318.5222539227
0.8823594209188923	3080702.3043604996
0.882580010774122	3081086.182412603
0.8828006557768155	3081470.15643422
0.8830213559407598	3090123.747768153
0.8832421112797452	3100859.3710531713
0.8834629218075651	3111597.678244005
0.8836837875380171	3122338.670011639
0.8839047084849018	3133082.3470272175
0.884125684662023	3154622.408510352
0.8843467160831886	3184817.6258813925
0.8845678027622095	3215020.3920567753
0.8847889447129001	3245230.708923708
0.8850101419490785	3275448.5783698517
0.8852313944845657	3298747.0521709844
0.885452702333187	3306889.106389697
0.8856740655087704	3315033.1961219637
0.8858954840251476	3323179.321876661
0.8861169578961539	3331327.484162793
0.886338487135628	3337608.9855988775
0.886560071757412	3319024.5343448548
0.8867817117753515	3300435.4369780193
0.8870034072032955	3281841.6923368336
0.8872251580550963	3263243.2992595094
0.8874469643446101	3244640.2565839044
0.8876688260856963	3254475.210876612
0.8878907432922178	3270199.194369224
0.8881127159780409	3285927.1088576987
0.8883347441570356	3301658.9553248147
0.8885568278430749	3317394.734753531
0.8887789670500358	3330629.238003058
0.8890011617917983	3342089.919842153
0.8892234120822464	3353553.466851712
0.8894457179352669	3365019.8797480147
0.8896680793647509	3376489.1592475506
0.8898904963845921	3377586.9641339527
0.8901129690086883	3358890.525980693
0.8903354972509405	3340189.4137178995
0.8905580811252535	3321483.626177026
0.8907807206455347	3302773.1621892923
0.8910034158256963	3279891.0603456283
0.8912261666796527	3219763.2648759414
0.8914489732213227	3159620.4374573696
0.8916718354646282	3099462.5743318843
0.8918947534234944	3039289.671740676
0.8921177271118502	2979101.7259238567
0.8923407565436284	2821063.4533521133
0.8925638417327644	2647026.0768156275
0.8927869826931977	2472945.1909349496
0.8930101794388711	2298820.784832813
0.8932334319837308	2124652.8476291783
0.8934567403417267	2014932.2605823777
0.8936801045268123	1945257.7413063946
0.8939035245529441	1875565.8034006394
0.8941270004340824	1805856.4425103806
0.894350532184191	1736129.654279917
0.8945741198172371	1751369.1062280638
0.8947977633471915	1907547.650676421
0.8950214627880284	2063765.2397608836
0.8952452181537254	2220021.8832425247
0.8954690294582639	2376317.59088513
0.8956928967156286	2530059.840498835
0.8959168199398075	2667015.916815039
0.8961407991447926	2804006.2321503563
0.8963648343445789	2941030.7950645043
0.896588925553165	3078089.614119303
0.8968130727845534	3215182.697878883
0.8970372760527496	3266048.9013469475
0.8972615353717629	3306134.8139149244
0.8974858507556059	3346230.747961047
0.8977102222182949	3386336.705990671
0.8979346497738496	3426452.6905098245
0.8981591334362931	3532872.8910472807
0.8983836732196523	3675574.4287059954
0.8986082691379572	3818311.641749031
0.8988329212052417	3961084.5390953273
0.8990576294355432	4103893.1296660835
0.8992823938429022	4198503.080069677
0.8995072144413631	4221418.345584803
0.8997320912449734	4244339.339916299
0.8999570242677847	4267266.064496373
0.9001820135238516	4290198.520757593
0.9004070590272328	4307694.466047451
0.9006321607919896	4296664.685134301
0.9008573188321878	4285632.146775912
0.9010825331618959	4274596.850282937
0.9013078037951865	4263558.794965839
0.9015331307461353	4252517.980134917
0.9017585140288219	4349155.255517772
0.9019839536573292	4455091.520974378
0.9022094496457435	4561054.270497272
0.9024350020081551	4667043.510707665
0.9026606107586572	4773059.248228078
0.902886275911347	4851177.183526891
0.9031119974803249	4915853.18903085
0.9033377754796951	4980545.3635361865
0.903563609923565	5045253.71108512
0.903789500826046	5109978.235720985
0.9040154482012526	5154565.069305373
0.904241452063303	5173055.4679149445
0.9044675124263188	5191550.489124164
0.9046936293044254	5210050.134088683
0.9049198027117517	5228554.4039644515
0.9051460326624297	5248094.248436789
0.9053723191705955	5272028.996542887
0.9055986622503881	5295969.728335988
0.9058250619159507	5319916.445312038
0.9060515181814298	5343869.148967347
0.9062780310609752	5367827.840798554
0.9065046005687405	5276013.850917683
0.906731226718883	5177717.957764386
0.9069579095255627	5079397.490637929
0.907184649002944	4981052.443394683
0.907411445165195	4882682.809889527
0.9076382980264862	4955335.392363771
0.907865207600993	5099041.560713466
0.9080921739028933	5242783.655605207
0.9083191969463691	5386561.686020647
0.9085462767456058	5530375.6609437615
0.9087734133147922	5603481.718811889
0.9090006066681211	5594896.005823936
0.909227856819788	5586308.146407749
0.9094551637839932	5577718.140026695
0.9096825275749393	5569125.986144049
0.9099099482068329	5548104.894742071
0.9101374256938848	5482913.522776365
0.9103649600503083	5417705.852967699
0.9105925512903209	5352481.8812415935
0.9108201994281437	5287241.603522489
0.9110479044780008	5221985.015734028
0.9112756664541204	5357580.83325131
0.911503485370734	5497808.399298975
0.9117313612420768	5638071.022238153
0.9119592940823873	5778368.710833023
0.912187283905908	5918701.473850086
0.9124153307268845	5907869.886889899
0.9126434345595664	5842159.035637125
0.9128715954182063	5776431.756671601
0.9130998133170609	5710688.045886302
0.9133280882703902	5644927.899173311
0.913556420292458	5640946.437042558
0.9137848093975312	5700694.203995337
0.9140132555998806	5760456.907889847
0.9142417589137806	5820234.552460333
0.9144703193535092	5880027.141442001
