#wavelength	surface flux
0.7	8695275.480292466
0.7001166666666666	8739763.82163659
0.7002333527777778	8741455.300887244
0.700350058336574	8743147.062051104
0.7004667833462966	8744839.105175158
0.7005835278101878	8746531.430306403
0.7007002917314895	8748224.037491834
0.7008170751134447	8749916.926778462
0.7009338779592968	8751610.098213306
0.7010507002722901	8740579.33809153
0.7011675420556689	8714062.217316385
0.701284403312678	8687540.677021155
0.7014012840465635	8661014.716469172
0.7015181842605713	8634484.334923768
0.701635103957948	8607949.531648125
0.701752043141941	8581410.305905275
0.701869001815798	8554866.656958096
0.7019859799827672	8511515.528355418
0.7021029776460976	8456463.193929667
0.7022199948090387	8401401.684114777
0.7023370314748403	8346330.997381608
0.7024540876467528	8291251.132200658
0.702571163328027	8236162.08704227
0.7026882585219152	8181063.860376208
0.7028053732316688	8125956.450672448
0.7029225074605406	8122526.2375644725
0.7030396612117841	8139053.934919744
0.7031568344886527	8155584.386891244
0.7032740272944008	8172117.593938062
0.7033912396322832	8188653.556519397
0.7035084715055552	8205192.275094478
0.7036257229174727	8221733.750122662
0.7037429938712924	8238277.982063366
0.7038602843702709	8291658.94195681
0.7039775944176659	8351296.109632314
0.7040949240167356	8410943.21683579
0.7042122731707383	8470600.265223766
0.7043296418829335	8530267.256453175
0.7044470301565806	8589944.192181112
0.70456443799494	8649631.074064957
0.7046818654012724	8709327.903762486
0.7047993123788394	8691402.628805172
0.7049167789309024	8673385.280074853
0.7050342650607243	8655364.928453052
0.7051517707715678	8637341.573439322
0.7052692960666963	8619315.2145331
0.705386840949374	8601285.851233734
0.7055044054228656	8583253.483040456
0.7056219894904361	8569778.373444151
0.7057395931553511	8585281.010201287
0.705857216420877	8600786.230731227
0.7059748592902804	8616294.035464581
0.7060925217668288	8631804.424832072
0.70621020385379	8647317.399264457
0.7063279055544321	8662832.95919256
0.7064456268720246	8678351.105047341
0.7065633678098366	8697875.145994507
0.7066811283711383	8728427.626614604
0.7067989085592001	8758985.199314805
0.7069167083772933	8789547.86494377
0.7070345278286895	8820115.62435036
0.707152366916661	8850688.478383524
0.7072702256444803	8881266.427892324
0.7073881040154211	8911849.473726084
0.7075060020327569	8916057.972782258
0.7076239196997625	8881849.248301702
0.7077418570197124	8847634.822367098
0.7078598139958823	8813414.694028175
0.7079777906315483	8779188.862334495
0.7080957869299869	8744957.326335559
0.7082138028944751	8710720.085080642
0.7083318385282908	8676477.137618823
0.7084498938347124	8658744.40821249
0.708567968817018	8655011.262219485
0.7086860634784875	8651277.494035475
0.7088041778224007	8647543.103556765
0.7089223118520377	8643808.090679647
0.7090404655706796	8640072.455300385
0.709158638981608	8636336.197315222
0.709276832088105	8632599.316620395
0.7093950448934531	8651473.284894451
0.7095132774009353	8681134.053655878
0.7096315296138355	8710799.765878776
0.7097498015354378	8740470.422387037
0.7098680931690269	8770146.024004688
0.7099864045178884	8799826.57155598
0.7101047355853081	8829512.065865189
0.7102230863745722	8859202.507756764
0.7103414568889679	8804209.35094128
0.7104598471317828	8729963.79543228
0.7105782571063047	8655705.865664087
0.7106966868158224	8581435.559574269
0.710815136263625	8507152.875100117
0.7109336054530023	8432857.810178505
0.7110520943872445	8358550.362746101
0.7111706030696424	8284230.530739079
0.7112891315034873	8285572.424188411
0.7114076796920712	8290525.171113406
0.7115262476386865	8295478.7434962215
0.7116448353466263	8300433.141474431
0.711763442819184	8305388.36518564
0.711882070059654	8310344.414767471
0.7120007170713306	8315301.290357563
0.7121193838575091	8323332.847070756
0.7122380704214853	8363425.262962406
0.7123567767665555	8403524.360923328
0.7124755028960166	8443630.142067263
0.7125942488131658	8483742.607508026
0.7127130145213015	8523861.758359807
0.7128318000237216	8563987.595736604
0.7129506053237256	8604120.120753022
0.7130694304246129	8626303.066628478
0.7131882753296837	8585708.271445494
0.7133071400422386	8545106.7104633
0.7134260245655789	8504498.382554306
0.7135449289030065	8463883.286590645
0.7136638530578235	8423261.421444347
0.7137827970333332	8382632.785987131
0.7139017608328388	8341997.379090684
0.7140207444596443	8311546.292974425
0.7141397479170543	8299270.030760887
0.7142587712083737	8286991.722503665
0.7143778143369084	8274711.367861723
0.7144968773059646	8262428.966494004
0.7146159601188489	8250144.518059395
0.7147350627788687	8237858.022216712
0.7148541852893318	8225569.478624728
0.7149733276535467	8228960.093132049
0.7150924898748222	8248163.850568456
0.715211671956468	8267370.808631105
0.7153308739017941	8286580.967853447
0.715450095714111	8305794.3287689835
0.71556933739673	8325010.891911343
0.7156885989529628	8344230.657814222
0.7158078803861218	8363453.627011448
0.7159271816995193	8345491.973172134
0.7160465028964692	8305700.391445518
0.7161658439802853	8265902.177788614
0.7162852049542819	8226097.33109611
0.7164045858217744	8186285.850262465
0.716523986586078	8146467.734182032
0.7166434072505089	8106642.981748939
0.716762847818384	8066811.5918570915
0.7168823082930204	8058028.998149233
0.7170017886777359	8058381.3174194945
0.7171212889758488	8058733.695409634
0.7172408091906781	8059086.132129439
0.7173603493255433	8059438.627588697
0.7174799093837642	8059791.181797198
0.7175994893686615	8060143.794764735
0.7177190892835562	8060496.466501098
0.7178387091317702	8080023.552758047
0.7179583489166254	8101478.670433964
0.7180780086414448	8122937.363962843
0.7181976883095517	8144399.633940643
0.7183173879242699	8165865.480963442
0.718437107488924	8187334.9056274155
0.7185568470068389	8208807.908528841
0.7186766064813399	8228813.168287978
0.7187963859157535	8212035.47033504
0.7189161853134061	8195254.976099111
0.719036004677625	8178471.685114142
0.7191558440117378	8161685.596914018
0.7192757033190732	8144896.711032504
0.7193955826029597	8128105.027003364
0.7195154818667269	8111310.544360204
0.7196354011137046	8089484.874809409
0.7197553403472235	8044503.971262274
0.7198752995706147	7999515.570897901
0.7199952787872098	7954519.67246677
0.720115278000341	7909516.274719235
0.7202352972133411	7864505.376405403
0.7203553364295432	7819486.976275253
0.7204753956522815	7774461.073078351
0.7205954748848902	7736035.796189405
0.7207155741307044	7712172.573356395
0.7208356933930594	7688305.373319621
0.7209558326752915	7664434.195416169
0.7210759919807375	7640559.038983034
0.7211961713127342	7616679.903357192
0.7213163706746197	7592796.787875374
0.7214365900697322	7568909.691874333
0.7215568295014103	7564981.414389334
0.721677088972994	7584871.465224404
0.7217973684878227	7604764.831067913
0.7219176680492374	7624661.51247242
0.7220379876605789	7644561.509990483
0.722158327325189	7664464.824174805
0.7222786870464099	7684371.455578147
0.7223990668275843	7704281.404753399
0.7225194666720555	7694105.306112924
0.7226398865831676	7662602.424388137
0.7227603265642646	7631094.2921831375
0.722880786618692	7599580.9086227035
0.7230012667497951	7568062.272831698
0.7231217669609201	7536538.383934722
0.7232422872554135	7505009.241056292
0.7233628276366229	7473474.843320661
0.7234833881078956	7432518.535897222
0.7236039686725803	7387980.262321387
0.7237245693340255	7343434.565700027
0.7238451900955812	7298881.444795813
0.7239658309605971	7254320.898371502
0.7240864919324239	7209752.9251893945
0.7242071730144127	7165177.5240117535
0.724327874209915	7120594.693600676
0.7244485955222832	7106528.445095221
0.7245693369548704	7097506.739779683
0.7246900985110294	7088483.530846605
0.7248108801941148	7079458.818045349
0.7249316820074803	7070432.601125322
0.7250525039544815	7061404.879835795
0.7251733460384739	7052375.65392605
0.7252942082628137	7043310.456213702
0.7254150906308574	7014272.515786073
0.7255359931459625	6985229.735701703
0.7256569158114868	6956182.115153976
0.7257778586307888	6927129.653336144
0.7258988216072273	6898072.34944135
0.7260198047441617	6869010.202662607
0.7261408080449525	6839943.2121926835
0.72626183151296	6809129.566797025
0.7263828751515454	6766735.456130409
0.7265039389640706	6724334.27977869
0.726625022953898	6681926.03656422
0.7267461271243904	6639510.725309194
0.7268672514789111	6597088.344835653
0.7269883960208241	6554658.8939654045
0.7271095607534942	6512222.371519982
0.7272307456802866	6469798.38827328
0.7273519508045666	6427420.3109802855
0.7274731761297006	6385035.170674428
0.7275944216590555	6342642.9661785215
0.7277156873959987	6300243.696315184
0.7278369733438982	6257837.359906801
0.727958279506122	6215423.9557757955
0.7280796058860397	6173003.482744051
0.7282009524870207	6135300.107641494
0.7283223193124353	6104578.0192096075
0.7284437063656539	6073850.810429712
0.7285651136500483	6043118.480448302
0.7286865411689898	6012381.028411959
0.7288079889258514	5981638.453466869
0.7289294569240056	5950890.754759359
0.7290509451668262	5920137.931435362
0.7291724536576875	5897286.211182893
0.7292939823999636	5880981.843745098
0.7294155313970303	5864674.758912697
0.7295371006522632	5848364.95623283
0.7296586901690385	5832052.435252528
0.7297802999507332	5815737.195518737
0.7299019300007252	5799419.23657828
0.7300235803223919	5783098.557978045
0.7301452509191123	5764793.9427653635
0.7302669417942654	5745571.80777497
0.7303886529512311	5726346.469095405
0.7305103843933897	5707117.926192723
0.7306321361241218	5687886.178532905
0.7307539081468093	5668651.225581775
0.7308757004648336	5649413.066805195
0.7309975130815778	5630171.701668796
0.7311193460004248	5612270.947771002
0.7312411992247582	5594671.433684292
0.7313630727579622	5577068.986345239
0.7314849666034219	5559463.605264945
0.7316068807645224	5541855.289954482
0.7317288152446498	5524244.039924792
0.7318507700471907	5506629.854686755
0.7319727451755319	5489012.733751184
0.732094740633061	5467657.021046897
0.7322167564231665	5446129.568659753
0.7323387925492371	5424598.528363876
0.7324608490146619	5403063.899561289
0.732582925822831	5381525.681653896
0.7327050229771347	5359983.874043544
0.7328271404809642	5338438.4761319
0.7329492783377112	5315935.056690018
0.7330714365507675	5284044.823501147
0.7331936151235259	5252149.27527342
0.7333158140593796	5220248.411121024
0.7334380333617229	5188342.230157888
0.7335602730339499	5156430.73149791
0.7336825330794556	5124513.914254815
0.7338048135016354	5092591.777542241
0.7339271143038857	5059308.871250506
0.734049435489603	5021478.733473403
0.7341717770621846	4983642.290673332
0.7342941390250283	4945799.541799479
0.7344165213815324	4907950.485800829
0.734538924135096	4870095.121626124
0.7346613472891185	4832233.448224105
0.734783790847	4794365.464543173
0.7349062548121412	4754980.970557586
0.7350287391879431	4712920.574125561
0.7351512439778078	4670853.1676273765
0.7352737691851374	4628778.749894828
0.735396314813335	4586697.319759285
0.7355188808658037	4544608.8760521235
0.7356414673459482	4502513.417604257
0.7357640742571725	4460410.943246679
0.7358867016028818	4425558.05621702
0.7360093493864824	4397865.911627719
0.7361320176113801	4370169.1516810255
0.736254706280982	4342467.7756076725
0.7363774153986956	4314761.782638272
0.7365001449679286	4287051.172003433
0.7366228949920899	4259335.942933466
0.7367456654745885	4231616.094658654
0.7368684564188344	4204008.718399759
0.7369912678282374	4176462.9188369852
0.7371140997062088	4148912.528307606
0.7372369520561599	4121357.546046446
0.7373598248815024	4093797.971288305
0.7374827181856494	4066233.8032676573
0.7376056319720137	4038665.0412190044
0.7377285662440091	4011091.684376672
0.7378515210050496	3981768.048649923
0.7379744962585505	3951914.302644285
0.738097492007927	3922055.5810143203
0.7382205082565949	3892191.882930769
0.738343545007971	3862323.20756421
0.7384666022654723	3832449.5540850596
0.7385896800325165	3802570.921663708
0.7387127783125219	3772687.3094702484
0.7388358971089073	3748436.5571233477
0.7389590364250921	3724747.2523748684
0.7390821962644963	3701053.999408914
0.7392053766305403	3677356.797567499
0.7393285775266454	3653655.646192427
0.7394517989562333	3629950.544625436
0.7395750409227259	3606241.4922082224
0.7396983034295463	3582452.783872432
0.739821586480118	3556976.009815649
0.7399448900778645	3531494.989629907
0.7400682142262109	3506009.7226073896
0.740191558928582	3480520.2080403958
0.7403149241884034	3455026.4452209943
0.7404383100091014	3429528.4334411165
0.7405617163941028	3404026.1719926246
0.7406851433468352	3377271.29245702
0.7408085908707264	3344800.9717218257
0.7409320589692048	3312325.239266524
0.7410555476456997	3279844.094189121
0.7411790569036406	3247357.5355875613
0.7413025867464579	3214865.5625595595
0.7414261371775823	3182368.1742027104
0.7415497082004452	3149865.3696144936
0.7416732998184786	3118019.1993246637
0.741796912035115	3087587.9520106455
0.7419205448537874	3057151.632822082
0.7420441982779297	3026710.240913654
0.742167872310976	2996263.7754398803
0.7422915669563612	2965812.2355551957
0.7424152822175206	2935355.6204138715
0.7425390180978901	2904893.9291700423
0.7426627746009065	2875983.3278062916
0.7427865517300065	2848964.9868075093
0.7429103494886282	2821942.142751866
0.7430341678802096	2794914.7948889006
0.7431580069081896	2767882.94246796
0.7432818665760077	2740846.5847382443
0.7434057468871037	2713805.7209489294
0.7435296478449182	2686760.350348999
0.7436535694528923	2659135.0634671478
0.7437775117144678	2631111.2874523005
0.7439014746330868	2603082.8408081597
0.7440254582121922	2575049.7227562205
0.7441494624552276	2547011.932517928
0.7442734873656368	2518969.469314602
0.7443975329468645	2490922.332367386
0.7445215992023557	2462870.520897349
0.7446456861355559	2435598.366868121
0.7447697937499119	2408610.594836655
0.7448939220488703	2381618.32484319
0.7450180710358784	2354621.5561380833
0.7451422407143843	2327620.2879715227
0.7452664310878367	2300614.5195935755
0.7453906421596846	2273604.250254261
0.7455148739333779	2246589.479203381
0.7456391264123667	2219905.185537607
0.7457633996001021	2193270.0059147626
0.7458876935000356	2166630.3870952665
0.7460120081156189	2139986.3283393513
0.7461363434503048	2113337.8289069645
0.7462606995075466	2086684.8880579814
0.7463850762907978	2060027.5050522303
0.7465094738035127	2033370.476619197
0.7466338920491467	2007963.996778114
0.746758331031155	1982553.282523699
0.7468827907529935	1957138.333150272
0.7470072712181189	1931719.1479519487
0.7471317724299886	1906295.726222754
0.7472562943920602	1880868.0672566225
0.7473808371077922	1855436.170347307
0.7475054005806435	1830080.268459633
0.7476299848140736	1805214.348536748
0.7477545898115426	1780344.2842938702
0.7478792155765113	1755470.0750402792
0.7480038621124406	1730591.7200851657
0.7481285294227926	1705709.2187375654
0.7482532175110298	1680822.5703063807
0.7483779263806148	1655931.7741004925
0.7485026560350116	1631450.0333747524
0.7486274064776842	1608082.5333645986
0.748752177712097	1584711.1387711526
0.7488769697417158	1561335.8489452244
0.749001782570006	1537956.663237687
0.7491266162004343	1514573.5809992051
0.7492514706364677	1491186.6015803395
0.7493763458815739	1467795.7243315473
0.7495012419392209	1444771.373216173
0.7496261588128773	1422275.7142334469
0.7497510965060128	1399776.305974208
0.7498760550220971	1377273.147813601
0.7500010343646007	1354766.2391266301
0.7501260345369949	1332255.5792882007
0.750251055542751	1309741.1676731566
0.7503760973853414	1287223.003656163
0.7505011600682389	1265433.3051903981
0.750626243594917	1244251.360878329
0.7507513479688495	1223065.8862422402
0.7508764731935109	1201876.8806937044
0.7510016192723765	1180684.3436442388
0.7511267862089218	1159488.2745052846
0.7512519740066232	1138288.6726881329
0.7513771826689577	1117085.5376039997
0.7515024121994025	1097167.8760525952
0.7516276626014359	1077847.902573706
0.751752933878536	1058524.7090992709
0.7518782260341824	1039198.2950925834
0.7520035390718548	1019868.6600168862
0.7521288729950334	1000535.8033353532
0.7522542278071992	981199.7245110383
0.7523796035118337	961860.42300691
0.7525050001124189	943297.9246078306
0.7526304176124378	924901.9707391832
0.7527558560153731	906502.950878248
0.752881315324709	888100.8645139846
0.7530067955439299	869695.7111353207
0.7531322966765205	851287.4902311183
0.7532578187259665	832876.2012900928
0.7533833616957542	814461.8438009112
0.75350892558937	797203.5052852676
0.7536345104103016	779996.7940118746
0.7537601161620366	762787.2149532782
0.7538857428480638	745574.7676314887
0.7540113904718717	728359.4515685011
0.7541370590369503	711141.2662861736
0.7542627485467898	693920.2113062881
0.7543884590048808	676883.0054888919
0.7545141904147151	661704.9465364125
0.7546399427797842	646524.3579074655
0.7547657161035808	631341.2391804113
0.754891510389598	616155.5899335702
0.7550173256413296	600967.4097451817
0.7551431618622698	585776.6981934322
0.7552690190559135	570583.4548564274
0.7553948972257561	555689.6410940209
0.7555207963752938	541806.9170477327
0.755646716508023	527921.8792141115
0.755772657627441	514034.5272075132
0.7558986197370455	500144.86064224504
0.756024602840335	486252.8791325529
0.7561506069408084	472358.5822926093
0.7562766320419653	458461.9697365132
0.7564026781473054	444997.07126784243
0.75652874526033	432293.70598714304
0.7566548333845401	419588.2234788903
0.7567809425234375	406880.62339022406
0.7569070726805247	394170.9053682169
0.7570332238593047	381459.0690598745
0.7571593960632813	368745.11411213526
0.7572855892959586	356029.04017190397
0.7574118035608413	344385.20592119964
0.7575380388614347	333790.51153771085
0.7576642952012449	323194.05137182085
0.7577905725837782	312595.8251292518
0.7579168710125422	301995.8325156235
0.7580431904910444	291394.07323655556
0.7581695310227928	280790.5469976212
0.7582958926112967	270185.25350430026
0.7584222752600652	260569.58163387174
0.7585486789726085	251521.8223951137
0.7586751037524372	242472.55519647914
0.7588015496030628	233421.7797866271
0.7589280165279966	224369.49591422465
0.7590545045307512	215315.70332784348
0.7591810136148396	206260.40177603147
0.7593075437837755	197203.59100728077
0.7594340950410726	189351.38685253324
0.7595606673902461	181847.81238243505
0.7596872608348112	174342.9873165843
0.7598138753782836	166836.9114465642
0.75994051102418	159329.58456389207
0.7600671677760173	151821.0064600787
0.7601938456373134	144311.1769265756
0.7603205446115863	136800.09575482114
0.7604472647023548	130602.67223556351
0.7605740059131385	124534.91765954717
0.7607007682474575	118466.15179109556
0.7608275517088319	112396.37446167936
0.7609543563007835	106325.58550269478
0.7610811820268336	100253.78474555403
0.7612080288905045	94180.97202163209
0.7613348968953197	88166.87367112777
0.7614617860448022	83377.22905442948
0.7615886963424764	78586.78616362189
0.7617156277918667	73795.54486567047
0.7618425803964988	69003.50502749876
0.7619695541598982	64210.66651602197
0.7620965490855914	59417.02919813015
0.7622235651771058	54622.592940679795
0.7623506024379685	50130.801676302246
0.7624776608717082	46968.29024394401
0.7626047404818536	43805.2517263469
0.7627318412719337	40641.68603566896
0.762858963245479	37477.59308404058
0.7629861064060198	34312.97278358665
0.7631132707570876	31147.825046412687
0.7632404563022137	27982.14978461871
0.7633676630449308	25209.004036086924
0.7634948909887717	23272.084214829374
0.7636221401372697	21334.841573604135
0.7637494104939593	19397.276058603533
0.7638767020623748	17459.387616019892
0.7640040148460518	15521.17619202695
0.7641313488485262	13582.641732796745
0.7642587040733344	11643.784184487802
0.7643860805240132	10141.029611726099
0.7645134782041005	9158.811766962459
0.7646408971171346	8176.430219224281
0.764768337266654	7193.884941228509
0.7648957986561985	6211.175905686086
0.7650232812893079	5228.303085304536
0.7651507851695227	4245.266452786247
0.7652783103003843	3262.065980829325
0.7654058566854343	2667.08053795909
0.7655334243282153	2336.686303388984
0.7656610132322699	2006.237003113546
