#wavelength	surface flux
0.7	71331864.29094845
0.7001166666666666	71839839.57845409
0.7002333527777778	72296613.48950271
0.700350058336574	72753463.52953628
0.7004667833462966	73210389.7112426
0.7005835278101878	73667392.0473138
0.7007002917314895	74124470.55044025
0.7008170751134447	74581625.23331718
0.7009338779592968	75038856.10864104
0.7010507002722901	75223169.2774516
0.7011675420556689	75075297.72406147
0.701284403312678	74927401.52541268
0.7014012840465635	74779480.67739722
0.7015181842605713	74631535.17590714
0.701635103957948	74483565.01683357
0.701752043141941	74335570.19606686
0.701869001815798	74187550.70949645
0.7019859799827672	73710550.93363184
0.7021029776460976	73004537.06946197
0.7022199948090387	72298405.53631385
0.7023370314748403	71592156.31457719
0.7024540876467528	70885789.38463701
0.702571163328027	70179304.72687633
0.7026882585219152	69472702.32167082
0.7028053732316688	68765982.14939879
0.7029225074605406	68588185.80007727
0.7030396612117841	68614647.04598288
0.7031568344886527	68641112.70209613
0.7032740272944008	68667582.76915208
0.7033912396322832	68694057.24788585
0.7035084715055552	68720536.13903274
0.7036257229174727	68747019.44332816
0.7037429938712924	68773507.16150765
0.7038602843702709	69555675.21402581
0.7039775944176659	70466141.79378216
0.7040949240167356	71376760.11796883
0.7042122731707383	72287530.21187572
0.7043296418829335	73198452.10079879
0.7044470301565806	74109525.81003651
0.70456443799494	75020751.36489174
0.7046818654012724	75932128.79067333
0.7047993123788394	73814984.52280995
0.7049167789309024	71694011.86022401
0.7050342650607243	69572685.70219103
0.7051517707715678	67451005.98979938
0.7052692960666963	65328972.66412337
0.705386840949374	63206585.66622732
0.7055044054228656	61083844.93716149
0.7056219894904361	59304709.90143877
0.7057395931553511	59711104.24448191
0.705857216420877	60117566.319915876
0.7059748592902804	60524096.13902885
0.7060925217668288	60930693.713112086
0.70621020385379	61337359.053457595
0.7063279055544321	61744092.17135932
0.7064456268720246	62150893.07811466
0.7065633678098366	62542675.62236288
0.7066811283711383	62892975.895099044
0.7067989085592001	63243334.55121399
0.7069167083772933	63593751.60043806
0.7070345278286895	63944227.0525039
0.707152366916661	64294760.917145155
0.7072702256444803	64645353.20409677
0.7073881040154211	64996003.923096694
0.7075060020327569	65126402.19053687
0.7076239196997625	64935973.002064094
0.7077418570197124	64745512.07539343
0.7078598139958823	64555019.405235
0.7079777906315483	64364494.986298025
0.7080957869299869	64173938.81329137
0.7082138028944751	63983350.88092265
0.7083318385282908	63792731.183898404
0.7084498938347124	63605884.68343786
0.708567968817018	63422232.97025183
0.7086860634784875	63238550.64844672
0.7088041778224007	63054837.71292116
0.7089223118520377	62871094.158573255
0.7090404655706796	62687319.98029973
0.709158638981608	62503515.17299628
0.709276832088105	62319679.73155824
0.7093950448934531	62433553.346424885
0.7095132774009353	62689441.21305443
0.7096315296138355	62945371.727661856
0.7097498015354378	63201344.897354975
0.7098680931690269	63457360.729242794
0.7099864045178884	63713419.23043626
0.7101047355853081	63969520.40804653
0.7102230863745722	64225664.269186236
0.7103414568889679	63888268.47779749
0.7104598471317828	63415940.56060194
0.7105782571063047	62943533.922087215
0.7106966868158224	62471048.54913276
0.710815136263625	61998484.42861624
0.7109336054530023	61525841.54741266
0.7110520943872445	61053119.89239573
0.7111706030696424	60580319.45043601
0.7112891315034873	60787038.87827439
0.7114076796920712	61026218.36911003
0.7115262476386865	61265437.72319416
0.7116448353466263	61504696.947170466
0.711763442819184	61743996.04768423
0.711882070059654	61983335.03138162
0.7120007170713306	62222713.904909484
0.7121193838575091	62477070.06659089
0.7122380704214853	62887261.79255474
0.7123567767665555	63297521.883805834
0.7124755028960166	63707850.351739
0.7125942488131658	64118247.20774984
0.7127130145213015	64528712.46323782
0.7128318000237216	64939246.12960044
0.7129506053237256	65349848.21824137
0.7130694304246129	65593467.28917053
0.7131882753296837	65253056.24012992
0.7133071400422386	64912588.45591438
0.7134260245655789	64572063.92706836
0.7135449289030065	64231482.644134104
0.7136638530578235	63890844.597652875
0.7137827970333332	63550149.7781634
0.7139017608328388	63209398.17620409
0.7140207444596443	63021321.149347425
0.7141397479170543	63105670.37677842
0.7142587712083737	63190033.66241386
0.7143778143369084	63274411.00859698
0.7144968773059646	63358802.41767115
0.7146159601188489	63443207.891980134
0.7147350627788687	63527627.43386818
0.7148541852893318	63612061.04567984
0.7149733276535467	63895120.41006892
0.7150924898748222	64378502.53021375
0.715211671956468	64861965.21404537
0.7153308739017941	65345508.47499134
0.715450095714111	65829132.32648057
0.71556933739673	66312836.78194511
0.7156885989529628	66796621.85481884
0.7158078803861218	67280487.55853876
0.7159271816995193	67378288.14410502
0.7160465028964692	67249461.55825838
0.7161658439802853	67120613.50131412
0.7162852049542819	66991743.96969372
0.7164045858217744	66862852.959817976
0.716523986586078	66733940.468107305
0.7166434072505089	66605006.49098141
0.716762847818384	66476051.02485928
0.7168823082930204	66721206.37836318
0.7170017886777359	67076470.72518679
0.7171212889758488	67431794.28273465
0.7172408091906781	67787177.06087552
0.7173603493255433	68142619.06947954
0.7174799093837642	68498120.31841812
0.7175994893686615	68853680.81756501
0.7177190892835562	69209300.57679492
0.7178387091317702	69693467.79194334
0.7179583489166254	70190613.7147951
0.7180780086414448	70687842.49530104
0.7181976883095517	71185154.14727038
0.7183173879242699	71682548.6845151
0.718437107488924	72180026.12084948
0.7185568470068389	72677586.47009009
0.7186766064813399	73163647.87988456
0.7187963859157535	73360218.12137489
0.7189161853134061	73556821.12457214
0.719036004677625	73753456.8949366
0.7191558440117378	73950125.43792935
0.7192757033190732	74146826.75901285
0.7193955826029597	74343560.86364964
0.7195154818667269	74540327.75730404
0.7196354011137046	74653017.50302003
0.7197553403472235	74378468.82073799
0.7198752995706147	74103874.38034233
0.7199952787872098	73829234.17420644
0.720115278000341	73554548.19470286
0.7202352972133411	73279816.43420266
0.7203553364295432	73005038.88507612
0.7204753956522815	72730215.53969102
0.7205954748848902	72463467.12400489
0.7207155741307044	72214577.43272647
0.7208356933930594	71965646.25983328
0.7209558326752915	71716673.59841119
0.7210759919807375	71467659.44154522
0.7211961713127342	71218603.78232008
0.7213163706746197	70969506.61381802
0.7214365900697322	70720367.92912146
0.7215568295014103	70962467.976176
0.721677088972994	71790788.47982188
0.7217973684878227	72619247.03688367
0.7219176680492374	73447843.6703726
0.7220379876605789	74276578.40329996
0.722158327325189	75105451.25868312
0.7222786870464099	75934462.25954172
0.7223990668275843	76763611.42890084
0.7225194666720555	77118269.78710721
0.7226398865831676	77136605.79855497
0.7227603265642646	77154944.86600459
0.722880786618692	77173286.9899655
0.7230012667497951	77191632.17094705
0.7231217669609201	77209980.40945877
0.7232422872554135	77228331.70601022
0.7233628276366229	77246686.06111114
0.7234833881078956	76933218.57190697
0.7236039686725803	76493717.72803073
0.7237245693340255	76054143.63401453
0.7238451900955812	75614496.27764851
0.7239658309605971	75174775.64672361
0.7240864919324239	74734981.72902632
0.7242071730144127	74295114.5123427
0.724327874209915	73855173.98445724
0.7244485955222832	74426232.98405108
0.7245693369548704	75164559.51399925
0.7246900985110294	75903009.098368
0.7248108801941148	76641581.75766945
0.7249316820074803	77380277.51241162
0.7250525039544815	78119096.38311414
0.7251733460384739	78858038.39029522
0.7252942082628137	79595725.84291904
0.7254150906308574	79535246.5305631
0.7255359931459625	79474757.13832179
0.7256569158114868	79414257.66451506
0.7257778586307888	79353748.10746269
0.7258988216072273	79293228.46548416
0.7260198047441617	79232698.73689869
0.7261408080449525	79172158.92002502
0.72626183151296	79069136.54375051
0.7263828751515454	78683843.06888747
0.7265039389640706	78298485.37844536
0.726625022953898	77913063.46172127
0.7267461271243904	77527577.30801088
0.7268672514789111	77142026.90660845
0.7269883960208241	76756412.24680613
0.7271095607534942	76370733.31789358
0.7272307456802866	75941405.94102474
0.7273519508045666	75394275.65141712
0.7274731761297006	74847054.17342818
0.7275944216590555	74299741.49185959
0.7277156873959987	73752337.59151052
0.7278369733438982	73204842.45717719
0.727958279506122	72657256.07365626
0.7280796058860397	72109578.42573743
0.7282009524870207	71721312.9809649
0.7283223193124353	71568906.23856461
0.7284437063656539	71416474.0950409
0.7285651136500483	71264016.54615968
0.7286865411689898	71111533.58768731
0.7288079889258514	70959025.21538815
0.7289294569240056	70806491.4250273
0.7290509451668262	70653932.21236786
0.7291724536576875	70981760.79029363
0.7292939823999636	71707718.07209028
0.7294155313970303	72433796.34676869
0.7295371006522632	73159995.63449268
0.7296586901690385	73886315.95543072
0.7297802999507332	74612757.32975526
0.7299019300007252	75339319.77764407
0.7300235803223919	76066003.31927224
0.7301452509191123	76516720.62373422
0.7302669417942654	76840079.56114747
0.7303886529512311	77163492.39171705
0.7305103843933897	77486959.12442514
0.7306321361241218	77810479.7682551
0.7307539081468093	78134054.33219294
0.7308757004648336	78457682.82522407
0.7309975130815778	78781365.25633778
0.7311193460004248	79225058.4396463
0.7312411992247582	79695982.26112537
0.7313630727579622	80166984.5699079
0.7314849666034219	80638065.37907572
0.7316068807645224	81109224.70171143
0.7317288152446498	81580462.55090114
0.7318507700471907	82051778.93973263
0.7319727451755319	82523173.8812954
0.732094740633061	83196389.70937246
0.7322167564231665	83878800.24325772
0.7323387925492371	84561324.51223199
0.7324608490146619	85243962.5352509
0.732582925822831	85926714.33127381
0.7327050229771347	86609579.91926195
0.7328271404809642	87292559.31818211
0.7329492783377112	87902908.83031976
0.7330714365507675	87798212.34734093
0.7331936151235259	87693498.4149483
0.7333158140593796	87588767.03023373
0.7334380333617229	87484018.1902882
0.7335602730339499	87379251.89220263
0.7336825330794556	87274468.13306737
0.7338048135016354	87169666.90997244
0.7339271143038857	86784873.15480031
0.734049435489603	85461906.81880693
0.7341717770621846	84138719.98842399
0.7342941390250283	82815312.62690333
0.7344165213815324	81491684.69748957
0.734538924135096	80167836.163419
0.7346613472891185	78843766.9879278
0.734783790847	77519477.13424021
0.7349062548121412	76049575.39694878
0.7350287391879431	74322443.84760697
0.7351512439778078	72595024.44300339
0.7352737691851374	70867317.13516779
0.735396314813335	69139321.8761127
0.7355188808658037	67411038.61785063
0.7356414673459482	65682467.31237531
0.7357640742571725	63953607.91168361
0.7358867016028818	63140793.00071853
0.7360093493864824	63232803.73084344
0.7361320176113801	63324829.79608991
0.736254706280982	63416871.199013926
0.7363774153986956	63508927.94217188
0.7365001449679286	63601000.028120175
0.7366228949920899	63693087.459416196
0.7367456654745885	63785190.238617435
0.7368684564188344	63465232.38571055
0.7369912678282374	62912324.54542266
0.7371140997062088	62359324.55382782
0.7372369520561599	61806232.39556719
0.7373598248815024	61253048.05528143
0.7374827181856494	60699771.517604694
0.7376056319720137	60146402.767171636
0.7377285662440091	59592941.788613416
0.7378515210050496	59562487.33185705
0.7379744962585505	59689412.30439585
0.738097492007927	59816358.4310967
0.7382205082565949	59943325.71548526
0.738343545007971	60070314.161087856
0.7384666022654723	60197323.77143151
0.7385896800325165	60324354.550043374
0.7387127783125219	60451406.500451826
0.7388358971089073	60288702.44059101
0.7389590364250921	60096905.89242571
0.7390821962644963	59905077.3781689
0.7392053766305403	59713216.89249334
0.7393285775266454	59521324.43007002
0.7394517989562333	59329399.98556945
0.7395750409227259	59137443.55366176
0.7396983034295463	58996315.73499645
0.739821586480118	59986596.42602968
0.7399448900778645	60977042.16384279
0.7400682142262109	61967652.97594854
0.740191558928582	62958428.88985526
0.7403149241884034	63949369.93308018
0.7404383100091014	64940476.13314588
0.7405617163941028	65931747.51757764
0.7406851433468352	66540919.18110983
0.7408085908707264	65401422.236935996
0.7409320589692048	64261735.37660534
0.7410555476456997	63121858.568463705
0.7411790569036406	61981791.78085489
0.7413025867464579	60841534.98211447
0.7414261371775823	59701088.14057395
0.7415497082004452	58560451.224560715
0.7416732998184786	57726700.580666356
0.741796912035115	57551550.26851083
0.7419205448537874	57376370.76463666
0.7420441982779297	57201162.064178504
0.742167872310976	57025924.162270114
0.7422915669563612	56850657.05404475
0.7424152822175206	56675360.73463473
0.7425390180978901	56500035.19917157
0.7426627746009065	56160831.88062309
0.7427865517300065	55621828.898002476
0.7429103494886282	55082736.08155086
0.7430341678802096	54543553.416296914
0.7431580069081896	54004280.887265466
0.7432818665760077	53464918.47947841
0.7434057468871037	52925466.17795718
0.7435296478449182	52385923.96771933
0.7436535694528923	52023053.74585905
0.7437775117144678	51781121.99628202
0.7439014746330868	51539149.924747095
0.7440254582121922	51297137.52453337
0.7441494624552276	51055084.78891951
0.7442734873656368	50812991.7111831
0.7443975329468645	50570858.28460021
0.7445215992023557	50328684.50244625
0.7446456861355559	49992752.45387037
0.7447697937499119	49622241.229133554
0.7448939220488703	49251668.25252602
0.7450180710358784	48881033.51375605
0.7451422407143843	48510337.00252958
0.7452664310878367	48139578.708550885
0.7453906421596846	47768758.62152359
0.7455148739333779	47397876.73114834
0.7456391264123667	47237007.201382905
0.7457633996001021	47109700.558857635
0.7458876935000356	46982372.69855838
0.7460120081156189	46855023.61694933
0.7461363434503048	46727653.31049327
0.7462606995075466	46600261.77565269
0.7463850762907978	46472849.00888983
0.7465094738035127	46344384.257859394
0.7466338920491467	45946259.94233884
0.746758331031155	45548069.27276531
0.7468827907529935	45149812.23808065
0.7470072712181189	44751488.82722354
0.7471317724299886	44353099.029131204
0.7472562943920602	43954642.83273947
0.7473808371077922	43556120.22698131
0.7475054005806435	43162642.6128166
0.7476299848140736	42800583.712571144
0.7477545898115426	42438464.46917556
0.7478792155765113	42076284.87257265
0.7480038621124406	41714044.91270394
0.7481285294227926	41351744.579508655
0.7482532175110298	40989383.86292413
0.7483779263806148	40626962.752887346
0.7485026560350116	40287065.803132184
0.7486274064776842	40008236.4800068
0.748752177712097	39729360.685328074
0.7488769697417158	39450438.41134964
0.749001782570006	39171469.65032587
0.7491266162004343	38892454.39450869
0.7492514706364677	38613392.63614874
0.7493763458815739	38334284.367495455
0.7495012419392209	38040636.3135773
0.7496261588128773	37726103.51953099
0.7497510965060128	37411518.30335211
0.7498760550220971	37096880.65630399
0.7500010343646007	36782190.56964797
0.7501260345369949	36467448.03464402
0.750251055542751	36152653.042551264
0.7503760973853414	35837805.5846263
0.7505011600682389	35477905.85291954
0.750626243594917	35080372.334554546
0.7507513479688495	34682772.56060377
0.7508764731935109	34285106.52002385
0.7510016192723765	33887374.2017704
0.7511267862089218	33489575.594797622
0.7512519740066232	33091710.688056868
0.7513771826689577	32693779.4704981
0.7515024121994025	32307222.448019058
0.7516276626014359	31925935.21129267
0.751752933878536	31544584.426694162
0.7518782260341824	31163170.083631426
0.7520035390718548	30781692.17151134
0.7521288729950334	30400150.679739434
0.7522542278071992	30018545.59771887
0.7523796035118337	29636876.914851114
0.7525050001124189	29266128.38357179
0.7526304176124378	28897706.78368476
0.7527558560153731	28529223.780198224
0.752881315324709	28160679.362877417
0.7530067955439299	27792073.521486923
0.7531322966765205	27423406.245790023
0.7532578187259665	27054677.52554706
0.7533833616957542	26685887.350517403
0.75350892558937	26253151.736106746
0.7536345104103016	25817339.992036708
0.7537601161620366	25381455.612676222
0.7538857428480638	24945498.585918747
0.7540113904718717	24509468.89965738
0.7541370590369503	24073366.54178173
0.7542627485467898	23637191.5001795
0.7543884590048808	23202921.12321236
0.7545141904147151	22788296.83056597
0.7546399427797842	22373603.433871474
0.7547657161035808	21958840.9216108
0.754891510389598	21544009.282264765
0.7550173256413296	21129108.50431201
0.7551431618622698	20714138.576229695
0.7552690190559135	20299099.48649279
0.7553948972257561	19885583.21753141
0.7555207963752938	19477341.753549527
0.755646716508023	19069032.249323882
0.755772657627441	18660654.69351406
0.7558986197370455	18252209.074778207
0.756024602840335	17843695.38177267
0.7561506069408084	17435113.603151634
0.7562766320419653	17026463.72756713
0.7564026781473054	16630674.517064791
0.75652874526033	16257570.533573948
0.7566548333845401	15884404.366085663
0.7567809425234375	15511176.004236262
0.7569070726805247	15137885.437660102
0.7570332238593047	14764532.65598956
0.7571593960632813	14391117.648855051
0.7572855892959586	14017640.405885998
0.7574118035608413	13663093.446594713
0.7575380388614347	13327068.40795886
0.7576642952012449	12990987.365149772
0.7577905725837782	12654850.308834035
0.7579168710125422	12318657.229674982
0.7580431904910444	11982408.118335942
0.7581695310227928	11646102.965478769
0.7582958926112967	11309741.761762364
0.7584222752600652	10996255.443593888
0.7585486789726085	10695889.830897525
0.7586751037524372	10395474.1572656
0.7588015496030628	10095008.41435415
0.7589280165279966	9794492.593819473
0.7590545045307512	9493926.68731471
0.7591810136148396	9193310.686492201
0.7593075437837755	8892644.583002444
0.7594340950410726	8623077.508844199
0.7595606673902461	8362503.011634994
0.7596872608348112	8101885.08534266
0.7598138753782836	7841223.722729564
0.75994051102418	7580518.916555788
0.7600671677760173	7319770.659581188
0.7601938456373134	7058978.944563559
0.7603205446115863	6798143.76426024
0.7604472647023548	6568756.515572547
0.7605740059131385	6342461.277486915
0.7607007682474575	6116128.323528047
0.7608275517088319	5889757.647410689
0.7609543563007835	5663349.242846808
0.7610811820268336	5436903.103548971
0.7612080288905045	5210419.223228352
0.7613348968953197	4985114.379427896
0.7614617860448022	4784737.702383075
0.7615886963424764	4584327.6292251395
0.7617156277918667	4383884.1543885395
0.7618425803964988	4183407.2723059673
0.7619695541598982	3982896.9774097684
0.7620965490855914	3782353.264131235
0.7622235651771058	3581776.1269002557
0.7623506024379685	3388689.5180046908
0.7624776608717082	3228549.0566055924
0.7626047404818536	3068381.905129587
0.7627318412719337	2908188.0591286104
0.762858963245479	2747967.5141531997
0.7629861064060198	2587720.265753612
0.7631132707570876	2427446.309479125
0.7632404563022137	2267145.640878736
0.7633676630449308	2116599.849766104
0.7634948909887717	1986850.7342008331
0.7636221401372697	1857079.993783137
0.7637494104939593	1727287.6249085823
0.7638767020623748	1597473.6239727358
0.7640040148460518	1467637.987369919
0.7641313488485262	1337780.7114943396
0.7642587040733344	1207901.7927393005
0.7643860805240132	1092957.7043460254
0.7645134782041005	995842.0189978116
0.7646408971171346	898710.1477019994
0.764768337266654	801562.087761007
0.7648957986561985	704397.8364766595
0.7650232812893079	607217.3911504443
0.7651507851695227	510020.7490833404
0.7652783103003843	412807.9075759039
0.7654058566854343	346833.74283244077
0.7655334243282153	302149.59959645953
0.7656610132322699	257458.0090033305
0.765788623401142	212758.96981172726
