#wavelength	surface flux
0.7	25546.262263797016
0.7001166666666666	25592.379609547006
0.7002333527777778	25614.450479358835
0.700350058336574	25636.525027648953
0.7004667833462966	25658.603255030426
0.7005835278101878	25680.685162116522
0.7007002917314895	25702.77074952043
0.7008170751134447	25724.86001785557
0.7009338779592968	25746.952967735422
0.7010507002722901	25769.609088438454
0.7011675420556689	25792.949845670282
0.701284403312678	25816.294493028283
0.7014012840465635	25839.64303116087
0.7015181842605713	25862.99546071648
0.701635103957948	25886.351782343663
0.701752043141941	25909.711996691116
0.701869001815798	25933.076104407657
0.7019859799827672	25976.41649396202
0.7021029776460976	26033.663764237375
0.7022199948090387	26090.920575724514
0.7023370314748403	26148.186930013544
0.7024540876467528	26205.462828694945
0.702571163328027	26262.748273359364
0.7026882585219152	26320.04326559805
0.7028053732316688	26377.347807002025
0.7029225074605406	26446.895860009558
0.7030396612117841	26521.179597706025
0.7031568344886527	26595.475716025452
0.7032740272944008	26669.78421703122
0.7033912396322832	26744.105102787198
0.7035084715055552	26818.43837535739
0.7036257229174727	26892.784036806373
0.7037429938712924	26967.142089199002
0.7038602843702709	26995.087802597158
0.7039775944176659	27015.16419933791
0.7040949240167356	27035.24394214479
0.7042122731707383	27055.32703157546
0.7043296418829335	27075.413468187715
0.7044470301565806	27095.5032525394
0.70456443799494	27115.596385188466
0.7046818654012724	27135.69286669298
0.7047993123788394	27189.792724059793
0.7049167789309024	27243.940614608568
0.7050342650607243	27298.09752980585
0.7051517707715678	27352.263471155642
0.7052692960666963	27406.438440162296
0.705386840949374	27460.62243833043
0.7055044054228656	27514.81546716501
0.7056219894904361	27563.002032272867
0.7057395931553511	27572.96879242048
0.705857216420877	27582.93721369479
0.7059748592902804	27592.907296372643
0.7060925217668288	27602.87904073095
0.70621020385379	27612.852447046647
0.7063279055544321	27622.82751559672
0.7064456268720246	27632.80424665823
0.7065633678098366	27649.480054136522
0.7066811283711383	27684.60344086205
0.7067989085592001	27719.732681485366
0.7069167083772933	27754.867776982097
0.7070345278286895	27790.0087283281
0.707152366916661	27825.155536499333
0.7072702256444803	27860.30820247189
0.7073881040154211	27895.466727222156
0.7075060020327569	27934.243564458142
0.7076239196997625	27978.287850516484
0.7077418570197124	28022.339477289126
0.7078598139958823	28066.39844599956
0.7079777906315483	28110.464757871487
0.7080957869299869	28154.538414128692
0.7082138028944751	28198.619415995254
0.7083318385282908	28242.70776469549
0.7084498938347124	28256.445151504675
0.708567968817018	28244.446432387704
0.7086860634784875	28232.445713484198
0.7088041778224007	28220.442994460867
0.7089223118520377	28208.43827498438
0.7090404655706796	28196.43155472132
0.709158638981608	28184.4228333382
0.709276832088105	28172.41211050152
0.7093950448934531	28188.091881664106
0.7095132774009353	28216.98111610961
0.7096315296138355	28245.87516542754
0.7097498015354378	28274.774030420343
0.7098680931690269	28303.67771189062
0.7099864045178884	28332.586210641177
0.7101047355853081	28361.499527474854
0.7102230863745722	28390.41766319465
0.7103414568889679	28417.04744781847
0.7104598471317828	28443.16060831023
0.7105782571063047	28469.278120995386
0.7106966868158224	28495.399986599325
0.710815136263625	28521.52620584752
0.7109336054530023	28547.65677946561
0.7110520943872445	28573.791708179295
0.7111706030696424	28599.930992714446
0.7112891315034873	28594.948122311045
0.7114076796920712	28588.479285923026
0.7115262476386865	28582.009371395605
0.7116448353466263	28575.5383785491
0.711763442819184	28569.066307203786
0.711882070059654	28562.593157179905
0.7120007170713306	28556.118928297696
0.7121193838575091	28549.67465857723
0.7122380704214853	28543.553035291658
0.7123567767665555	28537.430391735543
0.7124755028960166	28531.306727738833
0.7125942488131658	28525.182043131463
0.7127130145213015	28519.056337743306
0.7128318000237216	28512.929611404274
0.7129506053237256	28506.801863944173
0.7130694304246129	28499.921216542938
0.7131882753296837	28490.410589734456
0.7133071400422386	28480.8983778215
0.7134260245655789	28471.384580539903
0.7135449289030065	28461.86919762542
0.7136638530578235	28452.35222881379
0.7137827970333332	28442.833673840676
0.7139017608328388	28433.313532441738
0.7140207444596443	28420.75381816284
0.7141397479170543	28402.772544750787
0.7142587712083737	28384.788274459857
0.7143778143369084	28366.80100679053
0.7144968773059646	28348.81074124325
0.7146159601188489	28330.817477318393
0.7147350627788687	28312.821214516207
0.7148541852893318	28294.821952336897
0.7149733276535467	28262.293799994986
0.7150924898748222	28215.112643202876
0.715211671956468	28167.923622884628
0.7153308739017941	28120.72673772962
0.715450095714111	28073.52198642711
0.71556933739673	28026.30936766604
0.7156885989529628	27979.088880135183
0.7158078803861218	27931.860522523002
0.7159271816995193	27838.43745606637
0.7160465028964692	27717.890027040135
0.7161658439802853	27597.322506775734
0.7162852049542819	27476.734891924643
0.7164045858217744	27356.12717913767
0.716523986586078	27235.499365065287
0.7166434072505089	27114.851446357283
0.716762847818384	26994.183419662782
0.7168823082930204	26895.296068589898
0.7170017886777359	26802.805935039916
0.7171212889758488	26710.300386467734
0.7172408091906781	26617.779420304098
0.7173603493255433	26525.2430339794
0.7174799093837642	26432.691224923707
0.7175994893686615	26340.123990566462
0.7177190892835562	26247.541328336865
0.7178387091317702	26256.51227881323
0.7179583489166254	26275.680516740016
0.7180780086414448	26294.851949373144
0.7181976883095517	26314.02657724504
0.7183173879242699	26333.20440088825
0.718437107488924	26352.385420835406
0.7185568470068389	26371.569637619228
0.7186766064813399	26388.619053282597
0.7187963859157535	26352.216636516798
0.7189161853134061	26315.808152681537
0.719036004677625	26279.393600765638
0.7191558440117378	26242.972979757775
0.7192757033190732	26206.546288646357
0.7193955826029597	26170.1135264198
0.7195154818667269	26133.67469206617
0.7196354011137046	26099.282857736107
0.7197553403472235	26074.33800726266
0.7198752995706147	26049.388999314142
0.7199952787872098	26024.43583319762
0.720115278000341	25999.478508220076
0.7202352972133411	25974.517023688368
0.7203553364295432	25949.551378909273
0.7204753956522815	25924.58157318935
0.7205954748848902	25916.99427932222
0.7207155741307044	25947.73683775264
0.7208356933930594	25978.484519942744
0.7209558326752915	26009.237326746552
0.7210759919807375	26039.995259018204
0.7211961713127342	26070.758317611857
0.7213163706746197	26101.526503381996
0.7214365900697322	26132.299817183062
0.7215568295014103	26123.645744517136
0.721677088972994	26067.940595771586
0.7217973684878227	26012.22616283467
0.7219176680492374	25956.502444158865
0.7220379876605789	25900.769438196647
0.722158327325189	25845.027143400082
0.7222786870464099	25789.27555822108
0.7223990668275843	25733.514681111195
0.7225194666720555	25643.43035156228
0.7226398865831676	25529.011704452445
0.7227603265642646	25414.573987568365
0.722880786618692	25300.117197731222
0.7230012667497951	25185.64133176252
0.7231217669609201	25071.146386482807
0.7232422872554135	24956.632358712315
0.7233628276366229	24842.099245270332
0.7234833881078956	24791.292895648905
0.7236039686725803	24764.679918495764
0.7237245693340255	24738.062505846472
0.7238451900955812	24711.44065696169
0.7239658309605971	24684.814371102126
0.7240864919324239	24658.183647528218
0.7242071730144127	24631.548485500378
0.724327874209915	24604.90888427892
0.7244485955222832	24468.54726567834
0.7245693369548704	24314.022045658843
0.7246900985110294	24159.47107143624
0.7248108801941148	24004.894338717524
0.7249316820074803	23850.291843210536
0.7250525039544815	23695.663580620712
0.7251733460384739	23541.009546653768
0.7252942082628137	23386.52588680249
0.7254150906308574	23345.671879431542
0.7255359931459625	23304.81106305936
0.7256569158114868	23263.9434365511
0.7257778586307888	23223.068998771738
0.7258988216072273	23182.18774858609
0.7260198047441617	23141.29968485879
0.7261408080449525	23100.40480645413
0.72626183151296	23058.73431852647
0.7263828751515454	23011.947810214926
0.7265039389640706	22965.153504152004
0.726625022953898	22918.35139903804
0.7267461271243904	22871.541493573208
0.7268672514789111	22824.72378645749
0.7269883960208241	22777.89827639063
0.7271095607534942	22731.06496207206
0.7272307456802866	22680.440156244884
0.7273519508045666	22619.586263902536
0.7274731761297006	22558.722229244828
0.7275944216590555	22497.848050581346
0.7277156873959987	22436.9637262214
0.7278369733438982	22376.069254473958
0.727958279506122	22315.164633648055
0.7280796058860397	22254.24986205194
0.7282009524870207	22164.229622158033
0.7283223193124353	22031.159166718815
0.7284437063656539	21898.06653287063
0.7285651136500483	21764.95171691659
0.7286865411689898	21631.814715160162
0.7288079889258514	21498.65552390312
0.7289294569240056	21365.47413944784
0.7290509451668262	21232.270558095002
0.7291724536576875	21112.76957651607
0.7292939823999636	21004.621152658012
0.7294155313970303	20896.454704062427
0.7295371006522632	20788.27022772544
0.7296586901690385	20680.067720642477
0.7297802999507332	20571.84717980838
0.7299019300007252	20463.608602217202
0.7300235803223919	20355.351984863384
0.7301452509191123	20282.561163152717
0.7302669417942654	20226.136465393436
0.7303886529512311	20169.70236351784
0.7305103843933897	20113.258855958586
0.7306321361241218	20056.805941148115
0.7307539081468093	20000.34361751841
0.7308757004648336	19943.871883501553
0.7309975130815778	19887.390737528956
0.7311193460004248	19843.93002323428
0.7312411992247582	19803.41185610166
0.7313630727579622	19762.88693594119
0.7314849666034219	19722.355261627323
0.7316068807645224	19681.816832034423
0.7317288152446498	19641.271646036577
0.7318507700471907	19600.719702507708
0.7319727451755319	19560.1610003216
0.732094740633061	19467.25833573286
0.7322167564231665	19371.98394992946
0.7323387925492371	19276.693685061757
0.7324608490146619	19181.387538483265
0.732582925822831	19086.06550754699
0.7327050229771347	18990.727589605667
0.7328271404809642	18895.37378201126
0.7329492783377112	18799.79093180057
0.7330714365507675	18702.096657941573
0.7331936151235259	18604.386101703618
0.7333158140593796	18506.65926037307
0.7334380333617229	18408.916131235488
0.7335602730339499	18311.15671157634
0.7336825330794556	18213.380998680554
0.7338048135016354	18115.588989832813
0.7339271143038857	18026.27370011777
0.734049435489603	17965.40095785261
0.7341717770621846	17904.51807013039
0.7342941390250283	17843.62503526025
0.7344165213815324	17782.72185155099
0.734538924135096	17721.808517311016
0.7346613472891185	17660.885030848753
0.734783790847	17599.95139047206
0.7349062548121412	17519.208827031423
0.7350287391879431	17403.45767642028
0.7351512439778078	17287.687233950463
0.7352737691851374	17171.89749640704
0.735396314813335	17056.088460573927
0.7355188808658037	16940.26012323503
0.7356414673459482	16824.41248117301
0.7357640742571725	16708.545531170726
0.7358867016028818	16601.243149376398
0.7360093493864824	16502.400238822767
0.7361320176113801	16403.540854450843
0.736254706280982	16304.664993514854
0.7363774153986956	16205.772653268583
0.7365001449679286	16106.863830965807
0.7366228949920899	16007.938523859233
0.7367456654745885	15908.996729201475
0.7368684564188344	15811.550690130707
0.7369912678282374	15714.943099558648
0.7371140997062088	15618.319407721454
0.7372369520561599	15521.67961193553
0.7373598248815024	15425.02370951719
0.7374827181856494	15328.351697781622
0.7376056319720137	15231.663574044087
0.7377285662440091	15134.959335619249
0.7378515210050496	15016.351810356184
0.7379744962585505	14891.139333720057
0.738097492007927	14765.905988337856
0.7382205082565949	14640.651770731502
0.738343545007971	14515.376677422239
0.7384666022654723	14390.080704930631
0.7385896800325165	14264.763849777131
0.7387127783125219	14139.426108480948
0.7388358971089073	14080.094900555574
0.7389590364250921	14027.376518506273
0.7390821962644963	13974.649350059923
0.7392053766305403	13921.913393752242
0.7393285775266454	13869.168648118473
0.7394517989562333	13816.415111693714
0.7395750409227259	13763.652783012969
0.7396983034295463	13709.27014172838
0.739821586480118	13619.02899982486
0.7399448900778645	13528.772817731204
0.7400682142262109	13438.501592940256
0.740191558928582	13348.215322945274
0.7403149241884034	13257.914005238696
0.7404383100091014	13167.597637312478
0.7405617163941028	13077.266216658329
0.7406851433468352	12983.956510189475
0.7408085908707264	12877.075184839257
0.7409320589692048	12770.176045934864
0.7410555476456997	12663.259090507234
0.7411790569036406	12556.32431558711
0.7413025867464579	12449.37171820447
0.7414261371775823	12342.401295388903
0.7415497082004452	12235.413044169616
0.7416732998184786	12128.956503629832
0.741796912035115	12023.661096237554
0.7419205448537874	11918.348139610735
0.7420441982779297	11813.01763082448
0.742167872310976	11707.669566953331
0.7422915669563612	11602.30394507154
0.7424152822175206	11496.920762252797
0.7425390180978901	11391.520015570315
0.7426627746009065	11298.713498692241
0.7427865517300065	11221.266197220213
0.7429103494886282	11143.805987864527
0.7430341678802096	11066.332868474008
0.7431580069081896	10988.846836896928
0.7432818665760077	10911.347890981142
0.7434057468871037	10833.836028574437
0.7435296478449182	10756.31124752404
0.7436535694528923	10671.848456186211
0.7437775117144678	10582.631151546231
0.7439014746330868	10493.39897735561
0.7440254582121922	10404.15193113588
0.7441494624552276	10314.890010408413
0.7442734873656368	10225.613212694176
0.7443975329468645	10136.321535513582
0.7445215992023557	10047.0149763868
0.7446456861355559	9957.877003394175
0.7447697937499119	9868.791759755515
0.7448939220488703	9779.691668576268
0.7450180710358784	9690.576727381904
0.7451422407143843	9601.44693369733
0.7452664310878367	9512.302285047059
0.7453906421596846	9423.142778955442
0.7455148739333779	9333.968412946113
0.7456391264123667	9250.289875664943
0.7457633996001021	9167.478520999217
0.7458876935000356	9084.653364440897
0.7460120081156189	9001.814403689976
0.7461363434503048	8918.961636445558
0.7462606995075466	8836.095060406526
0.7463850762907978	8753.21467327161
0.7465094738035127	8670.332226423077
0.7466338920491467	8590.510664233065
0.746758331031155	8510.675798449274
0.7468827907529935	8430.827626854614
0.7470072712181189	8350.966147231355
0.7471317724299886	8271.091357361474
0.7472562943920602	8191.203255026672
0.7473808371077922	8111.301838008076
0.7475054005806435	8031.392128002935
0.7476299848140736	7951.500045066723
0.7477545898115426	7871.594646783337
0.7478792155765113	7791.675930933551
0.7480038621124406	7711.743895297854
0.7481285294227926	7631.798537656235
0.7482532175110298	7551.839855788257
0.7483779263806148	7471.867847473415
0.7485026560350116	7393.058786356431
0.7486274064776842	7317.420136975095
0.748752177712097	7241.768881152334
0.7488769697417158	7166.105016786774
0.749001782570006	7090.428541777245
0.7491266162004343	7014.739454021904
0.7492514706364677	6939.037751418568
0.7493763458815739	6863.323431864724
0.7495012419392209	6788.213093567985
0.7496261588128773	6713.976673307745
0.7497510965060128	6639.727880310743
0.7498760550220971	6565.466712514935
0.7500010343646007	6491.193167857818
0.7501260345369949	6416.907244276553
0.750251055542751	6342.608939708109
0.7503760973853414	6268.298252088858
0.7505011600682389	6196.0105701814255
0.750626243594917	6125.410345125561
0.7507513479688495	6054.798353365629
0.7508764731935109	5984.174592940379
0.7510016192723765	5913.539061888374
0.7511267862089218	5842.891758247925
0.7512519740066232	5772.232680056845
0.7513771826689577	5701.561825352693
0.7515024121994025	5634.90344410473
0.7516276626014359	5570.110285527723
0.751752933878536	5505.306328091067
0.7518782260341824	5440.491569994817
0.7520035390718548	5375.666009438855
0.7521288729950334	5310.829644622834
0.7522542278071992	5245.982473746005
0.7523796035118337	5181.1244950073315
0.7525050001124189	5117.270874742658
0.7526304176124378	5053.627388574012
0.7527558560153731	4989.973295157753
0.752881315324709	4926.308592725863
0.7530067955439299	4862.63327951021
0.7531322966765205	4798.947353742441
0.7532578187259665	4735.250813653691
0.7533833616957542	4671.543657474927
0.75350892558937	4609.780290755314
0.7536345104103016	4548.098531959036
0.7537601161620366	4486.406492869659
0.7538857428480638	4424.704171773706
0.7540113904718717	4362.991566957649
0.7541370590369503	4301.268676707471
0.7542627485467898	4239.5354993088795
0.7543884590048808	4178.303451645468
0.7545141904147151	4122.161122850497
0.7546399427797842	4066.0094370008173
0.7547657161035808	4009.8483925368205
0.754891510389598	3953.67798789875
0.7550173256413296	3897.49822152655
0.7551431618622698	3841.3090918599682
0.7552690190559135	3785.110597338454
0.7553948972257561	3729.337425012485
0.7555207963752938	3675.0140431735585
0.755646716508023	3620.68160743769
0.755772657627441	3566.340116295847
0.7558986197370455	3511.9895682388055
0.756024602840335	3457.6299617571017
0.7561506069408084	3403.2612953409844
0.7562766320419653	3348.883567480416
0.7564026781473054	3294.833047468786
0.75652874526033	3241.365265936857
0.7566548333845401	3187.888573107979
0.7567809425234375	3134.4029674969815
0.7569070726805247	3080.9084476184125
0.7570332238593047	3027.405011986538
0.7571593960632813	2973.89265911534
0.7572855892959586	2920.371387518661
0.7574118035608413	2869.458648462576
0.7575380388614347	2821.098163399409
0.7576642952012449	2772.729618255379
0.7577905725837782	2724.353011687229
0.7579168710125422	2675.968342351231
0.7580431904910444	2627.5756089036595
0.7581695310227928	2579.174810000574
0.7582958926112967	2530.7659442976105
0.7584222752600652	2483.9020260154725
0.7585486789726085	2437.9224452528797
0.7586751037524372	2391.9352012268087
0.7588015496030628	2345.9402926599773
0.7589280165279966	2299.9377182751423
0.7590545045307512	2253.9274767945763
0.7591810136148396	2207.9095669404314
0.7593075437837755	2161.8839874345767
0.7594340950410726	2117.744968796162
0.7595606673902461	2074.1481795744353
0.7596872608348112	2030.5441242211282
0.7598138753782836	1986.93280152531
0.75994051102418	1943.3142102756683
0.7600671677760173	1899.6883492608526
0.7601938456373134	1856.0552172691678
0.7603205446115863	1812.414813088842
0.7604472647023548	1770.1768735224653
0.7605740059131385	1728.0720220897306
0.7607007682474575	1685.9601531817161
0.7608275517088319	1643.841265628977
0.7609543563007835	1601.7153582615524
0.7610811820268336	1559.582429909592
0.7612080288905045	1517.4424794029871
0.7613348968953197	1475.2950943888072
0.7614617860448022	1433.1322482560165
0.7615886963424764	1390.962374982146
0.7617156277918667	1348.7854733961042
0.7618425803964988	1306.6015423264298
0.7619695541598982	1264.4105806015887
0.7620965490855914	1222.2125870498242
0.7622235651771058	1180.0075604990857
0.7623506024379685	1138.5286218075858
0.7624776608717082	1100.2561238449941
0.7626047404818536	1061.9772471327406
0.7627318412719337	1023.6919906077671
0.762858963245479	985.4003532066823
0.7629861064060198	947.1023338660272
0.7631132707570876	908.7979315221087
0.7632404563022137	870.4871451111674
0.7633676630449308	832.8132287078927
0.7634948909887717	796.5023099357143
0.7636221401372697	760.1853393437876
0.7637494104939593	723.8623159233948
0.7638767020623748	687.5332386658176
0.7640040148460518	651.1981065619896
0.7641313488485262	614.8569186028122
0.7642587040733344	578.5096737789338
0.7643860805240132	542.5389524217352
0.7645134782041005	507.01877017051424
0.7646408971171346	471.4926678889033
0.764768337266654	435.9606445902585
0.7648957986561985	400.42269928771907
0.7650232812893079	364.8788309943006
