#wavelength	surface flux
0.8	81430926.51685828
0.8002000000000001	82717086.39927725
0.8004000500000003	84205378.40031077
0.8006001500125003	85696080.95989074
0.8008003000500035	87187156.1951107
0.8010005001250161	88678604.19914016
0.8012007502500472	90170425.06516849
0.8014010504376099	91930096.69075154
0.8016014007002193	93779805.12694584
0.8018018010503944	95629975.99024919
0.8020022515006572	97480609.3962692
0.8022027520635323	99331705.46063912
0.8024033027515483	101224687.96438676
0.8026039035772362	103158737.29141217
0.8028045545531306	105093270.13076942
0.8030052556917691	107028286.60333744
0.803206007005692	108963786.8300219
0.8034068085074435	110674305.39188242
0.8036076602095705	111753238.60278372
0.8038085621246229	112832441.5469869
0.8040095142651542	113911914.29192679
0.8042105166437206	114991656.90505254
0.8044115692728815	116078105.2378163
0.8046126721651998	117441639.59090549
0.8048138253332411	118805514.82758185
0.8050150287895745	120169731.03306866
0.805216282546772	121534288.29260647
0.8054175866174087	122899186.69145843
0.8056189410140631	124427887.27679187
0.8058203457493168	126003240.09131706
0.8060218008357541	127578986.74404387
0.8062233062859632	129155127.33343463
0.8064248621125346	130731661.95797166
0.806626468328063	132280614.30190605
0.8068281249451449	133805925.5284985
0.8070298319763813	135331618.08289948
0.8072315894343755	136857692.06043792
0.8074333973317341	138384147.55647132
0.8076352556810671	139983344.48392817
0.8078371644949874	141757123.3742135
0.8080391237861113	143531345.70922178
0.8082411335670578	145306011.59981275
0.8084431938504498	147081121.1568782
0.8086453046489125	148869897.74581707
0.8088474659750746	150905314.83682823
0.8090496778415686	152941240.78211483
0.809251940261029	154977675.70888633
0.8094542532460944	157014619.74439123
0.8096566168094059	159052073.01590267
0.8098590309636085	160706542.2787826
0.8100614957213493	162271665.40393966
0.8102640110952797	163837179.80987823
0.8104665770980536	165403085.59441888
0.8106691937423283	166969382.85540625
0.8108718610407639	168299504.67179146
0.8110745790060241	169449068.6358026
0.8112773476507757	170598919.99080572
0.8114801669876885	171749058.80864727
0.8116830370294355	172899485.16119263
0.8118859577886929	174155215.62324944
0.8120889292781401	175629383.88663802
0.8122919515104597	177103920.69209236
0.8124950244983374	178578826.1317481
0.8126981482544621	180054100.2977636
0.8129013227915257	181545898.85560745
0.8131045481222237	183223054.14716703
0.8133078242592543	184900628.7275497
0.8135111512153191	186578622.701577
0.813714529003123	188257036.174098
0.8139179576353739	189935869.24998745
0.8141214371247829	191099889.12636155
0.8143249674840641	192164287.68075943
0.814528548725935	193228952.33479527
0.8147321808631167	194293883.15499607
0.8149358639083326	195359080.20790157
0.8151395978743097	195769388.32326397
0.8153433827737784	195737148.6497267
0.8155472186194719	195704900.91627106
0.8157511054241268	195672645.12088206
0.815955043200483	195640381.26154417
0.8161590319612831	194627247.8098875
0.8163630717192736	191816551.8899188
0.8165671624872033	189005153.29597324
0.8167713042778252	186193051.85237643
0.8169754971038948	183380247.3834173
0.8171797409781707	179911203.1719699
0.8173840359134155	171207940.46388605
0.8175883819223938	162502501.94013524
0.8177927790178745	153794887.0567485
0.8179972272126291	145085095.26963866
0.8182017265194322	136373126.03459084
0.8184062769510622	134084882.7344316
0.8186108785203001	132784918.87969081
0.8188155312399301	131484630.0339881
0.8190202351227402	130184016.11607249
0.819224990181521	128883077.04467824
0.8194297964290664	132807453.56269637
0.8196346538781738	139882556.9123418
0.8198395625416434	146959429.03782183
0.8200445224322789	154038070.3813362
0.820249533562887	161118481.3851844
0.8204545959462778	165600694.77256954
0.8206597095952644	165899450.85913292
0.8208648745226633	166198281.63471815
0.8210700907412941	166497187.11799723
0.8212753582639793	166796167.32764682
0.8214806771035456	167258530.8655323
0.8216860472728215	168727189.83295
0.8218914687846397	170196215.96510962
0.822096941651836	171665609.35380307
0.822302465887249	173135370.0908428
0.8225080415037209	174605498.2680676
0.8227136685140968	176517710.35830414
0.8229193469312254	178480544.54263198
0.8231250767679583	180443869.43550655
0.8233308580371503	182407685.15960327
0.8235366907516598	184371991.83763245
0.8237425749243477	186881230.42828903
0.8239485105680789	189679659.54260534
0.824154497695721	192478788.26419845
0.824360536320145	195278616.7679725
0.8245666264542252	198079145.22887236
0.8247727681108388	199589410.14616358
0.8249789613028664	199251149.67021263
0.8251852060431922	198912804.62914243
0.825391502344703	198574375.0018121
0.8255978502202894	198235860.7670746
0.8258042496828445	197388724.22802216
0.8260107007452654	194071626.86929983
0.8262172034204517	190753700.2362412
0.8264237577213068	187434944.1215234
0.8266303636607373	184115358.3177755
0.8268370212516525	180794942.61757827
0.8270437305069654	180027678.82551634
0.8272504914395923	179459800.31304485
0.8274573040624523	178891779.83094507
0.8276641683884679	178323617.34372526
0.8278710844305652	177755312.81588298
0.8280780522016729	177330889.66747755
0.8282850717147234	176972193.26811698
0.8284921429826521	176613407.1946569
0.8286992660183978	176254531.4246782
0.8289064408349024	175895565.93575725
0.8291136674451112	175415788.21200445
0.8293209458619727	174783665.52889362
0.8295282760984382	174151384.81511283
0.829735658167463	173518946.03115287
0.8299430920820048	172886349.13749772
0.8301505778550254	172490401.49823248
0.8303581154994891	173039522.56604216
0.8305657050283641	173588780.9141193
0.8307733464546212	174138176.57678306
0.8309810397912352	174687709.58836335
0.8311887850511829	175237379.98319548
0.8313965822474458	176601776.44382522
0.8316044313930077	178004323.3717016
0.8318123325008561	179407220.93631124
0.8320202855839813	180810469.22531134
0.8322282906553774	182214068.32638383
0.8324363477280413	183227755.7449769
0.8326444568149735	184084578.2466025
0.8328526179291771	184941614.95385253
0.8330608310836596	185798865.92028067
0.8332690962914304	186656331.19944927
0.8334774135655034	186942445.36381757
0.833685782918895	186590173.64452338
0.8338942043646247	186237813.8572996
0.834102677915716	185885365.98012877
0.834311203585195	185532829.99098888
0.8345197813860912	185250052.15931714
0.8347284113314379	185202312.78200778
0.8349370934342709	185154561.4698541
0.8351458277076294	185106798.21987244
0.8353546141645565	185059023.02907822
0.8355634528180977	185011235.8944863
0.8357723436813022	185842422.3704008
0.8359812867672226	186684669.87490138
0.8361902820889144	187527127.94127768
0.8363993296594368	188369796.62217084
0.8366084294918518	189212675.97023448
0.8368175815992247	189117923.1988217
0.8370267859946247	188700144.03262973
0.8372360426911234	188282260.4216464
0.8374453517017962	187864272.3397603
0.8376547130397217	187446179.76085383
0.8378641267179816	187818940.6654701
0.8380735927496613	188976630.71314135
0.8382831111478488	190134610.18332383
0.8384926819256358	191292879.14837325
0.8387023050961173	192451437.6806649
0.8389119806723914	193130624.85542738
0.8391217086675596	192460059.0468149
0.8393314890947265	191789325.59675077
0.8395413219670003	191118424.46332404
0.8397512072974922	190447355.6046135
0.8399611450993165	189807910.87134746
0.8401711353855914	190747080.30451638
0.8403811781694378	191686484.53004336
0.8405912734639802	192626123.60662693
0.8408014212823464	193565997.59298012
0.8410116216376671	194506106.54782975
0.8412218745430766	193177947.68439823
0.8414321800117124	191189409.9917106
0.8416425380567154	189200375.16459888
0.8418529486912297	187210843.07877988
0.8420634119284025	185220813.6099411
0.8422739277813847	185112022.55609658
0.8424844962633302	186661086.67046428
0.842695117387396	188210538.05085856
0.8429057911667428	189760376.79409802
0.8431165176145345	191310602.99702403
0.8433272967439382	189701727.2221259
0.8435381285681244	180385578.12701783
0.8437490131002665	171067099.99463806
0.8439599503535415	161746292.24273103
0.84417094034113	152423154.28887925
0.8443819830762154	143386180.71452183
0.8445930785719846	140158707.63780278
0.8448042268416277	136930427.6928163
0.8450154278983382	133701340.67784399
0.8452266817553128	130471446.3911182
0.8454379884257517	127240744.63082035
0.8456493479228583	126766271.83857538
0.845860760259839	126955607.98718601
0.846072225449904	127144991.46983379
0.8462837435062666	127334422.29835229
0.8464953144421433	127523900.484578
0.8467069382707537	128226822.35606714
0.8469186150053215	129330096.61881064
0.847130344659073	130433646.70012014
0.8473421272452377	131537472.66894889
0.8475539627770492	132641574.59427096
0.8477658512677435	133880633.2347
0.8479777927305605	135405978.34917545
0.8481897871787432	136931704.79992914
0.848401834625538	138457812.6822964
0.8486139350841944	139984302.0916333
0.8488260885679657	141455731.53717756
0.8490382950901076	142251715.58680242
0.8492505546638802	143047898.63244006
0.8494628673025462	143844280.72383887
0.8496752330193721	144640861.91076165
0.8498876518276269	145437642.24298012
0.8501001237405839	145532903.35526597
0.8503126487715191	145488112.96302575
0.850525226933712	145443311.37318748
0.8507378582404455	145398498.58295175
0.8509505427050057	145353674.58951846
0.8511632803406821	145278459.5364206
0.8513760711607672	145182421.0428592
0.8515889151785576	145086358.53967425
0.8518018124073523	144990272.0208636
0.8520147628604541	144894161.4804233
0.8522277665511693	145290904.15207982
0.8524408234928071	146599262.88676497
0.8526539336986805	147907948.71113414
0.8528670971821053	149216961.7069595
0.8530803139564007	150526301.95603228
0.8532935840348901	151850237.02007738
0.8535069074308987	153294999.2264034
0.8537202841577566	154740122.62328216
0.8539337142287962	156185607.30101034
0.8541471976573534	157631453.349907
0.8543607344567677	159077660.86031622
0.8545743246403821	159301907.7312691
0.8547879682215422	159332091.92951125
0.8550016652135977	159362283.67380294
0.8552154156299011	159392482.96603072
0.8554292194838088	159422689.80808157
0.8556430767886797	159433880.87935486
0.855856987557877	159433524.28941688
0.8560709518047664	159433167.61033145
0.8562849695427177	159432810.8420762
0.8564990407851035	159432453.98462892
0.8567131655452999	159312330.42243224
0.8569273438366862	158995935.23283663
0.8571415756726455	158679460.94444355
0.8573558610665638	158362907.53747827
0.8575702000318304	158046274.9921616
0.8577845925818384	158054829.2588703
0.857999038729984	160095116.74277657
0.8582135384896665	162135914.29855338
0.858428091874289	164177222.05371922
0.8586426988972576	166219040.13582334
0.8588573595719821	168261368.67244866
0.8590720739118751	168913243.8885105
0.8592868419303532	169401283.27306283
0.8595016636408359	169889444.6674613
0.8597165390567462	170377728.10220823
0.8599314681915105	170866133.60781392
0.8601464510585584	170800736.51490518
0.860361487671323	170441303.708781
0.8605765780432408	170081781.04445538
0.8607917221877518	169722168.49946338
0.8610069201182988	169362466.05133522
0.8612221718483286	167728782.22571793
0.8614374773912907	164258203.05539814
0.8616528367606385	160786756.24028668
0.8618682499698288	157314441.56346926
0.8620837170323213	153841258.80798322
0.8622992379615795	150947731.71029377
0.8625148127710699	150926271.86711746
0.8627304414742627	150904806.65898037
0.8629461240846313	150883336.0845412
0.8631618606156526	150861860.14245844
0.8633776510808066	150840378.83139017
0.8635934954935769	154281913.5726911
0.8638093938674504	158008178.8270404
0.8640253462159173	161735375.64770317
0.8642413525524714	165463504.267571
0.8644574128906095	169192564.91959304
0.8646735272438323	169802864.18272808
0.8648896956256433	168962572.028938
0.8651059180495498	168122069.80210945
0.8653221945290621	167281357.44972497
0.8655385250776946	166440434.91925123
0.8657549097089641	167443810.12356412
0.8659713484363913	170808811.83706072
0.8661878412735006	174174654.80098727
0.866404388233819	177541339.22565433
0.8666209893308775	180908865.32142603
0.8668376445782103	183651395.48596048
0.8670543539893549	183840249.46855503
0.8672711175778525	184029150.66464537
0.8674879353572469	184218099.08603454
0.8677048073410862	184407094.74452913
0.8679217335429217	184596137.65193844
0.8681387139763074	183186463.47825506
0.8683557486548015	181697014.34673783
0.8685728375919655	180207192.85293588
0.8687899808013633	178716998.90376374
0.8690071782965637	177226432.4061024
0.869224430091138	176101083.53087762
0.8694417361986609	175124211.5347222
0.8696590966327107	174147095.32056797
0.869876511406869	173169734.82736012
0.8700939805347206	172192129.99402943
0.8703115040298544	171646097.05419174
0.870529081905862	171593618.55076453
0.8707467141763385	171541126.92771152
0.8709644008548827	171488622.1817527
0.8711821419550964	171436104.30960745
0.8713999374905854	171812464.17071047
0.871617787474958	173669169.2974465
0.8718356919218269	175526338.60046583
0.8720536508448075	177383972.1958111
0.8722716642575187	179242070.1995541
0.8724897321735832	181100632.72779885
0.8727078546066265	183265354.31035277
0.8729260315702784	185435267.68813404
0.873144263078171	187605723.54425746
0.8733625491439405	189776722.01434514
0.8735808897812266	191948263.23405117
0.8737992850036719	192307887.73936734
0.874017734824923	192025658.76245728
0.8742362392586293	191743359.2283031
0.874454798318444	191460989.11926538
0.8746734120180236	191178548.41770044
0.8748920803710283	191447340.75044227
0.875110803391121	192270207.91205117
0.8753295810919689	193093280.79045093
0.875548413487242	193916559.43707028
0.8757673005906139	194740043.9033513
0.8759862424157616	196493226.0776511
0.8762052389763657	200936375.04281443
0.8764242902861098	205380634.79521596
0.8766433963586814	209826005.61255676
0.8768625572077712	214272487.77260327
0.8770817728470732	218689591.10307446
0.8773010432902849	220727181.2989855
0.8775203685511077	222765280.89244843
0.8777397486432454	224803890.0108072
0.8779591835804065	226843008.781448
0.8781786733763015	228882637.3317788
0.8783982180446457	227093939.95355415
0.878617817599157	224165788.30629066
0.8788374720535569	221236904.6211167
0.8790571814215703	218307288.71502218
0.8792769457169257	215376940.4049511
0.879496764953355	213761009.4074886
0.8797166391445934	213327080.56769365
0.8799365683043796	212893043.24568868
0.8801565524464557	212458897.41435325
0.8803765915845676	212024643.04655954
0.8805966857324639	212257261.21210134
0.880816834903897	214165194.09492192
0.881037039112623	216073603.96096396
0.8812572983724012	217982490.92947236
0.8814776126969944	219891855.1197237
0.8816979821001687	221765352.54053703
0.8819184065956938	222783771.8574921
0.8821388861973429	223802445.77927747
0.8823594209188923	224821374.3695423
0.882580010774122	225840557.69195423
0.8828006557768155	226859995.81019732
0.8830213559407598	230604213.44729072
0.8832421112797452	235034612.7464919
0.8834629218075651	239466119.6455152
0.8836837875380171	243898734.42126462
0.8839047084849018	248332457.35070866
0.884125684662023	247420168.42522416
0.8843467160831886	242222617.42440012
0.8845678027622095	237023767.03582588
0.8847889447129001	231823616.93465355
0.8850101419490785	226622166.79595685
0.8852313944845657	220660098.72538006
0.885452702333187	213034487.10928267
0.8856740655087704	205406969.09028232
0.8858954840251476	197777544.19177932
0.8861169578961539	190146211.9370552
0.886338487135628	182718824.51619348
0.886560071757412	178028945.43356058
0.8867817117753515	173337893.8811571
0.8870034072032955	168645669.56586343
0.8872251580550963	163952272.19449645
0.8874469643446101	159257701.47378373
0.8876688260856963	159239665.3884384
0.8878907432922178	160189736.47054553
0.8881127159780409	161140045.0704226
0.8883347441570356	162090591.24745074
0.8885568278430749	163041375.0610222
0.8887789670500358	163870665.38521075
0.8890011617917983	164613810.13737375
0.8892234120822464	165357140.67572513
0.8894457179352669	166100657.0467105
0.8896680793647509	166844359.2967892
0.8898904963845921	168266355.407528
0.8901129690086883	170982554.8072269
0.8903354972509405	173699433.25677505
0.8905580811252535	176416990.92593768
0.8907807206455347	179135227.98451397
0.8910034158256963	181784778.12473133
0.8912261666796527	183815064.94832364
0.8914489732213227	185845859.34362242
0.8916718354646282	187877161.43752205
0.8918947534234944	189908971.35694316
0.8921177271118502	191941289.22884285
0.8923407565436284	192062528.05537665
0.8925638417327644	191871965.35305446
0.8927869826931977	191681355.0100566
0.8930101794388711	191490697.01447302
0.8932334319837308	191299991.3543906
0.8934567403417267	191190672.70755392
0.8936801045268123	191131928.80459177
0.8939035245529441	191073170.21565393
0.8941270004340824	191014396.93706882
0.894350532184191	190955608.9651641
0.8945741198172371	191784434.0317482
0.8947977633471915	194085491.02435708
0.8950214627880284	196387123.281214
0.8952452181537254	198689330.94613376
0.8954690294582639	200992114.16297117
0.8956928967156286	203299181.17074186
0.8959168199398075	205630889.16172224
0.8961407991447926	207963180.07970098
0.8963648343445789	210296054.07040915
0.896588925553165	212629511.27961364
0.8968130727845534	214963551.85312077
0.8970372760527496	217038257.59908414
0.8972615353717629	219080961.00316346
0.8974858507556059	221124175.08309403
0.8977102222182949	223167899.96654403
0.8979346497738496	225212135.78121606
0.8981591334362931	227227665.74331507
0.8983836732196523	229227721.54598662
0.8986082691379572	231228277.36260754
0.8988329212052417	233229333.3181826
0.8990576294355432	235230889.53774828
0.8992823938429022	236983137.85319752
0.8995072144413631	238364391.04455283
0.8997320912449734	239745989.5492055
0.8999570242677847	241127933.453484
0.9001820135238516	242510222.84373868
0.9004070590272328	244066705.25106
0.9006321607919896	246534944.3945403
0.9008573188321878	249003800.597809
0.9010825331618959	251473274.0151273
0.9013078037951865	253943364.80080035
0.9015331307461353	256414073.1091685
0.9017585140288219	257282932.07280242
0.9019839536573292	258013983.6129988
0.9022094496457435	258745217.91607973
0.9024350020081551	259476635.02773723
0.9026606107586572	260208234.9936724
0.902886275911347	261598492.14636332
0.9031119974803249	263306527.30361328
0.9033377754796951	265014989.46965253
0.903563609923565	266723878.75123256
0.903789500826046	268433195.25513414
0.9040154482012526	269880854.60198
0.904241452063303	270989368.29564434
0.9044675124263188	272098159.1177319
0.9046936293044254	273207227.13752484
0.9049198027117517	274316572.4243232
0.9051460326624297	274879529.4635098
0.9053723191705955	273114798.0114926
0.9055986622503881	271349625.3766141
0.9058250619159507	269584011.4485767
0.9060515181814298	267817956.11705625
0.9062780310609752	266051459.27170414
0.9065046005687405	267384047.18612793
0.906731226718883	268889881.6606895
0.9069579095255627	270396092.5938677
0.907184649002944	271902680.0797793
0.907411445165195	273409644.212564
0.9076382980264862	275119946.6874649
0.907865207600993	276914966.31501454
0.9080921739028933	278710434.6974705
0.9083191969463691	280506351.9470218
0.9085462767456058	282302718.1758863
0.9087734133147922	284307774.3717502
0.9090006066681211	286553852.6239969
0.909227856819788	288800492.39580375
0.9094551637839932	291047693.82755667
0.9096825275749393	293295457.05966675
0.9099099482068329	295356194.4025763
0.9101374256938848	296750756.5292798
0.9103649600503083	298145667.2965143
0.9105925512903209	299540926.7914403
0.9108201994281437	300936535.1012415
0.9110479044780008	302332492.3131186
0.9112756664541204	305218522.98928595
0.911503485370734	308139374.70372254
0.9117313612420768	311060956.6310878
0.9119592940823873	313983268.95393395
0.912187283905908	316906311.8548618
0.9124153307268845	318170293.08506864
0.9126434345595664	318832182.67544097
0.9128715954182063	319494237.73821026
0.9130998133170609	320156458.3147456
0.9133280882703902	320818844.446425
0.913556420292458	322214786.96362567
