#wavelength	surface flux
0.428837	39238.621061607904
0.43312537	50730.40049520128
0.43745662370000005	46734.5556798663
0.4418311899370001	45730.54551112359
0.44624950183637	54534.866922512345
0.4507119968547338	64258.625528833945
0.45521911682328114	70533.66946301224
0.4597713079915139	84891.26396087927
0.4643690210714291	80431.43719084896
0.4690127112821433	73788.73228739835
0.47370283839496474	67445.94618496591
0.47843986677891437	61118.90870574204
0.48322426544670355	55265.83356367617
0.48805650810117057	49925.22250912925
0.4929370731821824	44630.57635161838
0.49786644391400414	39461.56229359449
0.5028451083531442	34918.107195298275
0.5078735594366757	30559.99653279068
0.5129522950310424	26509.937736684915
0.5180818179813528	22670.11265550839
0.5232626361611664	19069.9842515602
0.5284952625227781	15712.216567370668
0.5337802151480058	12622.484305755412
0.5391180172994858	9854.289871289659
0.5445091974724807	7434.729883437352
0.5499542894472055	5388.192427608045
0.5554538323416777	3724.601201239357
0.5610083706650945	2439.4517185138166
0.5666184543717453	1507.3104084434501
0.5722846389154628	878.4478215668496
0.5780074853046174	465.5311630124466
0.5837875601576636	174.57642541883965
0.5896254357592402	18.54520449956645
0.5955216901168326	299.7288765636667
0.6014769070180009	946.2382580768088
0.607491676088181	2155.888709134638
0.6135665928490629	4333.459497855539
0.6197022587775535	8022.621055301792
0.625899281365329	13886.671585882887
0.6321582741789823	22644.868735367087
0.6384798569207721	35082.108722552795
0.6448646554899798	51844.16523502148
0.6513133020448797	73953.12213727634
0.6578264350653285	101685.97278547782
0.6644046994159818	135353.5979976679
0.6710487464101416	132707.51170217796
0.677759233874243	220705.10100385442
0.6845368262129854	270502.096410727
0.6913821944751153	314343.12271785113
0.6982960164198664	362353.0452840587
0.7052789765840651	395224.5974835781
0.7123317663499058	412051.5364393729
0.7194550840134049	389234.14015129686
0.7266496348535388	354937.1511793238
0.7339161312020743	294075.2088711409
0.741255292514095	212532.0238495165
0.748667845439236	124835.5550989976
0.7561545238936284	51784.71682011152
0.7637160691325647	8780.603374978398
0.7713532298238903	6958.697781672789
0.7790667621221293	56526.93912869669
0.7868574297433505	197147.86989904457
0.7947260040407841	220417.4512641624
0.8026732640811919	712880.7494586976
0.8106999967220039	1054203.2545165105
0.8188069966892239	1517112.7636615678
0.8269950666561161	2118517.950536205
0.8352650173226772	2754360.2855855483
0.8436176674959041	3548999.8362959903
0.852053844170863	3575500.730117663
0.8605743826125718	5789344.492630202
0.8691801264386976	7109596.819300344
0.8778719277030844	8582940.72183736
0.8866506469801153	9795058.860700455
0.8955171534499164	8180350.503928681
0.9044723249844157	13917850.299173232
0.9135170482342599	15739311.316312386
0.9226522187166025	16839604.508570705
0.9318787409037684	7293564.281233371
0.941197528312806	12046367.13410734
0.9506095035959342	9113219.623947088
0.9601155986318936	10758972.847818026
0.9697167546182125	13817558.0925993
0.9794139221643946	20787594.635312688
0.9892080613860387	27670356.639343597
0.9991001419998989	32050672.25326823
1.0090911434198981	39316566.79285838
1.019182054854097	49800887.3040173
1.0293738754026378	56017953.19550402
1.0396676141566643	68292186.51672465
1.050064290298231	76796305.05184142
1.0605649332012133	88923125.9286508
1.0711705825332256	96402084.74262653
1.0818822883585577	107737051.8909687
1.0927011112421434	64374004.78107233
1.1036281223545648	16836519.52285216
1.1146644035781104	10061066.12770529
1.1258110476138916	7329360.06262687
1.1370691580900303	11860749.026174676
1.1484398496709307	14915050.775092252
1.1599242481676402	7347206.266658033
1.1715234906493166	10472868.74112137
1.1832387255558097	32709780.396804348
1.1950711128113678	58164107.90660453
1.2070218239394814	78649069.86340716
1.2190920421788762	100922629.54505876
1.2312829626006652	124043385.16516432
1.2435957922266716	108645267.41692357
1.2560317501489384	127435859.71731138
1.2685920676504279	149838425.77175096
1.281277988326932	134650248.89527652
1.2940907682102014	101296966.53473502
1.3070316758923035	95574441.85331635
1.3201019926512265	73265994.19374028
1.3333030125777388	10410386.640227513
1.3466360427035162	922328.1146411963
1.3601024031305513	404271.71994628164
1.373703427161857	728314.3634393174
1.3874404614334754	176176.83056788554
1.4013148660478103	899408.259507704
1.4153280147082883	384309.636169371
1.4294812948553712	1021260.5437728838
1.443776107803925	1837544.9829995893
1.4582138688819641	4235852.939243114
1.4727960075707838	5353633.361152304
1.4875239676464918	6347254.53209581
1.5023992073229566	12167583.010627244
1.5174231993961862	18443136.325022027
1.532597431390148	28096346.55291244
1.5479234057040496	38045304.4918771
1.5634026397610903	48796275.91196584
1.579036666158701	57196910.28518903
1.594827032820288	62502375.6738802
1.610775303148491	56225115.984116375
1.6268830561799759	41101430.71928394
1.6431518867417756	48856244.07586982
1.6595834056091934	45972054.67256431
1.6761792396652853	31349989.70519426
1.6929410320619382	18964974.74283145
1.7098704423825577	20925535.67405675
1.7269691468063835	21332771.911147784
1.744238838274447	13200452.472249124
1.7616812266571917	7096455.322526355
1.7792980389237634	2551657.967472274
1.7970910193130012	1352997.1246858584
1.815061929506131	324619.9127389783
1.8332125488011928	302807.8017665891
1.8515446742892046	771303.284217092
1.8700601210320964	582158.5817640832
1.8887607222424174	1888582.1476759661
1.9076483294648416	1182881.2207209594
1.92672481275949	366536.28600020596
1.9459920608870853	1136243.415486338
1.9654519814959561	2078629.9454223672
1.9851065013109155	4986876.384595576
2.0049575663240247	7477654.360788158
2.025007141987265	13127582.37575296
2.0452572134071376	19375488.226783715
2.065709785541209	25903054.676120494
2.086366883396621	27029823.19058888
2.107230552230587	25740381.75618794
2.1283028577528933	24877209.17163064
2.1495858863304225	19210087.671920925
2.1710817451937263	15506967.796335166
2.1927925626456637	7945450.592096556
2.2147204882721203	4171463.3401156557
2.2368676931548412	2558953.464736504
2.25923637008639	1907637.5451270565
2.281828733787254	1898773.581076749
2.3046470211251266	2607443.0213141153
2.327693491336378	1254054.5879912146
2.3509704262497415	1276184.5492591057
2.374480130512239	1024027.9495189696
2.3982249318173614	1779296.074379328
2.4222071811355352	2443073.321673118
2.4464292529468903	2783277.585912741
2.4708935454763594	1977734.7167296284
2.4956024809311232	953424.2261479152
2.5205585057404343	406694.4945366529
2.5457640907978387	185125.2172232107
2.5712217317058172	309542.77682095714
2.5969339490228753	88500.04929998936
2.622903288513104	152037.10434107168
2.6491323213982354	751883.7730472661
2.6756236446122177	80829.80061983179
2.7023798810583397	359289.55514116754
2.729403679868923	755587.0013523855
2.7566977166676123	381784.62702768156
2.7842646938342885	377737.563656386
2.812107340772631	283646.8175723365
2.8402284141803578	788332.9008925782
2.8686306983221614	726077.7941236475
2.897317005305383	1067941.8338333983
2.926290175358437	1634255.1823618049
2.9555530771120213	1798274.62159275
2.9851086078831415	2453470.4399493383
3.014959693961973	3402321.4849383854
3.0451092909015927	3044908.933500478
3.0755603838106085	3068543.458307121
3.1063159876487147	1658829.31262709
3.137379147525202	1089850.9842793322
3.168752939000454	412394.9002488796
3.200440468390459	334850.07962799515
3.232444873074363	478665.3827784271
3.264769321805107	535500.4457836803
3.297417015023158	1063782.664169895
3.330391185173389	244516.73734858257
3.3636950970251234	686212.1545205914
3.397332047995375	788718.0350039492
3.4313053684753285	547023.2670532127
3.465618422160081	643156.140391489
3.5002746063816828	920411.4030898449
3.5352773524454997	1349121.1006084501
3.570630125969955	2002996.8600015235
3.606336427229654	2616073.4757054327
3.6423997915019504	3543801.8984312126
3.67882378941697	4655279.605410724
3.7156120273111397	5344585.390246442
3.7527681475842516	6351064.193022897
3.7902958290600934	6296829.210096192
3.8281987873506953	8772809.848634986
3.8664807752242023	8760324.930754567
3.905145582976444	9666566.179856041
3.9441970388062084	10869088.959811006
3.983639009194271	11581092.197192037
4.023475399286213	12255508.688938692
4.063710153279075	12618529.561971288
4.1043472548118665	12021458.258433996
4.145390727359985	11016433.16525251
4.186844634633585	10189014.406755555
4.2287130809799205	8899814.701941682
4.27100021178972	8551982.728009552
4.313710213907617	7748451.324117753
4.356847316046694	7591222.621561194
4.40041578920716	7015630.906799574
4.444419947099232	5992116.4889148455
4.488864146570225	6032120.082643088
4.533752788035927	4993733.041066632
4.579090315916286	5430211.20613814
4.624881219075449	4814024.707557672
4.671130031266204	4124645.9285629364
4.717841331578866	4242233.04614893
4.765019744894654	5119495.428983934
4.812669942343601	4113940.3912509033
4.8607966417670365	4516600.768248451
4.9094046081847065	3457154.589380525
4.958498654266554	2558588.636142352
5.008083640809219	2935934.4803399974
5.058164477217312	3218876.2815454137
5.108746121989485	2263351.657413632
5.15983358320938	1637945.2918263788
5.211431919041474	1045363.7616733871
5.263546238231889	1543098.023817058
5.316181700614208	1589399.601706919
5.36934351762035	998590.2749466816
5.423036952796553	776920.0500446944
5.4772673223245185	678086.6400719549
5.532039995547764	843913.4968065618
5.587360395503242	514011.81674717634
5.643233999458275	511498.6584293182
5.6996663394528575	636463.5259611728
5.756663002847385	454618.6855368978
5.814229632875859	568427.0501799337
5.872371929204618	467447.95893444587
5.931095648496664	454441.3197084472
5.990406604981631	537608.8973985752
6.050310671031448	467444.5508532716
6.110813777741763	513009.89285243576
6.17192191551918	464126.18957338535
6.233641134674372	1358154.9916559216
6.295977546021115	1609883.980054714
6.358937321481327	843551.0208855544
6.42252669469614	301693.3434498754
6.486751961643101	293663.13344810903
6.551619481259532	369043.2324749404
6.617135676072128	306328.80274172156
6.683307032832849	421938.8814796295
6.750140103161177	606229.2057469594
6.81764150419279	555704.6034496583
6.885817919234718	461038.89956972096
6.954676098427065	570701.2806618317
7.024222859411336	436458.7514691514
7.094465088005449	601784.6165015615
7.165409738885503	390890.3959819949
7.237063836274358	473485.77102146926
7.309434474637103	382003.4710959162
7.382528819383473	334240.10089120653
7.456354107577308	307786.4209294697
7.530917648653081	413836.808679701
7.606226825139612	445907.8697980821
7.682289093391009	240038.23784218184
7.759111984324918	354392.0316627057
7.836703104168168	415542.78815063846
7.91507013520985	380139.11278910626
7.994220836561947	432219.1524632986
8.074163044927568	422671.5488476665
8.154904675376844	465024.0858964225
8.23645372213061	514010.07201496226
8.318818259351918	614233.3502613807
8.402006441945437	611596.2656057852
8.486026506364892	665641.4503002756
8.57088677142854	803110.0942212036
8.656595639142825	808227.1868074497
8.743161595534254	934372.3942898848
8.830593211489598	951719.9033126183
8.918899143604493	907515.7533712423
9.00808813504054	956339.6680242622
9.098169016390944	1069159.0108039163
9.189150706554853	1084234.1837603087
9.281042213620402	954515.141043314
9.373852635756606	830690.552642126
9.467591162114172	1014533.4868536209
9.562267073735315	1187890.3729396134
9.657889744472667	833254.7524984071
9.754468641917395	1001265.1475102273
9.852013328336568	937070.9182372718
9.950533461619933	1068445.9643403997
10.050038796236134	1030648.7932595484
10.150539184198495	1095060.8048038841
10.252044576040479	995358.7514536737
10.354565021800884	305569.0883630967
10.458110672018893	545336.4044841853
10.562691778739081	761682.7535091266
10.668318696526473	668295.5304666515
10.775001883491738	489585.8337039605
10.882751902326655	641172.4590215953
10.991579421349924	518365.1091286168
11.101495215563421	685077.8486952914
11.212510167719055	559914.2843109702
11.324635269396246	457030.76782499533
11.43788162209021	683714.8922984713
11.552260438311112	248253.58230357652
11.667783042694223	420466.9508717562
11.784460873121166	420639.13165255357
11.902305481852377	498207.48317067453
12.0213285366709	436970.2580250102
12.14154182203761	529067.192164292
12.262957240257986	404432.41255129746
12.385586812660566	330175.3443634749
12.509442680787172	297106.7779149511
12.634537107595044	356232.34373040305
12.760882478670995	349197.8490044663
12.888491303457704	350802.07111807785
13.01737621649228	299994.096603745
13.147549978657205	314525.25227785774
13.279025478443776	244410.73280044284
13.411815733228213	238713.4532541924
13.545933890560496	266745.6026805812
13.681393229466101	246521.0181795737
13.818207161760762	250868.93836005864
13.956389233378369	233242.7669505418
14.095953125712155	243130.30543317256
14.236912656969274	181191.9766713087
14.379281783538968	169752.7533679551
14.523074601374358	152467.22697508527
14.6683053473881	210090.56768541352
14.814988400861985	194590.77363819486
14.963138284870602	151416.30275002198
15.11276966771931	181674.33492314807
15.263897364396504	194275.06255628212
15.41653633804047	154017.39821238254
15.570701701420873	123690.60711211876
15.726408718435081	106441.52087890198
15.883672805619431	159797.35724512435
16.042509533675627	106584.04943743574
16.202934629012383	116879.31576747418
16.36496397530251	114439.94345763835
16.528613615055534	113092.68679902404
16.69389975120609	86105.35486258047
16.86083874871815	95429.5586355797
17.02944713620533	92073.1530564913
17.199741607567383	76897.75780652961
17.37173902364306	70841.2611895677
17.54545641387949	78025.96985789678
17.720910978018285	77361.8863193591
17.898120087798468	74212.64702770772
18.077101288676452	72841.93560184834
18.257872301563214	61707.78737767153
18.44045102457885	66792.85631306698
18.62485553482464	58596.73827155196
18.811104090172883	66000.34193113048
18.999215131074614	50074.167375418765
19.189207282385357	56945.5057698786
19.381099355209216	43001.49187417535
19.574910348761303	44454.481914512864
19.77065945224892	46372.728380544184
19.968366046771408	39763.43208508763
20.16804970723912	54269.93853216229
20.369730204311512	37738.207427678244
20.573427506354626	36590.59183586474
20.779161781418175	40172.871659270524
20.98695339923236	33881.03950608529
21.19682293322468	32568.273323927602
21.408791162556927	29870.65963948725
21.622879074182496	32009.521680070422
21.839107864924323	26665.44787614386
22.057498943573567	28964.254193356526
22.278073933009303	29669.542712155428
22.500854672339393	23125.573111073685
22.72586321906279	34819.40611261222
22.953121851253417	21967.418239820723
23.18265306976595	33835.504912218326
23.41447960046361	30635.28276759248
23.648624396468247	19079.713615894543
23.88511064043293	17062.391341563864
24.12396174683726	27403.087814976294
24.365201364305634	31590.454244622335
24.608853377948687	28746.333912265043
24.854941911728176	23591.61861427157
25.103491330845458	14145.573874027777
25.354526244153913	14013.460735108009
25.608071506595454	20225.13604204465
25.864152221661406	19908.754125968004
26.122793743878024	15973.850540726902
26.384021681316803	19247.95085417832
26.64786189812997	11259.846218563493
26.91434051711127	12123.079559809348
27.18348392228238	14843.833678357327
27.455318761505207	22636.21359254677
27.72987194912026	17382.629246300992
28.007170668611465	10853.77769509029
28.28724237529758	9160.879304608909
28.57011479905055	8427.815329725665
28.855815947041062	12336.223566475075
29.144374106511474	9997.992610084433
29.435817847576587	10314.11120660706
29.730176026052348	10041.449896211343
30.027477786312875	9646.163076767629
30.327752564176006	8222.014281648191
30.631030089817763	6736.688890467023
30.93734039071594	7051.623981587043
31.246713794623105	9016.934520176617
31.559180932569333	8825.259035218898
31.874772741895026	7450.0120398449935
32.19352046931398	8370.771092592784
32.51545567400712	9058.835339301617
32.84061023074719	5390.795571062874
33.169016333054664	4804.256688103303
33.500706496385206	6155.081007867415
33.83571356134906	6474.049949465679
34.17407069696255	6479.462942677025
34.51581140393218	5040.396488912574
34.8609695179715	4921.234676756855
35.209579213151216	4894.657992270254
35.56167500528272	4080.398559362413
35.917291755335555	3734.6619787775257
36.27646467288891	3994.117281383844
36.639229319617804	4798.087765869142
37.005621612813975	4711.564503290249
37.37567782894212	3963.094445512312
37.74943460723154	3797.237449971817
38.12692895330385	4950.845011598493
38.5081982428369	5334.247615320834
38.893280225265265	3753.5274566575195
39.28221302751791	2679.1968750664782
39.6750351577931	2629.9679017952617
40.071785509371026	2758.636576320155
40.47250336446474	2572.1301202891755
40.87722839810939	2690.5467308907046
41.28600068209048	2807.605991102414
41.69886068891139	3900.293168559998
42.1158492958005	3314.0750461990856
42.53700778875851	3011.1296640430473
42.962377866646094	2365.1508300068626
43.392001645312554	2177.8107656908387
43.825921661765676	1895.7732968611242
44.264180878383335	1808.5378126810967
44.70682268716717	1878.933781366216
45.15389091403884	1902.4342976622886
45.60542982317923	2130.6733154762223
46.06148412141103	2184.89666727518
46.52209896262513	1714.9480948284404
46.98731995225138	1590.8046541561266
47.4571931517739	1610.8541373276703
47.93176508329164	1479.3185903705446
48.411082734124555	1427.9253416124325
48.8951935614658	1274.7745490758002
49.38414549708046	1187.7899467939772
49.877986952051266	1125.7061157360486
50.37676682157178	1084.142439760557
50.88053448978749	1046.0263386526456
51.38933983468537	1009.2006861066511
51.903233233032225	973.6337424144774
52.422265565362544	939.277343850346
52.946488221016175	906.0930878541474
53.47595310322633	874.0511216903258
54.010712634258596	843.1034211251717
54.550819760601186	813.2191536951974
55.0963279582072	784.3625102148327
55.647291237789275	756.4984495046826
56.20376415016716	729.5981731658259
56.765801791668835	703.6238288385141
57.33345980958552	678.5500746212028
57.906794407681375	654.3458998225293
58.48586235175819	630.9790365809337
59.070720975275776	608.4269883291319
59.661428185028534	586.6558907650874
60.25804246687882	565.6465497381965
60.860622891547614	545.3678350795486
61.46922912046309	525.7978043837946
62.083921411667724	506.91361613348505
62.7047606257844	488.687972371202
63.331808232042235	471.1049655567838
63.965126314362664	454.13757800671806
64.60477757750628	437.7660797473815
65.25082535328136	421.97201153309743
65.90333360681416	406.73215988699906
66.56236694288232	392.03300597433264
67.22799061231113	377.85133906674315
67.90027051843424	364.17148788920343
68.57927322361859	350.9762511512045
69.26506595585477	338.247411659456
69.95771661541333	325.9722300634184
70.65729378156746	314.1318257417002
71.36386671938313	302.712584179727
72.07750538657696	291.70013420399954
72.79828044044274	281.0791098812526
73.52626324484716	270.83828499291184
74.26152587729563	260.96213593557667
75.00414113606858	251.4400106553322
75.75418254742928	242.2578975555743
76.51172437290357	233.40446321703396
77.27684161663261	224.86931557652656
78.04961003279894	216.63923623153312
78.83010613312693	208.7058939627113
79.6184071944582	201.05735125151529
80.41459126640278	193.68371835341173
81.2187371790668	186.57640816398484
82.03092455085748	179.7246585677122
82.85123379636605	173.12087166316397
83.6797461343297	166.75495923830766
84.51654359567301	160.6192072391987
85.36170903162974	154.70579098508023
86.21532612194603	149.00584477490574
87.0774793831655	143.51329629420866
87.94825417699715	138.21942072844533
88.82773671876713	133.11799180339557
89.71601408595481	128.2018022662911
90.61317422681435	123.46407378703162
91.5193059690825	118.89936562898096
92.43449902877332	114.50024089663934
93.35884401906105	110.26190324028691
