#wavelength	surface flux
0.7	43602247.666647635
0.7001166666666666	43577644.19531128
0.7002333527777778	44003718.7505305
0.700350058336574	44429864.3181754
0.7004667833462966	44856080.91008101
0.7005835278101878	45282368.538086444
0.7007002917314895	45708727.2140292
0.7008170751134447	46135156.94975121
0.7009338779592968	46561657.75709565
0.7010507002722901	46913259.551939934
0.7011675420556689	47173686.32451929
0.701284403312678	47434156.50156032
0.7014012840465635	47694670.09029789
0.7015181842605713	47955227.09796688
0.701635103957948	48215827.53180362
0.701752043141941	48476471.39904596
0.701869001815798	48737158.70693321
0.7019859799827672	48949762.89304798
0.7021029776460976	49128909.130610906
0.7022199948090387	49308085.22588032
0.7023370314748403	49487291.1838322
0.7024540876467528	49666527.00944371
0.702571163328027	49845792.70769253
0.7026882585219152	50025088.28355819
0.7028053732316688	50204413.74201958
0.7029225074605406	50221473.867255025
0.7030396612117841	50175867.208043955
0.7031568344886527	50130252.94772301
0.7032740272944008	50084631.08502537
0.7033912396322832	50039001.61868393
0.7035084715055552	49993364.54743148
0.7036257229174727	49947719.87000046
0.7037429938712924	49902067.58512317
0.7038602843702709	50127294.9254017
0.7039775944176659	50398504.26074276
0.7040949240167356	50669758.797639824
0.7042122731707383	50941058.54362623
0.7043296418829335	51212403.50623711
0.7044470301565806	51483793.69300839
0.70456443799494	51755229.11147725
0.7046818654012724	52026709.76918269
0.7047993123788394	49135585.02515361
0.7049167789309024	46240349.145037174
0.7050342650607243	43344630.725602925
0.7051517707715678	40448429.686433464
0.7052692960666963	37551745.947092235
0.705386840949374	34654579.42712901
0.7055044054228656	31756930.0460744
0.7056219894904361	29268261.21506355
0.7057395931553511	29381274.50571299
0.705857216420877	29494306.631910954
0.7059748592902804	29607357.596796557
0.7060925217668288	29720427.40350976
0.70621020385379	29833516.05519072
0.7063279055544321	29946623.55498016
0.7064456268720246	30059749.90601973
0.7065633678098366	30179625.677934587
0.7066811283711383	30318057.532661904
0.7067989085592001	30456512.459365014
0.7069167083772933	30594990.461889148
0.7070345278286895	30733491.544080466
0.707152366916661	30872015.709785506
0.7072702256444803	31010562.962851334
0.7073881040154211	31149133.307126198
0.7075060020327569	31276736.620738246
0.7076239196997625	31388355.760938253
0.7077418570197124	31499993.504328188
0.7078598139958823	31611649.854008675
0.7079777906315483	31723324.81308089
0.7080957869299869	31835018.384646192
0.7082138028944751	31946730.5718067
0.7083318385282908	32058461.377665147
0.7084498938347124	32008181.412302937
0.708567968817018	31820521.23677322
0.7086860634784875	31632829.78454736
0.7088041778224007	31445107.050412644
0.7089223118520377	31257353.02915582
0.7090404655706796	31069567.715562228
0.709158638981608	30881751.10441615
0.709276832088105	30693903.19050152
0.7093950448934531	30633764.842892665
0.7095132774009353	30634537.473246623
0.7096315296138355	30635310.232372306
0.7097498015354378	30636083.120291173
0.7098680931690269	30636856.137024697
0.7099864045178884	30637629.282594346
0.7101047355853081	30638402.557021584
0.7102230863745722	30639175.960327897
0.7103414568889679	30713241.89755881
0.7104598471317828	30803973.940303937
0.7105782571063047	30894721.10505612
0.7106966868158224	30985483.394335754
0.710815136263625	31076260.810663585
0.7109336054530023	31167053.35656086
0.7110520943872445	31257861.034549087
0.7111706030696424	31348683.847150367
0.7112891315034873	31487988.501275696
0.7114076796920712	31629628.85889223
0.7115262476386865	31771292.823235035
0.7116448353466263	31912980.398238465
0.711763442819184	32054691.587837808
0.711882070059654	32196426.395968873
0.7120007170713306	32338184.82656787
0.7121193838575091	32461641.044629328
0.7122380704214853	32393984.02949147
0.7123567767665555	32326315.73818449
0.7124755028960166	32258636.168828927
0.7125942488131658	32190945.31954519
0.7127130145213015	32123243.188453052
0.7128318000237216	32055529.77367261
0.7129506053237256	31987805.07332294
0.7130694304246129	31924834.367870443
0.7131882753296837	31878514.273105554
0.7133071400422386	31832186.458324857
0.7134260245655789	31785850.922241732
0.7135449289030065	31739507.66356924
0.7136638530578235	31693156.68102033
0.7137827970333332	31646797.9733076
0.7139017608328388	31600431.53914359
0.7140207444596443	31617280.639712892
0.7141397479170543	31746916.57391299
0.7142587712083737	31876574.114101943
0.7143778143369084	32006253.263881028
0.7144968773059646	32135954.026851773
0.7146159601188489	32265676.406616304
0.7147350627788687	32395420.40677747
0.7148541852893318	32525186.030938614
0.7149733276535467	32651116.668670084
0.7150924898748222	32773179.371449612
0.715211671956468	32895262.41801296
0.7153308739017941	33017365.811750837
0.715450095714111	33139489.55605427
0.71556933739673	33261633.65431511
0.7156885989529628	33383798.109925643
0.7158078803861218	33505982.92627896
0.7159271816995193	33591848.38353601
0.7160465028964692	33656399.00134489
0.7161658439802853	33720960.37759006
0.7162852049542819	33785532.5140646
0.7164045858217744	33850115.41256192
0.716523986586078	33914709.07487564
0.7166434072505089	33979313.5027997
0.716762847818384	34043928.69812844
0.7168823082930204	34148580.77961473
0.7170017886777359	34265025.816388756
0.7171212889758488	34381490.26066883
0.7172408091906781	34497974.11568965
0.7173603493255433	34614477.38468635
0.7174799093837642	34731000.07089448
0.7175994893686615	34847542.17755036
0.7177190892835562	34964103.70789063
0.7178387091317702	35145002.23430742
0.7179583489166254	35332387.292811975
0.7180780086414448	35519803.58215976
0.7181976883095517	35707251.107555754
0.7183173879242699	35894729.87420601
0.718437107488924	36082239.887317404
0.7185568470068389	36269781.15209773
0.7186766064813399	36457238.159650154
0.7187963859157535	36641838.302837744
0.7189161853134061	36826469.21271584
0.719036004677625	37011130.89441228
0.7191558440117378	37195823.35305555
0.7192757033190732	37380546.593775526
0.7193955826029597	37565300.62170206
0.7195154818667269	37750085.44196674
0.7196354011137046	37904733.085784495
0.7197553403472235	37920507.75974751
0.7198752995706147	37936285.06282285
0.7199952787872098	37952064.99544871
0.720115278000341	37967847.558063336
0.7202352972133411	37983632.75110507
0.7203553364295432	37999420.57501229
0.7204753956522815	38015211.03022352
0.7205954748848902	38044681.023076884
0.7207155741307044	38104308.39342119
0.7208356933930594	38163945.70166044
0.7209558326752915	38223592.949451074
0.7210759919807375	38283250.13844976
0.7211961713127342	38342917.2703132
0.7213163706746197	38402594.34669872
0.7214365900697322	38462281.36926356
0.7215568295014103	38609527.024723604
0.721677088972994	38861257.55111209
0.7217973684878227	39113030.03258789
0.7219176680492374	39364844.47614424
0.7220379876605789	39616700.88877436
0.722158327325189	39868599.27747334
0.7222786870464099	40120539.64923698
0.7223990668275843	40372522.01106268
0.7225194666720555	40543949.42771761
0.7226398865831676	40658284.34491407
0.7227603265642646	40772638.31792979
0.722880786618692	40887011.34994126
0.7230012667497951	41001403.444124654
0.7231217669609201	41115814.6036571
0.7232422872554135	41230244.831716016
0.7233628276366229	41344694.13147982
0.7234833881078956	41531267.96478648
0.7236039686725803	41745248.55370648
0.7237245693340255	41959264.80605763
0.7238451900955812	42173316.727784574
0.7239658309605971	42387404.32483155
0.7240864919324239	42601527.60314498
0.7242071730144127	42815686.56867149
0.724327874209915	43029881.22735845
0.7244485955222832	43331424.612879045
0.7245693369548704	43647454.727101326
0.7246900985110294	43963537.51300885
0.7248108801941148	44279672.979381524
0.7249316820074803	44595861.13499755
0.7250525039544815	44912101.98864001
0.7251733460384739	45228395.54909147
0.7252942082628137	45544664.02911072
0.7254150906308574	45815907.73935459
0.7255359931459625	46087196.65688352
0.7256569158114868	46358530.78923213
0.7257778586307888	46629910.14393626
0.7258988216072273	46901334.72853277
0.7260198047441617	47172804.55055974
0.7261408080449525	47444319.61755751
0.72626183151296	47695040.09696854
0.7263828751515454	47807309.66870066
0.7265039389640706	47919597.95202804
0.726625022953898	48031904.95006938
0.7267461271243904	48144230.66594379
0.7268672514789111	48256575.10277076
0.7269883960208241	48368938.263670444
0.7271095607534942	48481320.15176368
0.7272307456802866	48627188.76609854
0.7273519508045666	48863486.82714097
0.7274731761297006	49099824.271193475
0.7275944216590555	49336201.10481998
0.7277156873959987	49572617.33458551
0.7278369733438982	49809072.96705638
0.727958279506122	50045568.008798696
0.7280796058860397	50282102.46638159
0.7282009524870207	50570848.09604145
0.7283223193124353	50936809.677570775
0.7284437063656539	51302832.252696276
0.7285651136500483	51668915.83158489
0.7286865411689898	52035060.42440257
0.7288079889258514	52401266.041319944
0.7289294569240056	52767532.692505956
0.7290509451668262	53133860.388134256
0.7291724536576875	53559301.209919035
0.7292939823999636	54033743.936598845
0.7294155313970303	54508265.73706739
0.7295371006522632	54982866.62450255
0.7296586901690385	55457546.61208524
0.7297802999507332	55932305.712998986
0.7299019300007252	56407143.940430775
0.7300235803223919	56882061.30756587
0.7301452509191123	57338618.604876265
0.7302669417942654	57786741.01319314
0.7303886529512311	58234938.10857821
0.7305103843933897	58683209.90347929
0.7306321361241218	59131556.410345845
0.7307539081468093	59579977.64163101
0.7308757004648336	60028473.60978709
0.7309975130815778	60477044.327271745
0.7311193460004248	60952863.19319466
0.7312411992247582	61434913.07010279
0.7313630727579622	61917043.288656965
0.7314849666034219	62399253.86224805
0.7316068807645224	62881544.80426777
0.7317288152446498	63363916.128111385
0.7318507700471907	63846367.84717589
0.7319727451755319	64328899.97486006
0.732094740633061	64906317.70331331
0.7322167564231665	65488099.82722742
0.7323387925492371	66069978.91482888
0.7324608490146619	66651954.98227811
0.732582925822831	67234028.04573873
0.7327050229771347	67816198.1213759
0.7328271404809642	68398465.22535963
0.7329492783377112	68974065.89217232
0.7330714365507675	69483270.30959842
0.7331936151235259	69992559.5944273
0.7333158140593796	70501933.76080307
0.7334380333617229	71011392.82287401
0.7335602730339499	71520936.79478887
0.7336825330794556	72030565.69069915
0.7338048135016354	72540279.52475776
0.7339271143038857	72901932.69515505
0.734049435489603	72767256.74351342
0.7341717770621846	72632558.34587984
0.7342941390250283	72497837.49851337
0.7344165213815324	72363094.1976724
0.734538924135096	72228328.43961442
0.7346613472891185	72093540.22059694
0.734783790847	71958729.53687625
0.7349062548121412	71656480.06473419
0.7350287391879431	71058265.03472096
0.7351512439778078	70459950.30220148
0.7352737691851374	69861535.85056065
0.735396314813335	69263021.66317734
0.7355188808658037	68664407.72343047
0.7356414673459482	68065694.01469241
0.7357640742571725	67466880.52033664
0.7358867016028818	67386993.69195257
0.7360093493864824	67819678.99245313
0.7361320176113801	68252436.40716985
0.736254706280982	68685265.94812237
0.7363774153986956	69118167.62733229
0.7365001449679286	69551141.45682116
0.7366228949920899	69984187.44861531
0.7367456654745885	70417305.61474143
0.7368684564188344	70301287.13194028
0.7369912678282374	69874848.05329725
0.7371140997062088	69448337.90147428
0.7372369520561599	69021756.66462561
0.7373598248815024	68595104.33090508
0.7374827181856494	68168380.88846155
0.7376056319720137	67741586.32544425
0.7377285662440091	67314720.62999971
0.7378515210050496	67586108.10423674
0.7379744962585505	68067645.35173063
0.738097492007927	68549262.8554323
0.7382205082565949	69030960.62871763
0.738343545007971	69512738.68496507
0.7384666022654723	69994597.03755572
0.7385896800325165	70476535.69987106
0.7387127783125219	70958554.6852974
0.7388358971089073	70554629.06466241
0.7389590364250921	70061765.62217976
0.7390821962644963	69568820.03578965
0.7392053766305403	69075792.29180254
0.7393285775266454	68582682.3765244
0.7394517989562333	68089490.27625991
0.7395750409227259	67596215.97731285
0.7396983034295463	67203201.95764573
0.739821586480118	69042315.83854166
0.7399448900778645	70881736.2384141
0.7400682142262109	72721463.20835876
0.740191558928582	74561496.79946314
0.7403149241884034	76401837.06283124
0.7404383100091014	78242484.04957703
0.7405617163941028	80083437.81081945
0.7406851433468352	81428083.67811102
0.7408085908707264	80501060.7422865
0.7409320589692048	79573883.3026398
0.7410555476456997	78646551.33341907
0.7411790569036406	77719064.8088708
0.7413025867464579	76791423.70323487
0.7414261371775823	75863627.99074772
0.7415497082004452	74935677.64564255
0.7416732998184786	74417472.05101438
0.741796912035115	74778495.02392492
0.7419205448537874	75139578.16733085
0.7420441982779297	75500721.49126068
0.742167872310976	75861925.00574483
0.7422915669563612	76223188.72081472
0.7424152822175206	76584512.64650369
0.7425390180978901	76945896.79284672
0.7426627746009065	76766947.2519285
0.7427865517300065	75929189.0034369
0.7429103494886282	75091291.12856966
0.7430341678802096	74253253.60405727
0.7431580069081896	73415076.40662417
0.7432818665760077	72576759.51299031
0.7434057468871037	71738302.89987488
0.7435296478449182	70899706.54399109
0.7436535694528923	70235822.83366618
0.7437775117144678	69691520.31507386
0.7439014746330868	69147127.07939593
0.7440254582121922	68602643.11151159
0.7441494624552276	68058068.39629903
0.7442734873656368	67513402.91863407
0.7443975329468645	66968646.66338906
0.7445215992023557	66423799.61543489
0.7446456861355559	66150797.63735494
0.7447697937499119	65977924.11586342
0.7448939220488703	65805021.782118365
0.7450180710358784	65632090.63131783
0.7451422407143843	65459130.65865882
0.7452664310878367	65286141.85933752
0.7453906421596846	65113124.22854987
0.7455148739333779	64940077.76149036
0.7456391264123667	65566229.26566503
0.7457633996001021	66320277.076272584
0.7458876935000356	67074450.5615166
0.7460120081156189	67828749.74234003
0.7461363434503048	68583174.63969396
0.7462606995075466	69337725.27453147
0.7463850762907978	70092401.66780698
0.7465094738035127	70845403.61686464
0.7466338920491467	71127602.58290888
0.746758331031155	71409848.58211441
0.7468827907529935	71692141.62231947
0.7470072712181189	71974481.71136458
0.7471317724299886	72256868.85709126
0.7472562943920602	72539303.06734201
0.7473808371077922	72821784.3499614
0.7475054005806435	73135195.0992701
0.7476299848140736	73638881.4730915
0.7477545898115426	74142651.79464197
0.7478792155765113	74646506.07791282
0.7480038621124406	75150444.33689716
0.7481285294227926	75654466.58559121
0.7482532175110298	76158572.83799392
0.7483779263806148	76662763.10810465
0.7485026560350116	77099049.88171758
0.7486274064776842	77351403.67086263
0.748752177712097	77603799.51897208
0.7488769697417158	77856237.43305676
0.749001782570006	78108717.42012681
0.7491266162004343	78361239.48719463
0.7492514706364677	78613803.64127375
0.7493763458815739	78866409.88937879
0.7495012419392209	78924579.34674594
0.7496261588128773	78703171.91611466
0.7497510965060128	78481727.58424479
0.7498760550220971	78260246.34498636
0.7500010343646007	78038728.19218802
0.7501260345369949	77817173.11969744
0.750251055542751	77595581.12136169
0.7503760973853414	77373952.19102608
0.7505011600682389	77269047.34400252
0.750626243594917	77261617.79589908
0.7507513479688495	77254187.00953764
0.7508764731935109	77246754.9847118
0.7510016192723765	77239321.72121514
0.7511267862089218	77231887.21884125
0.7512519740066232	77224451.47738363
0.7513771826689577	77217014.49663576
0.7515024121994025	77521324.09653664
0.7516276626014359	77971038.76772447
0.751752933878536	78420828.3913567
0.7518782260341824	78870692.97992638
0.7520035390718548	79320632.54592767
0.7521288729950334	79770647.1018564
0.7522542278071992	80220736.66021115
0.7523796035118337	80670901.23349251
0.7525050001124189	81180356.45857562
0.7526304176124378	81702774.66684237
0.7527558560153731	82225279.94480985
0.752881315324709	82747872.30699082
0.7530067955439299	83270551.767899
0.7531322966765205	83793318.34204999
0.7532578187259665	84316172.04396348
0.7533833616957542	84839112.8881606
0.75350892558937	85168596.75471215
0.7536345104103016	85489034.53688484
0.7537601161620366	85809525.72535439
0.7538857428480638	86130070.32902232
0.7540113904718717	86450668.35679045
0.7541370590369503	86771319.81756315
0.7542627485467898	87092024.72024617
0.7543884590048808	87409692.79122204
0.7545141904147151	87696597.15937927
0.7546399427797842	87983549.34493074
0.7547657161035808	88270549.3558465
0.754891510389598	88557597.2000974
0.7550173256413296	88844692.88565579
0.7551431618622698	89131836.42049503
0.7552690190559135	89419027.81259003
0.7553948972257561	89641907.14493212
0.7555207963752938	89648791.58601011
0.755646716508023	89655677.17449494
0.755772657627441	89662563.91057785
0.7558986197370455	89669451.7944501
0.756024602840335	89676340.826303
0.7561506069408084	89683231.00632788
0.7562766320419653	89690122.3347161
0.7564026781473054	89476472.21904312
0.75652874526033	88874690.37100759
0.7566548333845401	88272808.22599708
0.7567809425234375	87670825.76729593
0.7569070726805247	87068742.97818536
0.7570332238593047	86466559.84194332
0.7571593960632813	85864276.3418447
0.7572855892959586	85261892.46116269
0.7574118035608413	84709181.36402088
0.7575380388614347	84205072.87555975
0.7576642952012449	83700880.36901702
0.7577905725837782	83196603.83039059
0.7579168710125422	82692243.24567348
0.7580431904910444	82187798.60085873
0.7581695310227928	81683269.88193715
0.7582958926112967	81178657.07489511
0.7584222752600652	78450208.81620625
0.7585486789726085	74443845.53349438
0.7586751037524372	70436814.52356721
0.7588015496030628	66429115.67513056
0.7589280165279966	62420748.87689377
0.7590545045307512	58411714.017523944
0.7591810136148396	54402010.985677645
0.7593075437837755	50391639.669986784
0.7594340950410726	49778392.18527312
0.7595606673902461	50150866.28083354
0.7596872608348112	50523402.45541026
0.7598138753782836	50896000.71934899
0.75994051102418	51268661.08299873
0.7600671677760173	51641383.55670879
0.7601938456373134	52014168.150831416
0.7603205446115863	52387014.875719525
0.7604472647023548	52387805.51431349
0.7605740059131385	52351607.77732682
0.7607007682474575	52315404.00738396
0.7608275517088319	52279194.20347952
0.7609543563007835	52242978.36460768
0.7610811820268336	52206756.489762716
0.7612080288905045	52170528.57793868
0.7613348968953197	52119413.15645618
0.7614617860448022	51762954.27597322
0.7615886963424764	51406435.98567637
0.7617156277918667	51049858.27566481
0.7618425803964988	50693221.13603462
0.7619695541598982	50336524.55688126
0.7620965490855914	49979768.528298296
0.7622235651771058	49622953.04037682
0.7623506024379685	49065036.279371955
0.7624776608717082	47625838.360529326
0.7626047404818536	46186400.57536683
0.7627318412719337	44746722.88390928
0.762858963245479	43306805.24616891
0.7629861064060198	41866647.62215546
0.7631132707570876	40426249.97186984
0.7632404563022137	38985612.25531047
0.7633676630449308	37472926.09686665
0.7634948909887717	35807131.71933844
0.7636221401372697	34141059.709416136
0.7637494104939593	32474710.02082394
0.7638767020623748	30808082.607286055
0.7640040148460518	29141177.422510676
0.7641313488485262	27473994.42020457
0.7642587040733344	25806533.55406285
0.7643860805240132	23895478.554671694
0.7645134782041005	21693755.852873847
0.7646408971171346	19491666.19729145
0.764768337266654	17289209.526767258
0.7648957986561985	15086385.780130604
0.7650232812893079	12883194.896203136
0.7651507851695227	10679636.813794991
0.7652783103003843	8475711.471706718
0.7654058566854343	7032732.061495818
0.7655334243282153	6108367.042707581
0.7656610132322699	5183847.963084084
0.765788623401142	4259174.796946447
