#wavelength	surface flux
0.7	28868804.93470891
0.7001166666666666	28940628.86609871
0.7002333527777778	29126842.420625858
0.700350058336574	29313087.01074534
0.7004667833462966	29499362.6416296
0.7005835278101878	29685669.31845285
0.7007002917314895	29872007.046388607
0.7008170751134447	30058375.830612328
0.7009338779592968	30244775.6763
0.7010507002722901	30372010.22360776
0.7011675420556689	30427227.93598895
0.701284403312678	30482454.851322114
0.7014012840465635	30537690.97114125
0.7015181842605713	30592936.296980344
0.701635103957948	30648190.830373704
0.701752043141941	30703454.572855953
0.701869001815798	30758727.52596203
0.7019859799827672	30766573.205429938
0.7021029776460976	30741407.06943752
0.7022199948090387	30716236.739089075
0.7023370314748403	30691062.21368558
0.7024540876467528	30665883.492527857
0.702571163328027	30640700.57491665
0.7026882585219152	30615513.46015244
0.7028053732316688	30590322.147535805
0.7029225074605406	30579346.986362405
0.7030396612117841	30573861.12529057
0.7031568344886527	30568374.349908557
0.7032740272944008	30562886.660063982
0.7033912396322832	30557398.05560443
0.7035084715055552	30551908.536377475
0.7036257229174727	30546418.102230646
0.7037429938712924	30540926.753011454
0.7038602843702709	30692253.49329583
0.7039775944176659	30870203.105481148
0.7040949240167356	31048182.375935234
0.7042122731707383	31226191.30960097
0.7043296418829335	31404229.91142242
0.7044470301565806	31582298.186344143
0.70456443799494	31760396.13931155
0.7046818654012724	31938523.775271222
0.7047993123788394	30908801.40146729
0.7049167789309024	29877521.311714206
0.7050342650607243	28846069.34194457
0.7051517707715678	27814445.463513795
0.7052692960666963	26782649.647770453
0.705386840949374	25750681.86605826
0.7055044054228656	24718542.0897141
0.7056219894904361	23842818.19913508
0.7057395931553511	23962047.847119786
0.705857216420877	24081297.36671258
0.7059748592902804	24200566.761225242
0.7060925217668288	24319856.033970445
0.70621020385379	24439165.188261084
0.7063279055544321	24558494.22741062
0.7064456268720246	24677843.15473353
0.7065633678098366	24791804.360520385
0.7066811283711383	24890891.894411657
0.7067989085592001	24989995.942891914
0.7069167083772933	25089116.508713517
0.7070345278286895	25188253.59462949
0.707152366916661	25287407.203393135
0.7072702256444803	25386577.337758128
0.7073881040154211	25485764.00047898
0.7075060020327569	25557852.117165368
0.7076239196997625	25590463.277392138
0.7077418570197124	25623079.872812245
0.7078598139958823	25655701.904331587
0.7079777906315483	25688329.372856215
0.7080957869299869	25720962.279292237
0.7082138028944751	25753600.624545984
0.7083318385282908	25786244.40952396
0.7084498938347124	25753808.4746135
0.708567968817018	25666186.604731377
0.7086860634784875	25578550.131204177
0.7088041778224007	25490899.051597983
0.7089223118520377	25403233.36347864
0.7090404655706796	25315553.064411324
0.709158638981608	25227858.151960727
0.709276832088105	25140148.623691376
0.7093950448934531	25134273.775082897
0.7095132774009353	25167432.7605008
0.7096315296138355	25200597.272416282
0.7097498015354378	25233767.311750412
0.7098680931690269	25266942.879424397
0.7099864045178884	25300123.976359703
0.7101047355853081	25333310.603477824
0.7102230863745722	25366502.761700444
0.7103414568889679	25376863.259753294
0.7104598471317828	25382036.336444404
0.7105782571063047	25387210.275314953
0.7106966868158224	25392385.076508652
0.710815136263625	25397560.740169212
0.7109336054530023	25402737.266440388
0.7110520943872445	25407914.65546594
0.7111706030696424	25413092.907389663
0.7112891315034873	25504543.931681804
0.7114076796920712	25600126.479065344
0.7115262476386865	25695724.956873443
0.7116448353466263	25791339.367761116
0.711763442819184	25886969.714383986
0.711882070059654	25982615.999398045
0.7120007170713306	26078278.225459546
0.7121193838575091	26167332.280072488
0.7122380704214853	26187313.35158412
0.7123567767665555	26207297.753274318
0.7124755028960166	26227285.48569814
0.7125942488131658	26247276.549410686
0.7127130145213015	26267270.944967236
0.7128318000237216	26287268.672922987
0.7129506053237256	26307269.73383342
0.7130694304246129	26311379.284712285
0.7131882753296837	26259915.548040673
0.7133071400422386	26208443.2340796
0.7134260245655789	26156962.341399573
0.7135449289030065	26105472.868570745
0.7136638530578235	26053974.814163145
0.7137827970333332	26002468.1767464
0.7139017608328388	25950952.9548901
0.7140207444596443	25946130.29700088
0.7141397479170543	26024617.05163403
0.7142587712083737	26103116.887392838
0.7143778143369084	26181629.806457672
0.7144968773059646	26260155.81100903
0.7146159601188489	26338694.90322779
0.7147350627788687	26417247.08529526
0.7148541852893318	26495812.35939304
0.7149733276535467	26592922.59155068
0.7150924898748222	26708736.12603951
0.715211671956468	26824568.962784108
0.7153308739017941	26940421.105001587
0.715450095714111	27056292.55590938
0.71556933739673	27172183.318725675
0.7156885989529628	27288093.396669094
0.7158078803861218	27404022.79295901
0.7159271816995193	27462167.99384113
0.7160465028964692	27486395.82739909
0.7161658439802853	27510627.698929306
0.7162852049542819	27534863.60910477
0.7164045858217744	27559103.558598615
0.716523986586078	27583347.54808403
0.7166434072505089	27607595.57823435
0.716762847818384	27631847.649723034
0.7168823082930204	27712551.1160103
0.7170017886777359	27809874.60384797
0.7171212889758488	27907214.31226688
0.7172408091906781	28004570.24397055
0.7173603493255433	28101942.401662875
0.7174799093837642	28199330.788048092
0.7175994893686615	28296735.40583108
0.7177190892835562	28394156.257716987
0.7178387091317702	28532841.236027207
0.7179583489166254	28675689.910137825
0.7180780086414448	28818562.392360903
0.7181976883095517	28961458.686664347
0.7183173879242699	29104378.797016855
0.718437107488924	29247322.72738779
0.7185568470068389	29390290.481747173
0.7186766064813399	29531978.953331456
0.7187963859157535	29641110.39949803
0.7189161853134061	29750260.03423896
0.719036004677625	29859427.860585693
0.7191558440117378	29968613.88157008
0.7192757033190732	30077818.10022478
0.7193955826029597	30187040.51958247
0.7195154818667269	30296281.142676804
0.7196354011137046	30384817.809605144
0.7197553403472235	30377960.690382466
0.7198752995706147	30371102.428306587
0.7199952787872098	30364243.023187026
0.720115278000341	30357382.474833276
0.7202352972133411	30350520.7830548
0.7203553364295432	30343657.94766104
0.7204753956522815	30336793.96846137
0.7205954748848902	30333818.598706692
0.7207155741307044	30339418.18561744
0.7208356933930594	30345018.705792658
0.7209558326752915	30350620.15938791
0.7210759919807375	30356222.546558768
0.7211961713127342	30361825.867460813
0.7213163706746197	30367430.122249685
0.7214365900697322	30373035.311081015
0.7215568295014103	30462982.647377577
0.721677088972994	30653578.250695664
0.7217973684878227	30844205.61994732
0.7219176680492374	31034864.760427415
0.7220379876605789	31225555.677430805
0.722158327325189	31416278.376253765
0.7222786870464099	31607032.8621931
0.7223990668275843	31797819.140546832
0.7225194666720555	31909542.216461997
0.7226398865831676	31965227.30614779
0.7227603265642646	32020921.67668173
0.722880786618692	32076625.32961088
0.7230012667497951	32132338.26648215
0.7231217669609201	32188060.4888429
0.7232422872554135	32243791.998240665
0.7233628276366229	32299532.796223424
0.7234833881078956	32340010.589566108
0.7236039686725803	32374696.82826758
0.7237245693340255	32409388.848008785
0.7238451900955812	32444086.64975334
0.7239658309605971	32478790.234464817
0.7240864919324239	32513499.60310712
0.7242071730144127	32548214.756644204
0.724327874209915	32582935.696040135
0.7244485955222832	32756622.797205474
0.7245693369548704	32953314.770212647
0.7246900985110294	33150039.52521503
0.7248108801941148	33346797.067677107
0.7249316820074803	33543587.403062265
0.7250525039544815	33740410.536836974
0.7251733460384739	33937266.47446735
0.7252942082628137	34133956.02118177
0.7254150906308574	34215255.42187856
0.7255359931459625	34296568.372475475
0.7256569158114868	34377894.87523085
0.7257778586307888	34459234.932403386
0.7258988216072273	34540588.5462521
0.7260198047441617	34621955.71903636
0.7261408080449525	34703336.45301623
0.72626183151296	34775719.846304834
0.7263828751515454	34788232.67537907
0.7265039389640706	34800747.58992482
0.726625022953898	34813264.59028967
0.7267461271243904	34825783.67682125
0.7268672514789111	34838304.84986724
0.7269883960208241	34850828.109775394
0.7271095607534942	34863353.45689355
0.7272307456802866	34874319.43964576
0.7273519508045666	34881069.39152306
0.7274731761297006	34887820.46839234
0.7275944216590555	34894572.6704411
0.7277156873959987	34901325.99785687
0.7278369733438982	34908080.45082722
0.727958279506122	34914836.02953971
0.7280796058860397	34921592.734182
0.7282009524870207	34952168.424877636
0.7283223193124353	35017978.47872075
0.7284437063656539	35083799.50090604
0.7285651136500483	35149631.4932618
0.7286865411689898	35215474.45761615
0.7288079889258514	35281328.39579806
0.7289294569240056	35347193.30963617
0.7290509451668262	35413069.20096
0.7291724536576875	35582068.16754641
0.7292939823999636	35836534.771901935
0.7294155313970303	36091043.787358694
0.7295371006522632	36345595.22098463
0.7296586901690385	36600189.0798493
0.7297802999507332	36854825.37102368
0.7299019300007252	37109504.101580575
0.7300235803223919	37364225.27859187
0.7301452509191123	37559534.41304889
0.7302669417942654	37727433.720012784
0.7303886529512311	37895361.010194555
0.7305103843933897	38063316.28825807
0.7306321361241218	38231299.55886779
0.7307539081468093	38399310.82668958
0.7308757004648336	38567350.09638898
0.7309975130815778	38735417.37263354
0.7311193460004248	38924189.56690478
0.7312411992247582	39117674.21094873
0.7313630727579622	39311191.1024333
0.7314849666034219	39504740.246733315
0.7316068807645224	39698321.64922393
0.7317288152446498	39891935.31528171
0.7318507700471907	40085581.25028394
0.7319727451755319	40279259.45960859
0.732094740633061	40524664.49053026
0.7322167564231665	40772437.72693853
0.7323387925492371	41020252.25888621
0.7324608490146619	41268108.09325582
0.732582925822831	41516005.23693121
0.7327050229771347	41763943.69679693
0.7328271404809642	42011923.479739554
0.7329492783377112	42247482.28529886
0.7330714365507675	42360562.68051127
0.7331936151235259	42473661.92245619
0.7333158140593796	42586780.014274634
0.7334380333617229	42699916.959108554
0.7335602730339499	42813072.7601
0.7336825330794556	42926247.420391634
0.7338048135016354	43039440.94312643
0.7339271143038857	43072749.290203825
0.734049435489603	42838329.85996356
0.7341717770621846	42603871.35981821
0.7342941390250283	42369373.7832563
0.7344165213815324	42134837.123765044
0.734538924135096	41900261.3748302
0.7346613472891185	41665646.529937506
0.734783790847	41430992.582570575
0.7349062548121412	41095908.94608903
0.7350287391879431	40583325.01194246
0.7351512439778078	40070655.64713916
0.7352737691851374	39557900.83744234
0.735396314813335	39045060.56861012
0.7355188808658037	38532134.8264006
0.7356414673459482	38019123.596566334
0.7357640742571725	37506026.86486079
0.7358867016028818	37316021.74783359
0.7360093493864824	37445151.52417801
0.7361320176113801	37574302.82215165
0.736254706280982	37703475.64534163
0.7363774153986956	37832669.99733563
0.7365001449679286	37961885.88172136
0.7366228949920899	38091123.30208794
0.7367456654745885	38220382.262024574
0.7368684564188344	38110462.14660255
0.7369912678282374	37865332.56259732
0.7371140997062088	37620162.12366131
0.7372369520561599	37374950.822985254
0.7373598248815024	37129698.65375963
0.7374827181856494	36884405.60917206
0.7376056319720137	36639071.682410374
0.7377285662440091	36393696.866660856
0.7378515210050496	36457989.26636576
0.7379744962585505	36615474.13036795
0.738097492007927	36772985.241847426
0.7382205082565949	36930522.60517872
0.738343545007971	37088086.22473721
0.7384666022654723	37245676.104899116
0.7385896800325165	37403292.250040814
0.7387127783125219	37560934.66454023
0.7388358971089073	37455923.8205995
0.7389590364250921	37324548.06578631
0.7390821962644963	37193150.41501389
0.7392053766305403	37061730.86463319
0.7393285775266454	36930289.41099401
0.7394517989562333	36798826.05044576
0.7395750409227259	36667340.77933763
0.7396983034295463	36570180.37603698
0.739821586480118	37237073.506562576
0.7399448900778645	37904077.78594194
0.7400682142262109	38571193.23270323
0.740191558928582	39238419.86537161
0.7403149241884034	39905757.70247823
0.7404383100091014	40573206.76255788
0.7405617163941028	41240767.064147115
0.7406851433468352	41706834.73260561
0.7408085908707264	41250690.75160244
0.7409320589692048	40794470.746602654
0.7410555476456997	40338174.704935
0.7411790569036406	39881802.6139274
0.7413025867464579	39425354.4609045
0.7414261371775823	38968830.233189315
0.7415497082004452	38512229.91810318
0.7416732998184786	38217580.22679117
0.741796912035115	38270460.65046526
0.7419205448537874	38323349.887543276
0.7420441982779297	38376247.93949414
0.742167872310976	38429154.80778704
0.7422915669563612	38482070.49389132
0.7424152822175206	38534994.99927661
0.7425390180978901	38587928.325412765
0.7426627746009065	38487390.39916079
0.7427865517300065	38199732.51519882
0.7429103494886282	37912026.688255884
0.7430341678802096	37624272.91034202
0.7431580069081896	37336471.17346519
0.7432818665760077	37048621.469631806
0.7434057468871037	36760723.790848024
0.7435296478449182	36472778.129117936
0.7436535694528923	36260240.607907236
0.7437775117144678	36099319.70023601
0.7439014746330868	35938371.97241374
0.7440254582121922	35777397.41997003
0.7441494624552276	35616396.038434185
0.7442734873656368	35455367.82333478
0.7443975329468645	35294312.770199396
0.7445215992023557	35133230.87455518
0.7446456861355559	35017276.76952976
0.7447697937499119	34917937.10836791
0.7448939220488703	34818580.89059589
0.7450180710358784	34719208.11345433
0.7451422407143843	34619818.774183236
0.7452664310878367	34520412.87002216
0.7453906421596846	34420990.39821051
0.7455148739333779	34321551.355986856
0.7456391264123667	34456200.548009045
0.7457633996001021	34628304.24575335
0.7458876935000356	34800436.62744759
0.7460120081156189	34972597.69787178
0.7461363434503048	35144787.461807795
0.7462606995075466	35317005.92403795
0.7463850762907978	35489253.08934489
0.7465094738035127	35660759.70245543
0.7466338920491467	35631060.748459294
0.746758331031155	35601356.84463746
0.7468827907529935	35571647.990165025
0.7470072712181189	35541934.18421684
0.7471317724299886	35512215.425967656
0.7472562943920602	35482491.71459212
0.7473808371077922	35452763.04926467
0.7475054005806435	35428509.327723384
0.7476299848140736	35438005.589968085
0.7477545898115426	35447503.43492316
0.7478792155765113	35457002.86285239
0.7480038621124406	35466503.8740196
0.7481285294227926	35476006.468688674
0.7482532175110298	35485510.64712354
0.7483779263806148	35495016.40958812
0.7485026560350116	35500908.45243437
0.7486274064776842	35497016.792644784
0.748752177712097	35493124.48424523
0.7488769697417158	35489231.527127616
0.749001782570006	35485337.92118382
0.7491266162004343	35481443.66630569
0.7492514706364677	35477548.762385085
0.7493763458815739	35473653.20931382
0.7495012419392209	35426512.3538759
0.7496261588128773	35317194.29933747
0.7497510965060128	35207858.025123216
0.7498760550220971	35098503.52819663
0.7500010343646007	34989130.80552054
0.7501260345369949	34879739.85405729
0.750251055542751	34770330.67076891
0.7503760973853414	34660903.252616584
0.7505011600682389	34543697.82714828
0.750626243594917	34419993.637417614
0.7507513479688495	34296268.830322176
0.7508764731935109	34172523.40242552
0.7510016192723765	34048757.35029084
0.7511267862089218	33924970.67048093
0.7512519740066232	33801163.359557666
0.7513771826689577	33677335.41408251
0.7515024121994025	33604111.57520964
0.7516276626014359	33554479.6332477
0.751752933878536	33504839.419295527
0.7518782260341824	33455190.93197434
0.7520035390718548	33405534.169905245
0.7521288729950334	33355869.131709162
0.7522542278071992	33306195.816006713
0.7523796035118337	33256514.221418284
0.7525050001124189	33201674.659038715
0.7526304176124378	33145706.014864936
0.7527558560153731	33089728.04258387
0.752881315324709	33033740.7406407
0.7530067955439299	32977744.107480522
0.7531322966765205	32921738.141548224
0.7532578187259665	32865722.841288254
0.7533833616957542	32809698.20514491
0.75350892558937	32637380.49979328
0.7536345104103016	32459566.081413597
0.7537601161620366	32281722.02729761
0.7538857428480638	32103848.332505763
0.7540113904718717	31925944.99209835
0.7541370590369503	31748012.00113424
0.7542627485467898	31570049.354671523
0.7543884590048808	31388540.373423263
0.7545141904147151	31171932.465631116
0.7546399427797842	30955288.456521347
0.7547657161035808	30738608.340076696
0.754891510389598	30521892.110279318
0.7550173256413296	30305139.761110216
0.7551431618622698	30088351.28654964
0.7552690190559135	29871526.680576682
0.7553948972257561	29633891.236228418
0.7555207963752938	29326483.336215843
0.755646716508023	29019024.201553438
0.755772657627441	28711513.823701818
0.7558986197370455	28403952.194120508
0.756024602840335	28096339.304267682
0.7561506069408084	27788675.145599883
0.7562766320419653	27480959.70957203
0.7564026781473054	27151076.133338194
0.75652874526033	26782217.813538216
0.7566548333845401	26413298.01735141
0.7567809425234375	26044316.734532043
0.7569070726805247	25675273.954832412
0.7570332238593047	25306169.66800288
0.7571593960632813	24937003.86379186
0.7572855892959586	24567776.531946786
0.7574118035608413	24186602.538150903
0.7575380388614347	23793737.410610504
0.7576642952012449	23400806.805548698
0.7577905725837782	23007810.71205328
0.7579168710125422	22614749.119208246
0.7580431904910444	22221622.016097594
0.7581695310227928	21828429.391803585
0.7582958926112967	21435171.23540503
0.7584222752600652	20925129.582705926
0.7585486789726085	20347952.913353592
0.7586751037524372	19770680.047889482
0.7588015496030628	19193310.97028
0.7589280165279966	18615845.664492056
0.7590545045307512	18038284.114486486
0.7591810136148396	17460626.30422259
0.7593075437837755	16882872.217656136
0.7594340950410726	16451279.40403947
0.7595606673902461	16062049.32688131
0.7596872608348112	15672754.378043232
0.7598138753782836	15283394.546714112
0.75994051102418	14893969.822079405
0.7600671677760173	14504480.193324229
0.7601938456373134	14114925.649630629
0.7603205446115863	13725306.180179967
0.7604472647023548	13268639.163153661
0.7605740059131385	12805237.971425897
0.7607007682474575	12341759.546165725
0.7608275517088319	11878203.874502372
0.7609543563007835	11414570.943559382
0.7610811820268336	10950860.740461512
0.7612080288905045	10487073.252330683
0.7613348968953197	10022947.661372334
0.7614617860448022	9553393.57523259
0.7615886963424764	9083761.23007785
0.7617156277918667	8614050.612866037
0.7618425803964988	8144261.710550969
0.7619695541598982	7674394.5100856405
0.7620965490855914	7204448.998420581
0.7622235651771058	6734425.162503033
0.7623506024379685	6281910.854745069
0.7624776608717082	5906410.662139041
0.7626047404818536	5530847.8861675635
0.7627318412719337	5155222.516400735
0.762858963245479	4779534.542405376
0.7629861064060198	4403783.953747651
0.7631132707570876	4027970.739991426
0.7632404563022137	3652094.890699912
0.7633676630449308	3317759.4809358614
0.7634948909887717	3071927.5046047126
0.7636221401372697	2826054.5562778283
0.7637494104939593	2580140.6291259914
0.7638767020623748	2334185.716319984
0.7640040148460518	2088189.8110282286
0.7641313488485262	1842152.906418934
0.7642587040733344	1596074.9956585916
0.7643860805240132	1402027.5864501416
0.7645134782041005	1270084.7623630415
0.7646408971171346	1138119.9478052051
0.764768337266654	1006133.1391116576
0.7648957986561985	874124.3326166185
0.7650232812893079	742093.5246538477
0.7651507851695227	610040.7115564152
0.7652783103003843	477965.889656816
