#wavelength	surface flux
0.7	118855.42767292111
0.7001166666666666	119053.68013353922
0.7002333527777778	119174.2715221143
0.700350058336574	119294.88300925409
0.7004667833462966	119415.51459830825
0.7005835278101878	119536.16629262757
0.7007002917314895	119656.83809556242
0.7008170751134447	119777.53001046441
0.7009338779592968	119898.2420406855
0.7010507002722901	120016.72727372017
0.7011675420556689	120132.4979070757
0.701284403312678	120248.28783553658
0.7014012840465635	120364.09706231905
0.7015181842605713	120479.9255906393
0.701635103957948	120595.77342371418
0.701752043141941	120711.64056476121
0.701869001815798	120827.5270169986
0.7019859799827672	121005.31839201471
0.7021029776460976	121226.20829771389
0.7022199948090387	121447.13501839765
0.7023370314748403	121668.09856020141
0.7024540876467528	121889.09892926211
0.702571163328027	122110.1361317173
0.7026882585219152	122331.2101737068
0.7028053732316688	122552.32106136966
0.7029225074605406	122817.14268778385
0.7030396612117841	123098.87294181803
0.7031568344886527	123380.6501508946
0.7032740272944008	123662.47432283916
0.7033912396322832	123944.34546547919
0.7035084715055552	124226.26358664272
0.7036257229174727	124508.22869415989
0.7037429938712924	124790.2407958619
0.7038602843702709	124905.87289224999
0.7039775944176659	124993.29702232532
0.7040949240167356	125080.73572308903
0.7042122731707383	125168.18899696949
0.7043296418829335	125255.65684639565
0.7044470301565806	125343.1392737967
0.70456443799494	125430.63628160223
0.7046818654012724	125518.14787224247
0.7047993123788394	125731.59607823101
0.7049167789309024	125945.22436003774
0.7050342650607243	126158.88824655842
0.7051517707715678	126372.58774372676
0.7052692960666963	126586.32285747785
0.705386840949374	126800.09359374782
0.7055044054228656	127013.89995847417
0.7056219894904361	127207.5677732984
0.7057395931553511	127273.0630725289
0.705857216420877	127338.56928764265
0.7059748592902804	127404.08642045887
0.7060925217668288	127469.6144727973
0.70621020385379	127535.15344647778
0.7063279055544321	127600.70334332045
0.7064456268720246	127666.26416514603
0.7065633678098366	127747.6354509801
0.7066811283711383	127872.53251388119
0.7067989085592001	127997.45039295942
0.7069167083772933	128122.38909168409
0.7070345278286895	128247.34861352529
0.707152366916661	128372.32896195348
0.7072702256444803	128497.3301404396
0.7073881040154211	128622.35215245566
0.7075060020327569	128762.27185319939
0.7076239196997625	128923.8807377005
0.7077418570197124	129085.51655701554
0.7078598139958823	129247.17931563378
0.7079777906315483	129408.86901804528
0.7080957869299869	129570.5856687404
0.7082138028944751	129732.32927221054
0.7083318385282908	129894.09983294805
0.7084498938347124	129947.03357667469
0.708567968817018	129907.67920662061
0.7086860634784875	129868.3182775048
0.7088041778224007	129828.95078823411
0.7089223118520377	129789.57673771527
0.7090404655706796	129750.19612485469
0.709158638981608	129710.8089485586
0.709276832088105	129671.41520773311
0.7093950448934531	129730.89526754411
0.7095132774009353	129837.54235409114
0.7096315296138355	129944.20721515264
0.7097498015354378	130050.88985369095
0.7098680931690269	130157.59027266891
0.7099864045178884	130264.30847505017
0.7101047355853081	130371.04446379848
0.7102230863745722	130477.79824187818
0.7103414568889679	130575.16286084341
0.7104598471317828	130670.40622625689
0.7105782571063047	130765.66546556453
0.7106966868158224	130860.94058141205
0.710815136263625	130956.23157644553
0.7109336054530023	131051.53845331157
0.7110520943872445	131146.86121465705
0.7111706030696424	131242.1998631295
0.7112891315034873	131217.35327636692
0.7114076796920712	131186.76740665743
0.7115262476386865	131156.17643930297
0.7116448353466263	131125.580373454
0.711763442819184	131094.9792082607
0.711882070059654	131064.37294287317
0.7120007170713306	131033.76157644144
0.7121193838575091	131002.86535808057
0.7122380704214853	130969.04626909622
0.7123567767665555	130935.22154359707
0.7124755028960166	130901.39118064365
0.7125942488131658	130867.55517929644
0.7127130145213015	130833.71353861557
0.7128318000237216	130799.86625766136
0.7129506053237256	130766.01333549361
0.7130694304246129	130729.20291605426
0.7131882753296837	130682.06563616994
0.7133071400422386	130634.9205000723
0.7134260245655789	130587.76750645202
0.7135449289030065	130540.60665399944
0.7136638530578235	130493.43794140482
0.7137827970333332	130446.26136735802
0.7139017608328388	130399.0769305489
0.7140207444596443	130341.29413125354
0.7141397479170543	130264.6093034112
0.7142587712083737	130187.91169476433
0.7143778143369084	130111.20130318264
0.7144968773059646	130034.47812653564
0.7146159601188489	129957.74216269258
0.7147350627788687	129880.9934095222
0.7148541852893318	129804.231864893
0.7149733276535467	129668.0673655642
0.7150924898748222	129471.99246113724
0.715211671956468	129275.88487755951
0.7153308739017941	129079.74460938435
0.715450095714111	128883.57165116459
0.71556933739673	128687.36599745176
0.7156885989529628	128491.12764279668
0.7158078803861218	128294.85658174887
0.7159271816995193	127933.0903554416
0.7160465028964692	127474.14769755516
0.7161658439802853	127015.12854922577
0.7162852049542819	126556.03289770508
0.7164045858217744	126096.86073024219
0.716523986586078	125637.61203408492
0.7166434072505089	125178.28679647851
0.716762847818384	124718.88500466567
0.7168823082930204	124366.55472753533
0.7170017886777359	124045.68823833384
0.7171212889758488	123724.76827138434
0.7172408091906781	123403.79481777358
0.7173603493255433	123082.76786858714
0.7174799093837642	122761.68741490933
0.7175994893686615	122440.55344782246
0.7177190892835562	122119.36595840787
0.7178387091317702	122137.0676737217
0.7179583489166254	122188.79638471696
0.7180780086414448	122240.53371716409
0.7181976883095517	122292.27967249995
0.7183173879242699	122344.03425216171
0.718437107488924	122395.79745758677
0.7185568470068389	122447.56929021275
0.7186766064813399	122491.18783587436
0.7187963859157535	122330.74777387246
0.7189161853134061	122170.28097186022
0.719036004677625	122009.78742538096
0.7191558440117378	121849.2671299774
0.7192757033190732	121688.72008119103
0.7193955826029597	121528.14627456339
0.7195154818667269	121367.54570563452
0.7196354011137046	121206.32931178673
0.7197553403472235	121042.37391948792
0.7198752995706147	120878.39120129045
0.7199952787872098	120714.38115263983
0.720115278000341	120550.34376898113
0.7202352972133411	120386.27904575845
0.7203553364295432	120222.18697841548
0.7204753956522815	120058.0675623944
0.7205954748848902	119962.0289269503
0.7207155741307044	120016.12726500999
0.7208356933930594	120070.23461945927
0.7209558326752915	120124.35099180098
0.7210759919807375	120178.47638353815
0.7211961713127342	120232.61079617386
0.7213163706746197	120286.75423121177
0.7214365900697322	120340.90669015546
0.7215568295014103	120255.7570102896
0.721677088972994	120004.3714511246
0.7217973684878227	119752.94399436684
0.7219176680492374	119501.47463303265
0.7220379876605789	119249.96336013838
0.722158327325189	118998.41016869855
0.7222786870464099	118746.81505172694
0.7223990668275843	118495.17800223571
0.7225194666720555	118137.77933559193
0.7226398865831676	117705.39492027588
0.7227603265642646	117272.93844089167
0.722880786618692	116840.40988542662
0.7230012667497951	116407.8092418693
0.7231217669609201	115975.13649820465
0.7232422872554135	115542.39164241645
0.7233628276366229	115109.57466248485
0.7234833881078956	114882.69354523142
0.7236039686725803	114733.9879014008
0.7237245693340255	114585.25747329646
0.7238451900955812	114436.50225678716
0.7239658309605971	114287.72224774194
0.7240864919324239	114138.91744202835
0.7242071730144127	113990.0878355138
0.724327874209915	113841.23342406515
0.7244485955222832	113297.64412772459
0.7245693369548704	112688.70225683575
0.7246900985110294	112079.65889563599
0.7248108801941148	111470.51402720774
0.7249316820074803	110861.2676346368
0.7250525039544815	110251.91970099942
0.7251733460384739	109642.47020937302
0.7252942082628137	109033.58809429655
0.7254150906308574	108812.2161652742
0.7255359931459625	108590.80734093035
0.7256569158114868	108369.36161511569
0.7257778586307888	108147.87898167995
0.7258988216072273	107926.35943447205
0.7260198047441617	107704.80296733984
0.7261408080449525	107483.2095741294
0.72626183151296	107259.63175468179
0.7263828751515454	107023.07445721388
0.7265039389640706	106786.47773352978
0.726625022953898	106549.84157705827
0.7267461271243904	106313.16598122723
0.7268672514789111	106076.45093946368
0.7269883960208241	105839.6964451934
0.7271095607534942	105602.90249184058
0.7272307456802866	105349.44615528753
0.7273519508045666	105051.04506340859
0.7274731761297006	104752.59423801446
0.7275944216590555	104454.0936708161
0.7277156873959987	104155.54335352311
0.7278369733438982	103856.94327784343
0.727958279506122	103558.29343548526
0.7280796058860397	103259.59381815301
0.7282009524870207	102854.95380404283
0.7283223193124353	102293.62234058572
0.7284437063656539	101732.19732188585
0.7285651136500483	101170.67873234862
0.7286865411689898	100609.06655638095
0.7288079889258514	100047.36077838259
0.7289294569240056	99485.56138275587
0.7290509451668262	98923.66835389589
0.7291724536576875	98412.74651687675
0.7292939823999636	97944.05224373621
0.7294155313970303	97475.27985488252
0.7295371006522632	97006.42933729751
0.7296586901690385	96537.50067795992
0.7297802999507332	96068.49386384599
0.7299019300007252	95599.40888192848
0.7300235803223919	95130.24571918193
0.7301452509191123	94774.49327817396
0.7302669417942654	94471.06456136669
0.7303886529512311	94167.58527310651
0.7305103843933897	93864.05540496489
0.7306321361241218	93560.47494851214
0.7307539081468093	93256.84389531612
0.7308757004648336	92953.16223694521
0.7309975130815778	92649.4299649642
0.7311193460004248	92373.64114215245
0.7312411992247582	92104.14385488714
0.7313630727579622	91834.60165140734
0.7314849666034219	91565.0145242267
0.7316068807645224	91295.38246585835
0.7317288152446498	91025.70546881348
0.7318507700471907	90755.98352560229
0.7319727451755319	90486.21662873402
0.732094740633061	90040.59446722799
0.7322167564231665	89586.98299981892
0.7323387925492371	89133.29593049861
0.7324608490146619	88679.53324666688
0.732582925822831	88225.69493572105
0.7327050229771347	87771.78098505727
0.7328271404809642	87317.7913820679
0.7329492783377112	86864.21992339873
0.7330714365507675	86415.4275370607
0.7331936151235259	85966.56035199173
0.7333158140593796	85517.61835572575
0.7334380333617229	85068.60153579304
0.7335602730339499	84619.50987972348
0.7336825330794556	84170.34337504447
0.7338048135016354	83721.10200928221
0.7339271143038857	83300.28738176303
0.734049435489603	82974.90256169386
0.7341717770621846	82649.46351082128
0.7342941390250283	82323.97022010706
0.7344165213815324	81998.42268051117
0.734538924135096	81672.82088299154
0.7346613472891185	81347.16481850609
0.734783790847	81021.45447800976
0.7349062548121412	80619.26783111854
0.7350287391879431	80081.93510927403
0.7351512439778078	79544.51283197477
0.7352737691851374	79007.00098429661
0.735396314813335	78469.39955131004
0.7355188808658037	77931.70851808552
0.7356414673459482	77393.9278696877
0.7357640742571725	76856.05759118218
0.7358867016028818	76351.69498885238
0.7360093493864824	75880.42871061174
0.7361320176113801	75409.08388799203
0.736254706280982	74937.66050790188
0.7363774153986956	74466.15855724776
0.7365001449679286	73994.57802293617
0.7366228949920899	73522.91889186848
0.7367456654745885	73051.18115094562
0.7368684564188344	72587.61601738188
0.7369912678282374	72128.63704444768
0.7371140997062088	71669.5815750178
0.7372369520561599	71210.44959634259
0.7373598248815024	70751.24109567195
0.7374827181856494	70291.95606025044
0.7376056319720137	69832.59447732299
0.7377285662440091	69373.15633413164
0.7378515210050496	68834.98734706294
0.7379744962585505	68273.06398784158
0.738097492007927	67711.04697472717
0.7382205082565949	67148.93629211091
0.738343545007971	66586.731924381
0.7384666022654723	66024.43385592257
0.7385896800325165	65462.042071120246
0.7387127783125219	64899.55655435308
0.7388358971089073	64560.96923370998
0.7389590364250921	64244.79242976356
0.7390821962644963	63928.56292968292
0.7392053766305403	63612.28072468606
0.7393285775266454	63295.945805988136
0.7394517989562333	62979.55816480346
0.7395750409227259	62663.11779234576
0.7396983034295463	62341.32325338049
0.739821586480118	61901.54090534745
0.7399448900778645	61461.685260257276
0.7400682142262109	61021.756305891584
0.740191558928582	60581.75403003396
0.7403149241884034	60141.67842046404
0.7404383100091014	59701.52946495909
0.7405617163941028	59261.307151295165
0.7406851433468352	58809.51131900891
0.7408085908707264	58305.02977491733
0.7409320589692048	57800.46415056865
0.7410555476456997	57295.81443194884
0.7411790569036406	56791.08060504296
0.7413025867464579	56286.26265583245
0.7414261371775823	55781.36057029693
0.7415497082004452	55276.37433441421
0.7416732998184786	54774.56157915645
0.741796912035115	54279.65347834242
0.7419205448537874	53784.66289284504
0.7420441982779297	53289.58980891675
0.742167872310976	52794.434212807355
0.7422915669563612	52299.19609076529
0.7424152822175206	51803.87542903634
0.7425390180978901	51308.47221386409
0.7426627746009065	50856.40206688762
0.7427865517300065	50457.18334335593
0.7429103494886282	50057.8980833699
0.7430341678802096	49658.546275840854
0.7431580069081896	49259.127909677234
0.7432818665760077	48859.64297378536
0.7434057468871037	48460.091457071176
0.7435296478449182	48060.473348437765
0.7436535694528923	47637.23856690337
0.7437775117144678	47197.81250105025
0.7439014746330868	46758.31319752014
0.7440254582121922	46318.74064410573
0.7441494624552276	45879.094828598914
0.7442734873656368	45439.375738789604
0.7443975329468645	44999.583362464975
0.7445215992023557	44559.71768741101
0.7446456861355559	44128.58960253932
0.7447697937499119	43700.635365014474
0.7448939220488703	43272.609801783474
0.7450180710358784	42844.51290095898
0.7451422407143843	42416.344650650964
0.7452664310878367	41988.10503896749
0.7453906421596846	41559.794054015874
0.7455148739333779	41131.41168389995
0.7456391264123667	40719.72421254041
0.7457633996001021	40310.64896459196
0.7458876935000356	39901.50553743479
0.7460120081156189	39492.29391970721
0.7461363434503048	39083.01410004315
0.7462606995075466	38673.666067075435
0.7463850762907978	38264.24980943618
0.7465094738035127	37854.83774150574
0.7466338920491467	37464.30361192801
0.746758331031155	37073.70439332829
0.7468827907529935	36683.040074859266
0.7470072712181189	36292.31064567049
0.7471317724299886	35901.516094910105
0.7472562943920602	35510.65641172487
0.7473808371077922	35119.731585258756
0.7475054005806435	34729.253809654656
0.7476299848140736	34341.86593634494
0.7477545898115426	33954.41349838958
0.7478792155765113	33566.896485027806
0.7480038621124406	33179.314885497435
0.7481285294227926	32791.668689033904
0.7482532175110298	32403.957884870553
0.7483779263806148	32016.182462240387
0.7485026560350116	31634.238657967064
0.7486274064776842	31268.189169689605
0.748752177712097	30902.078673164764
0.7488769697417158	30535.907158223054
0.749001782570006	30169.674614695963
0.7491266162004343	29803.381032411726
0.7492514706364677	29437.02640119694
0.7493763458815739	29070.610710876586
0.7495012419392209	28708.61817321884
0.7496261588128773	28353.011906899672
0.7497510965060128	27997.346372869204
0.7498760550220971	27641.62156124986
0.7500010343646007	27285.837462161857
0.7501260345369949	26929.99406572383
0.750251055542751	26574.091362053467
0.7503760973853414	26218.12934126561
0.7505011600682389	25873.580784467133
0.750626243594917	25538.55432105005
0.7507513479688495	25203.472019889574
0.7508764731935109	24868.333871678788
0.7510016192723765	24533.139867109883
0.7511267862089218	24197.88999687386
0.7512519740066232	23862.584251659344
0.7513771826689577	23527.22262215377
0.7515024121994025	23212.15946663837
0.7516276626014359	22906.534150622254
0.751752933878536	22600.857897053997
0.7518782260341824	22295.13069744338
0.7520035390718548	21989.352543299356
0.7521288729950334	21683.5234261298
0.7522542278071992	21377.64333744069
0.7523796035118337	21071.712268736654
0.7525050001124189	20774.326043390593
0.7526304176124378	20478.759654863992
0.7527558560153731	20183.144005273014
0.752881315324709	19887.479086406816
0.7530067955439299	19591.764890054037
0.7531322966765205	19296.00140800226
0.7532578187259665	19000.188632036716
0.7533833616957542	18704.326553941853
0.75350892558937	18422.569966052077
0.7536345104103016	18141.432017907387
0.7537601161620366	17860.247213438153
0.7538857428480638	17579.015544834565
0.7540113904718717	17297.737004286573
0.7541370590369503	17016.411583981888
0.7542627485467898	16735.039276106974
0.7543884590048808	16456.275889844288
0.7545141904147151	16203.950151045145
0.7546399427797842	15951.582357956608
0.7547657161035808	15699.172503569183
0.754891510389598	15446.720580872707
0.7550173256413296	15194.226582855681
0.7551431618622698	14941.690502505713
0.7552690190559135	14689.112332809074
0.7553948972257561	14439.683881340135
0.7555207963752938	14200.927578378505
0.755646716508023	13962.13148269985
0.755772657627441	13723.295587671833
0.7558986197370455	13484.419886661275
0.756024602840335	13245.504373033944
0.7561506069408084	13006.549040154345
0.7562766320419653	12767.553881385717
0.7564026781473054	12532.2432266784
0.75652874526033	12303.447192298903
0.7566548333845401	12074.613025246892
0.7567809425234375	11845.74071916712
0.7569070726805247	11616.830267703132
0.7570332238593047	11387.881664497263
0.7571593960632813	11158.894903190643
0.7572855892959586	10929.869977423792
0.7574118035608413	10714.786064529924
0.7575380388614347	10513.342595941316
0.7576642952012449	10311.8655534412
0.7577905725837782	10110.354931434289
0.7579168710125422	9908.810724323353
0.7580431904910444	9707.232926511157
0.7581695310227928	9505.621532399578
0.7582958926112967	9303.976536388729
0.7584222752600652	9112.154509737116
0.7585486789726085	8925.96273998481
0.7586751037524372	8739.73993827081
0.7588015496030628	8553.486099422826
0.7589280165279966	8367.201218268736
0.7590545045307512	8180.885289634454
0.7591810136148396	7994.5383083454035
0.7593075437837755	7808.160269225864
0.7594340950410726	7634.204251145806
0.7595606673902461	7463.832335509162
0.7596872608348112	7293.4320245530735
0.7598138753782836	7123.003313545347
0.75994051102418	6952.546197752294
0.7600671677760173	6782.060672440075
0.7601938456373134	6611.546732873507
0.7603205446115863	6441.004374317106
0.7604472647023548	6281.031257809759
0.7605740059131385	6122.084885828395
0.7607007682474575	5963.112022784879
0.7608275517088319	5804.112664264542
0.7609543563007835	5645.086805850766
0.7610811820268336	5486.034443127349
0.7612080288905045	5326.955571677117
0.7613348968953197	5168.089651956514
0.7614617860448022	5014.110545074485
0.7615886963424764	4860.105775007767
0.7617156277918667	4706.0753374795195
0.7618425803964988	4552.019228211558
0.7619695541598982	4397.937442925425
0.7620965490855914	4243.8299773418585
0.7622235651771058	4089.6968271805163
0.7623506024379685	3938.8361007659028
0.7624776608717082	3802.40621846195
0.7626047404818536	3665.9535978442736
0.7627318412719337	3529.4782351233957
0.762858963245479	3392.980126508645
0.7629861064060198	3256.4592682091125
0.7631132707570876	3119.9156564330556
0.7632404563022137	2983.3492873884916
0.7633676630449308	2849.6978989820836
0.7634948909887717	2722.2777120355263
0.7636221401372697	2594.8362883913105
0.7637494104939593	2467.3736245097
0.7638767020623748	2339.8897168509607
0.7640040148460518	2212.3845618741325
0.7641313488485262	2084.8581560381463
0.7642587040733344	1957.3104958010426
0.7643860805240132	1832.9288058525733
0.7645134782041005	1712.329704340618
0.7646408971171346	1591.7105029783606
0.764768337266654	1471.0711984159204
0.7648957986561985	1350.4117873026808
0.7650232812893079	1229.732266287605
