#wavelength	surface flux
0.7	26004.535440118376
0.7001166666666666	26046.178177754275
0.7002333527777778	26043.75993945722
0.700350058336574	26041.34129812045
0.7004667833462966	26038.922253676792
0.7005835278101878	26036.502806059056
0.7007002917314895	26034.082955200054
0.7008170751134447	26031.662701032576
0.7009338779592968	26029.2420434894
0.7010507002722901	26029.962925325795
0.7011675420556689	26034.50746283866
0.701284403312678	26039.05275777444
0.7014012840465635	26043.59881025938
0.7015181842605713	26048.14562041973
0.701635103957948	26052.693188381774
0.701752043141941	26057.241514271813
0.701869001815798	26061.79059821617
0.7019859799827672	26106.05237213172
0.7021029776460976	26177.958791446865
0.7022199948090387	26249.87719516532
0.7023370314748403	26321.80758528437
0.7024540876467528	26393.749963801754
0.702571163328027	26465.70433271544
0.7026882585219152	26537.67069402414
0.7028053732316688	26609.649049726286
0.7029225074605406	26703.88856749585
0.7030396612117841	26806.735215091685
0.7031568344886527	26909.59900379547
0.7032740272944008	27012.479936463973
0.7033912396322832	27115.37801595464
0.7035084715055552	27218.29324512512
0.7036257229174727	27321.225626833835
0.7037429938712924	27424.1751639396
0.7038602843702709	27443.911420484317
0.7039775944176659	27449.534474915054
0.7040949240167356	27455.15846652153
0.7042122731707383	27460.78339545994
0.7043296418829335	27466.409261886507
0.7044470301565806	27472.03606595748
0.70456443799494	27477.663807829125
0.7046818654012724	27483.292487657753
0.7047993123788394	27563.283437657374
0.7049167789309024	27643.373052410327
0.7050342650607243	27723.47601543253
0.7051517707715678	27803.59232894853
0.7052692960666963	27883.721995183412
0.705386840949374	27963.86501636263
0.7055044054228656	28044.021394712177
0.7056219894904361	28113.424080067496
0.7057395931553511	28114.41486079938
0.705857216420877	28115.405806661387
0.7059748592902804	28116.396917681035
0.7060925217668288	28117.388193885854
0.70621020385379	28118.379635303376
0.7063279055544321	28119.371241961133
0.7064456268720246	28120.363013886665
0.7065633678098366	28132.61141926704
0.7066811283711383	28175.862385774944
0.7067989085592001	28219.120560777268
0.7069167083772933	28262.385945475402
0.7070345278286895	28305.65854107101
0.707152366916661	28348.938348765892
0.7072702256444803	28392.22536976201
0.7073881040154211	28435.519605261685
0.7075060020327569	28489.84328159925
0.7076239196997625	28560.228200407986
0.7077418570197124	28630.624850036453
0.7078598139958823	28701.03323243985
0.7079777906315483	28771.45334957372
0.7080957869299869	28841.885203393726
0.7082138028944751	28912.328795855996
0.7083318385282908	28982.78412891706
0.7084498938347124	28998.35818127731
0.708567968817018	28967.395402559225
0.7086860634784875	28936.42746337798
0.7088041778224007	28905.454362873512
0.7089223118520377	28874.476100185668
0.7090404655706796	28843.49267445406
0.709158638981608	28812.504084818127
0.709276832088105	28781.51033041725
0.7093950448934531	28805.139701346372
0.7095132774009353	28854.825831791844
0.7096315296138355	28904.52024325908
0.7097498015354378	28954.222937128216
0.7098680931690269	29003.933914779613
0.7099864045178884	29053.653177594017
0.7101047355853081	29103.38072695221
0.7102230863745722	29153.116564235264
0.7103414568889679	29203.829625593266
0.7104598471317828	29254.771303935802
0.7105782571063047	29305.721472558023
0.7106966868158224	29356.68013287501
0.710815136263625	29407.647286302043
0.7109336054530023	29458.622934254676
0.7110520943872445	29509.60707814862
0.7111706030696424	29560.599719399906
0.7112891315034873	29558.934623429897
0.7114076796920712	29554.756392147727
0.7115262476386865	29550.57746449368
0.7116448353466263	29546.39784035169
0.711763442819184	29542.217519605674
0.711882070059654	29538.03650213953
0.7120007170713306	29533.854787837143
0.7121193838575091	29530.02965664975
0.7122380704214853	29529.93022758883
0.7123567767665555	29529.830781956403
0.7124755028960166	29529.731319749702
0.7125942488131658	29529.631840965965
0.7127130145213015	29529.532345602434
0.7128318000237216	29529.43283365634
0.7129506053237256	29529.333305124925
0.7130694304246129	29529.259846989407
0.7131882753296837	29529.277585896845
0.7133071400422386	29529.29532776077
0.7134260245655789	29529.31307258167
0.7135449289030065	29529.33082036004
0.7136638530578235	29529.348571096376
0.7137827970333332	29529.366324791165
0.7139017608328388	29529.384081444903
0.7140207444596443	29526.175799962086
0.7141397479170543	29517.21204662962
0.7142587712083737	29508.246799338274
0.7143778143369084	29499.28005783904
0.7144968773059646	29490.31182188289
0.7146159601188489	29481.342091220748
0.7147350627788687	29472.370865603494
0.7148541852893318	29463.39814478198
0.7149733276535467	29431.28635811261
0.7150924898748222	29375.837810647783
0.715211671956468	29320.380021758363
0.7153308739017941	29264.91298990409
0.715450095714111	29209.43671354453
0.71556933739673	29153.951191138905
0.7156885989529628	29098.45642114622
0.7158078803861218	29042.95240202512
0.7159271816995193	28902.506272526094
0.7160465028964692	28712.186445520314
0.7161658439802853	28521.834898543373
0.7162852049542819	28331.45162630864
0.7164045858217744	28141.036623528416
0.716523986586078	27950.589884914472
0.7166434072505089	27760.111405177526
0.716762847818384	27569.60117902722
0.7168823082930204	27420.184703230614
0.7170017886777359	27282.842272379938
0.7171212889758488	27145.476951124212
0.7172408091906781	27008.088735648234
0.7173603493255433	26870.6776221363
0.7174799093837642	26733.24360677219
0.7175994893686615	26595.7866857388
0.7177190892835562	26458.306855218627
0.7178387091317702	26515.669336241986
0.7179583489166254	26592.602508667944
0.7180780086414448	26669.548503289367
0.7181976883095517	26746.507322243226
0.7183173879242699	26823.478967666913
0.718437107488924	26900.463441698193
0.7185568470068389	26977.460746475175
0.7186766064813399	27050.917551502265
0.7187963859157535	27035.5454525978
0.7189161853134061	27020.17079167685
0.719036004677625	27004.793568312416
0.7191558440117378	26989.413782077427
0.7192757033190732	26974.031432544714
0.7193955826029597	26958.646519287093
0.7195154818667269	26943.259041877252
0.7196354011137046	26930.734091986178
0.7197553403472235	26931.398450761597
0.7198752995706147	26932.062920263477
0.7199952787872098	26932.727500510275
0.720115278000341	26933.39219152045
0.7202352972133411	26934.056993312453
0.7203553364295432	26934.72190590476
0.7204753956522815	26935.38692931583
0.7205954748848902	26973.05579825475
0.7207155741307044	27092.310350348787
0.7208356933930594	27211.584778201297
0.7209558326752915	27330.879085125147
0.7210759919807375	27450.19327443364
0.7211961713127342	27569.5273494402
0.7213163706746197	27688.88131345945
0.7214365900697322	27808.25516980591
0.7215568295014103	27851.363727691136
0.721677088972994	27803.45838254009
0.7217973684878227	27755.545053164937
0.7219176680492374	27707.623738234826
0.7220379876605789	27659.694436418926
0.722158327325189	27611.75714638604
0.7222786870464099	27563.811866804837
0.7223990668275843	27515.858596343685
0.7225194666720555	27415.927211602575
0.7226398865831676	27279.146645054392
0.7227603265642646	27142.343281745445
0.722880786618692	27005.517117875654
0.7230012667497951	26868.668149645313
0.7231217669609201	26731.796373253575
0.7232422872554135	26594.901784899233
0.7233628276366229	26457.98438077993
0.7234833881078956	26447.00464265298
0.7236039686725803	26483.845409896032
0.7237245693340255	26520.692317266898
0.7238451900955812	26557.54536578906
0.7239658309605971	26594.404556485933
0.7240864919324239	26631.269890381307
0.7242071730144127	26668.141368498997
0.724327874209915	26705.018991862962
0.7244485955222832	26516.984284185346
0.7245693369548704	26291.72986738839
0.7246900985110294	26066.437908188964
0.7248108801941148	25841.108400329074
0.7249316820074803	25615.741337551965
0.7250525039544815	25390.336713597353
0.7251733460384739	25164.894522205384
0.7252942082628137	24939.8088135112
0.7254150906308574	24943.014347424876
0.7255359931459625	24946.2204155942
0.7256569158114868	24949.427018108225
0.7257778586307888	24952.634155056003
0.7258988216072273	24955.841826526605
0.7260198047441617	24959.050032609113
0.7261408080449525	24962.25877339264
0.72626183151296	24964.82727945005
0.7263828751515454	24963.137932511218
0.7265039389640706	24961.448304014557
0.726625022953898	24959.758393913147
0.7267461271243904	24958.068202160055
0.7268672514789111	24956.37772870834
0.7269883960208241	24954.686973511045
0.7271095607534942	24952.99593652122
0.7272307456802866	24944.380886374223
0.7273519508045666	24917.06173089406
0.7274731761297006	24889.73802222133
0.7275944216590555	24862.409759597154
0.7277156873959987	24835.076942262534
0.7278369733438982	24807.739569458314
0.727958279506122	24780.397640425363
0.7280796058860397	24753.05115440421
0.7282009524870207	24670.45035111616
0.7283223193124353	24506.11523409248
0.7284437063656539	24341.752727882962
0.7285651136500483	24177.362827922145
0.7286865411689898	24012.945529645003
0.7288079889258514	23848.50082848442
0.7289294569240056	23684.02871987402
0.7290509451668262	23519.529199245328
0.7291724536576875	23384.84233411353
0.7292939823999636	23274.85873310854
0.7294155313970303	23164.85680150316
0.7295371006522632	23054.83653624254
0.7296586901690385	22944.797934271133
0.7297802999507332	22834.740992532777
0.7299019300007252	22724.665707970515
0.7300235803223919	22614.572077527788
0.7301452509191123	22570.582538016442
0.7302669417942654	22557.10576507176
0.7303886529512311	22543.626745998245
0.7305103843933897	22530.14548042155
0.7306321361241218	22516.661967967273
0.7307539081468093	22503.17620826089
0.7308757004648336	22489.68820092792
0.7309975130815778	22476.197945593714
0.7311193460004248	22491.564228646126
0.7312411992247582	22513.46633365652
0.7313630727579622	22535.372089017743
0.7314849666034219	22557.28149533821
0.7316068807645224	22579.19455322639
0.7317288152446498	22601.11126329089
0.7318507700471907	22623.031626140415
0.7319727451755319	22644.95564238374
0.732094740633061	22564.622541409335
0.7322167564231665	22479.67223927831
0.7323387925492371	22394.707778763594
0.7324608490146619	22309.72915750548
0.732582925822831	22224.736373143805
0.7327050229771347	22139.729423318164
0.7328271404809642	22054.708305667467
0.7329492783377112	21969.82402261185
0.7330714365507675	21886.41012898672
0.7331936151235259	21802.98233304601
0.7333158140593796	21719.540632472734
0.7334380333617229	21636.085024949236
0.7335602730339499	21552.615508157778
0.7336825330794556	21469.132079780175
0.7338048135016354	21385.634737498
0.7339271143038857	21320.422837336442
0.734049435489603	21316.51546692617
0.7341717770621846	21312.607445287493
0.7342941390250283	21308.698772311876
0.7344165213815324	21304.78944789077
0.734538924135096	21300.879471915585
0.7346613472891185	21296.968844277744
0.734783790847	21293.057564868628
0.7349062548121412	21243.767261358786
0.7350287391879431	21114.260616612002
0.7351512439778078	20984.732387424163
0.7352737691851374	20855.182570198278
0.735396314813335	20725.611161336077
0.7355188808658037	20596.01815723928
0.7356414673459482	20466.403554308203
0.7357640742571725	20336.76734894339
0.7358867016028818	20226.61863472008
0.7360093493864824	20135.718555175485
0.7361320176113801	20044.803325617762
0.736254706280982	19953.872943521776
0.7363774153986956	19862.92740636199
0.7365001449679286	19771.966711612862
0.7366228949920899	19680.99085674787
0.7367456654745885	19589.9998392404
0.7368684564188344	19498.994493739985
0.7369912678282374	19407.974453836727
0.7371140997062088	19316.93924392678
0.7372369520561599	19225.888861481762
0.7373598248815024	19134.823303973208
0.7374827181856494	19043.74256887158
0.7376056319720137	18952.646653647433
0.7377285662440091	18861.535555770733
0.7378515210050496	18723.130445623203
0.7379744962585505	18570.4775071783
0.738097492007927	18417.799126577032
0.7382205082565949	18265.095299579087
0.738343545007971	18112.36602194334
0.7384666022654723	17959.611289427834
0.7385896800325165	17806.831097790473
0.7387127783125219	17654.025442787646
0.7388358971089073	17650.907601169627
0.7389590364250921	17662.805853593236
0.7390821962644963	17674.706089058924
0.7392053766305403	17686.60830789717
0.7393285775266454	17698.51251043857
0.7394517989562333	17710.418697013734
0.7395750409227259	17722.326867953307
0.7396983034295463	17730.01544465375
0.739821586480118	17643.793137650642
0.7399448900778645	17557.556460263204
0.7400682142262109	17471.305410095938
0.740191558928582	17385.039984753737
0.7403149241884034	17298.760181840717
0.7404383100091014	17212.46599896052
0.7405617163941028	17126.157433716562
0.7406851433468352	17033.60099609687
0.7408085908707264	16912.51242566364
0.7409320589692048	16791.403673802066
0.7410555476456997	16670.274737148415
0.7411790569036406	16549.125612338743
0.7413025867464579	16427.956296008237
0.7414261371775823	16306.766784791638
0.7415497082004452	16185.557075323268
0.7416732998184786	16064.123807472972
0.741796912035115	15942.234060448942
0.7419205448537874	15820.323998467104
0.7420441982779297	15698.393618141607
0.742167872310976	15576.44291608594
0.7422915669563612	15454.471888913271
0.7424152822175206	15332.480533236103
0.7425390180978901	15210.468845666399
0.7426627746009065	15113.781808005482
0.7427865517300065	15047.976007695324
0.7429103494886282	14982.159239751712
0.7430341678802096	14916.33150234683
0.7431580069081896	14850.49279365238
0.7432818665760077	14784.643111839723
0.7434057468871037	14718.782455080154
0.7435296478449182	14652.910821544494
0.7436535694528923	14569.933133037222
0.7437775117144678	14475.239510783704
0.7439014746330868	14380.530106259952
0.7440254582121922	14285.804916835365
0.7441494624552276	14191.063939879166
0.7442734873656368	14096.307172760165
0.7443975329468645	14001.534612846566
0.7445215992023557	13906.746257506327
0.7446456861355559	13805.162205347655
0.7447697937499119	13701.063687830067
0.7448939220488703	13596.947820559582
0.7450180710358784	13492.814600644644
0.7451422407143843	13388.664025193042
0.7452664310878367	13284.496091312101
0.7453906421596846	13180.310796108957
0.7455148739333779	13076.108136689912
0.7456391264123667	12984.747347850995
0.7457633996001021	12895.427453213562
0.7458876935000356	12806.092671926865
0.7460120081156189	12716.743001510124
0.7461363434503048	12627.378439481603
0.7462606995075466	12537.998983359332
0.7463850762907978	12448.604630661173
0.7465094738035127	12359.184045532385
0.7466338920491467	12266.783809933597
0.746758331031155	12174.36817429545
0.7468827907529935	12081.937136051476
0.7470072712181189	11989.490692634456
0.7471317724299886	11897.02884147685
0.7472562943920602	11804.551580010782
0.7473808371077922	11712.05890566772
0.7475054005806435	11619.047393456221
0.7476299848140736	11522.919494631637
0.7477545898115426	11426.775574490557
0.7478792155765113	11330.615630362765
0.7480038621124406	11234.439659577696
0.7481285294227926	11138.247659464183
0.7482532175110298	11042.03962735055
0.7483779263806148	10945.815560565034
0.7485026560350116	10850.285780560884
0.7486274064776842	10756.66254457158
0.748752177712097	10663.023704709782
0.7488769697417158	10569.369258374474
0.749001782570006	10475.69920296489
0.7491266162004343	10382.013535879432
0.7492514706364677	10288.312254516084
0.7493763458815739	10194.595356272413
0.7495012419392209	10099.728373208402
0.7496261588128773	10003.21464986442
0.7497510965060128	9906.684840899814
0.7498760550220971	9810.138943633749
0.7500010343646007	9713.576955384791
0.7501260345369949	9616.998873471079
0.750251055542751	9520.404695210489
0.7503760973853414	9423.79441792013
0.7505011600682389	9328.838919985474
0.750626243594917	9235.262743620104
0.7507513479688495	9141.670971225483
0.7508764731935109	9048.063600202096
0.7510016192723765	8954.440627950184
0.7511267862089218	8860.802051869648
0.7512519740066232	8767.147869359733
0.7513771826689577	8673.478077819345
0.7515024121994025	8584.661463993672
0.7516276626014359	8498.10015060328
0.751752933878536	8411.524410327476
0.7518782260341824	8324.934240761595
0.7520035390718548	8238.32963950075
0.7521288729950334	8151.710604139737
0.7522542278071992	8065.077132272825
0.7523796035118337	7978.429221493893
0.7525050001124189	7890.760761315389
0.7526304176124378	7802.85888372007
0.7527558560153731	7714.942355811931
0.752881315324709	7627.011175149055
0.7530067955439299	7539.06533928937
0.7531322966765205	7451.104845790493
0.7532578187259665	7363.129692209339
0.7533833616957542	7275.139876102591
0.75350892558937	7187.893337133156
0.7536345104103016	7100.667897677851
0.7537601161620366	7013.427920649349
0.7538857428480638	6926.173403624592
0.7540113904718717	6838.904344180442
0.7541370590369503	6751.620739893072
0.7542627485467898	6664.322588338265
0.7543884590048808	6577.620508727943
0.7545141904147151	6496.993166919729
0.7546399427797842	6416.3523872213445
0.7547657161035808	6335.698167392997
0.754891510389598	6255.0305051946825
0.7550173256413296	6174.349398385969
0.7551431618622698	6093.65484472614
0.7552690190559135	6012.946841974052
0.7553948972257561	5932.386280311469
0.7555207963752938	5852.352347180633
0.755646716508023	5772.305075060987
0.755772657627441	5692.244461729294
0.7558986197370455	5612.170504962033
0.756024602840335	5532.083202535332
0.7561506069408084	5451.982552224894
0.7562766320419653	5371.868551805999
0.7564026781473054	5291.765309787854
0.75652874526033	5211.691145688565
0.7566548333845401	5131.603635895217
0.7567809425234375	5051.5027781836
0.7569070726805247	4971.388570329076
0.7570332238593047	4891.261010106587
0.7571593960632813	4811.120095290651
0.7572855892959586	4730.965823655575
0.7574118035608413	4654.154949825484
0.7575380388614347	4580.615298958821
0.7576642952012449	4507.063391483651
0.7577905725837782	4433.499225357342
0.7579168710125422	4359.922798536547
0.7580431904910444	4286.334108977921
0.7581695310227928	4212.7331546377945
0.7582958926112967	4139.119933471852
0.7584222752600652	4067.048954368596
0.7585486789726085	3995.8589706397966
0.7586751037524372	3924.657121913682
0.7588015496030628	3853.443406212641
0.7589280165279966	3782.217821559124
0.7590545045307512	3710.9803659748313
0.7591810136148396	3639.7310374812764
0.7593075437837755	3568.4698340995337
0.7594340950410726	3499.8320303769656
0.7595606673902461	3431.947377117427
0.7596872608348112	3364.0514097489436
0.7598138753782836	3296.144126385974
0.75994051102418	3228.22552514238
0.7600671677760173	3160.295604131965
0.7601938456373134	3092.3543614679966
0.7603205446115863	3024.4017952636223
0.7604472647023548	2957.6281191312846
0.7605740059131385	2890.9616213313916
0.7607007682474575	2824.2840124484665
0.7608275517088319	2757.5952906308758
0.7609543563007835	2690.8954540261675
0.7610811820268336	2624.1845007820657
0.7612080288905045	2557.462429045884
0.7613348968953197	2490.670107598108
0.7614617860448022	2422.653450064238
0.7615886963424764	2354.625456420686
0.7617156277918667	2286.5861247782595
0.7618425803964988	2218.53545324717
0.7619695541598982	2150.4734399375097
0.7620965490855914	2082.400082959015
0.7622235651771058	2014.315380420945
0.7623506024379685	1947.100879950153
0.7624776608717082	1883.7391048270772
0.7626047404818536	1820.3667694081446
0.7627318412719337	1756.9838719334175
0.762858963245479	1693.590410642405
0.7629861064060198	1630.186383774505
0.7631132707570876	1566.7717895687276
0.7632404563022137	1503.346626263973
0.7633676630449308	1440.5427101207179
0.7634948909887717	1379.0732574511999
0.7636221401372697	1317.5935598729836
0.7637494104939593	1256.1036156784462
0.7638767020623748	1194.6034231599654
0.7640040148460518	1133.092980609328
0.7641313488485262	1071.5722863182677
0.7642587040733344	1010.0413385780889
0.7643860805240132	948.7452587466639
0.7645134782041005	887.7314682011207
0.7646408971171346	826.7075086904612
0.764768337266654	765.6733785199056
0.7648957986561985	704.6290759943017
0.7650232812893079	643.5745994182851
