#wavelength	surface flux
0.8	177917.8676301136
0.8002000000000001	180823.348512868
0.8004000500000003	183917.10314358227
0.8006001500125003	187013.52562612708
0.8008003000500035	190110.7222142928
0.8010005001250161	193208.69310160697
0.8012007502500472	196307.4384816385
0.8014010504376099	199329.00741471804
0.8016014007002193	202325.22049186748
0.8018018010503944	205322.18262228623
0.8020022515006572	208319.8939932389
0.8022027520635323	211318.35479203175
0.8024033027515483	214498.38280591735
0.8026039035772362	217856.4000277078
0.8028045545531306	221215.25675380387
0.8030052556917691	224574.95319408306
0.803206007005692	227935.4895584694
0.8034068085074435	231305.8270490795
0.8036076602095705	234702.12609944702
0.8038085621246229	238099.2742245745
0.8040095142651542	241497.27163673533
0.8042105166437206	244896.11854824808
0.8044115692728815	248298.57595138255
0.8046126721651998	251820.62997630218
0.8048138253332411	255343.56451472518
0.8050150287895745	258867.37978678607
0.805216282546772	262392.076012664
0.8054175866174087	265917.6534125966
0.8056189410140631	269457.11817865015
0.8058203457493168	273001.1493444581
0.8060218008357541	276546.06651805306
0.8062233062859632	280091.8699209431
0.8064248621125346	283638.55977468146
0.806626468328063	287345.79420747014
0.8068281249451449	291191.08227612893
0.8070298319763813	295037.3316668096
0.8072315894343755	298884.54261983506
0.8074333973317341	302732.7153756002
0.8076352556810671	306450.693124274
0.8078371644949874	309853.88344655995
0.8080391237861113	313257.92456642725
0.8082411335670578	316662.81669657235
0.8084431938504498	320068.5600497536
0.8086453046489125	323456.30014306644
0.8088474659750746	326493.8465172
0.8090496778415686	329532.15227793116
0.809251940261029	332571.2176151003
0.8094542532460944	335611.04271860636
0.8096566168094059	338651.6277783848
0.8098590309636085	342093.3877188517
0.8100614957213493	345629.728437391
0.8102640110952797	349166.9532411105
0.8104665770980536	352705.0623510323
0.8106691937423283	356244.05598823284
0.8108718610407639	359882.202219819
0.8110745790060241	363596.3982520606
0.8112773476507757	367311.52283331344
0.8114801669876885	371027.5761957107
0.8116830370294355	374744.55857144634
0.8118859577886929	378262.2055258967
0.8120889292781401	381364.7734218317
0.8122919515104597	384468.1169597406
0.8124950244983374	387572.23633353406
0.8126981482544621	390677.13173717057
0.8129013227915257	393885.46410849603
0.8131045481222237	398270.0797751186
0.8133078242592543	402655.7915956583
0.8135111512153191	407042.599844152
0.813714529003123	411430.5047947083
0.8139179576353739	415819.5067215029
0.8141214371247829	422037.72460059193
0.8143249674840641	428611.9999990553
0.814528548725935	435187.9189663643
0.8147321808631167	441765.48191342404
0.8149358639083326	448344.6892512185
0.8151395978743097	454293.3980591168
0.8153433827737784	459816.49148686073
0.8155472186194719	465340.9656879596
0.8157511054241268	470866.8210076076
0.815955043200483	476394.05779108946
0.8161590319612831	482702.46261498705
0.8163630717192736	490441.3077567811
0.8165671624872033	498182.0876098521
0.8167713042778252	505924.8026578939
0.8169754971038948	513669.45338470157
0.8171797409781707	520724.74115747726
0.8173840359134155	522262.9378017899
0.8175883819223938	523801.51899526187
0.8177927790178745	525340.4848340331
0.8179972272126291	526879.8354142644
0.8182017265194322	528419.5708321391
0.8184062769510622	535297.3606595604
0.8186108785203001	542998.2582652785
0.8188155312399301	550701.0810953877
0.8190202351227402	558405.829631213
0.819224990181521	566112.5043541674
0.8194297964290664	573837.7389656093
0.8196346538781738	581574.9305294363
0.8198395625416434	589314.0563911512
0.8200445224322789	597055.1170343348
0.820249533562887	604798.1129426769
0.8204545959462778	612245.5131458944
0.8206597095952644	619215.9063560754
0.8208648745226633	626188.0421645645
0.8210700907412941	633161.9210070045
0.8212753582639793	640137.543319148
0.8214806771035456	646629.5653178224
0.8216860472728215	650132.8986157619
0.8218914687846397	653637.107747026
0.822096941651836	657142.1929305749
0.822302465887249	660648.1543854175
0.8225080415037209	664154.9923306258
0.8227136685140968	667871.4425889155
0.8229193469312254	671612.5178133337
0.8231250767679583	675354.5283065593
0.8233308580371503	679097.4743024062
0.8235366907516598	682841.3560347549
0.8237425749243477	691909.796456972
0.8239485105680789	703802.1176167694
0.824154497695721	715697.4118568491
0.824360536320145	727595.6799204912
0.8245666264542252	739496.9225511486
0.8247727681108388	749420.7021387425
0.8249789613028664	756510.6022049381
0.8251852060431922	763602.2747461563
0.825391502344703	770695.7202055067
0.8255978502202894	777790.9390262283
0.8258042496828445	785126.6368439755
0.8260107007452654	793623.4571632795
0.8262172034204517	802122.4016876546
0.8264237577213068	810623.470948163
0.8266303636607373	819126.6654759903
0.8268370212516525	827631.9858024453
0.8270437305069654	833148.7733486572
0.8272504914395923	838433.2395190174
0.8274573040624523	843719.0268059213
0.8276641683884679	849006.1355396424
0.8278710844305652	854294.5660505533
0.8280780522016729	861432.131201279
0.8282850717147234	869416.112429917
0.8284921429826521	877402.0896538538
0.8286992660183978	885390.0633721029
0.8289064408349024	893380.0340837761
0.8291136674451112	900908.5019512149
0.8293209458619727	907854.4012364777
0.8295282760984382	914802.0369965525
0.829735658167463	921751.4096655755
0.8299430920820048	928702.5196777567
0.8301505778550254	935761.7062215153
0.8303581154994891	943247.0866693923
0.8305657050283641	950734.3384623887
0.8307733464546212	958223.4620683276
0.8309810397912352	965714.4579551802
0.8311887850511829	973207.3265909897
0.8313965822474458	985136.0667016727
0.8316044313930077	997273.594311252
0.8318123325008561	1009414.156302745
0.8320202855839813	1021557.75343473
0.8322282906553774	1033704.3864659991
0.8324363477280413	1042820.6228033568
0.8326444568149735	1050717.888633759
0.8328526179291771	1058617.1287806095
0.8330608310836596	1066518.3437375086
0.8332690962914304	1074421.5339981364
0.8334774135655034	1080668.7760362993
0.833685782918895	1085065.6243095794
0.8338942043646247	1089463.571794925
0.834102677915716	1093862.6187671453
0.834311203585195	1098262.765501105
0.8345197813860912	1103981.3278059904
0.8347284113314379	1114135.5270298582
0.8349370934342709	1124292.2648035265
0.8351458277076294	1134451.5417616258
0.8353546141645565	1144613.3585389818
0.8355634528180977	1154777.7157705275
0.8357723436813022	1161896.1618341552
0.8359812867672226	1168978.746891425
0.8361902820889144	1176063.1025949558
0.8363993296594368	1183149.2293874146
0.8366084294918518	1190237.1277115738
0.8368175815992247	1201756.9143648876
0.8370267859946247	1214805.358539793
0.8372360426911234	1227857.0648257378
0.8374453517017962	1240912.0340382531
0.8376547130397217	1253970.2669930698
0.8378641267179816	1265603.38326959
0.8380735927496613	1275822.0823296248
0.8382831111478488	1286043.3360644183
0.8384926819256358	1296267.1451126402
0.8387023050961173	1306493.5101131331
0.8389119806723914	1316382.5245970378
0.8391217086675596	1325317.4016649956
0.8393314890947265	1334254.5124522136
0.8395413219670003	1343193.8575171293
0.8397512072974922	1352135.4374183172
0.8399611450993165	1361086.3914298024
0.8401711353855914	1370394.0892319286
0.8403811781694378	1379704.113958503
0.8405912734639802	1389016.4661912613
0.8408014212823464	1398331.146512082
0.8410116216376671	1407648.155502982
0.8412218745430766	1416638.4066127825
0.8414321800117124	1425535.1536285852
0.8416425380567154	1434434.124831146
0.8418529486912297	1443335.3207765098
0.8420634119284025	1452238.7420208522
0.8422739277813847	1468065.0406535908
0.8424844962633302	1489992.6584087452
0.842695117387396	1511925.7580683106
0.8429057911667428	1533864.3410027917
0.8431165176145345	1555808.4085830168
0.8433272967439382	1572595.064260373
0.8435381285681244	1576792.176902973
0.8437490131002665	1580990.338823733
0.8439599503535415	1585189.5502849703
0.84417094034113	1589389.811549076
0.8443819830762154	1593992.716312413
0.8445930785719846	1606686.9058593484
0.8448042268416277	1619384.268953663
0.8450154278983382	1632084.80638875
0.8452266817553128	1644788.5189581946
0.8454379884257517	1657495.407455783
0.8456493479228583	1674610.5711800673
0.845860760259839	1692790.8143576155
0.846072225449904	1710975.602595958
0.8462837435062666	1729164.937031364
0.8464953144421433	1747358.8188003893
0.8467069382707537	1762657.3756607291
0.8469186150053215	1775699.3949215726
0.847130344659073	1788744.6746872354
0.8473421272452377	1801793.2157728265
0.8475539627770492	1814845.0189937023
0.8477658512677435	1827069.8244040918
0.8479777927305605	1837534.7366197228
0.8481897871787432	1848002.2650634048
0.848401834625538	1858472.4103892036
0.8486139350841944	1868945.1732513276
0.8488260885679657	1878363.202725449
0.8490382950901076	1874894.8463237379
0.8492505546638802	1871425.6228329244
0.8494628673025462	1867955.5320362393
0.8496752330193721	1864484.5737168503
0.8498876518276269	1861012.7476578858
0.8501001237405839	1797770.6268167617
0.8503126487715191	1722581.6681302148
0.850525226933712	1647373.9122040384
0.8507378582404455	1572147.354338881
0.8509505427050057	1496901.9898342136
0.8511632803406821	1435762.4801028224
0.8513760711607672	1384280.4953190861
0.8515889151785576	1332785.640039074
0.8518018124073523	1281277.911045285
0.8520147628604541	1229757.305119278
0.8522277665511693	1216906.2728524774
0.8524408234928071	1275590.5503314622
0.8526539336986805	1334289.4988798324
0.8528670971821053	1393003.1221653437
0.8530803139564007	1451731.423856607
0.8532935840348901	1517239.1523343301
0.8535069074308987	1639894.983618837
0.8537202841577566	1762581.4788612681
0.8539337142287962	1885298.6457275238
0.8541471976573534	2008046.4918854192
0.8543607344567677	2130825.0250048763
0.8545743246403821	2178477.250334363
0.8547879682215422	2214205.5977337337
0.8550016652135977	2249942.87721995
0.8552154156299011	2285689.0910260393
0.8554292194838088	2321444.241385606
0.8556430767886797	2348823.4062455795
0.855856987557877	2371118.3113285964
0.8560709518047664	2393418.7901378707
0.8562849695427177	2415724.844066855
0.8564990407851035	2438036.474509328
0.8567131655452999	2458953.598556128
0.8569273438366862	2477581.8670282047
0.8571415756726455	2496214.7925674035
0.8573558610665638	2514852.3763379934
0.8575702000318304	2533494.6195045062
0.8577845925818384	2552323.248159158
0.857999038729984	2572291.704815169
0.8582135384896665	2592265.153585339
0.858428091874289	2612243.595717703
0.8586426988972576	2632227.032460595
0.8588573595719821	2652215.4650626793
0.8590720739118751	2670633.9384500342
0.8592868419303532	2688871.3243993204
0.8595016636408359	2707113.269695094
0.8597165390567462	2725359.775477185
0.8599314681915105	2743610.8428857266
0.8601464510585584	2760042.091380586
0.860361487671323	2775509.078626932
0.8605765780432408	2790979.932620086
0.8607917221877518	2806454.6543267504
0.8610069201182988	2821933.2447138373
0.8612221718483286	2836006.6544469553
0.8614374773912907	2848052.2458358477
0.8616528367606385	2860100.848622584
0.8618682499698288	2872152.463560024
0.8620837170323213	2884207.0914011966
0.8622992379615795	2897686.614536779
0.8625148127710699	2918205.855027615
0.8627304414742627	2938730.2253285754
0.8629461240846313	2959259.7267221147
0.8631618606156526	2979794.3604910034
0.8633776510808066	3000334.127918331
0.8635934954935769	3021499.2541239066
0.8638093938674504	3042720.512480656
0.8640253462159173	3063947.076151994
0.8642413525524714	3085178.9464642494
0.8644574128906095	3106416.124744078
0.8646735272438323	3127082.885870401
0.8648896956256433	3147487.084936019
0.8651059180495498	3167896.385051405
0.8653221945290621	3188310.7874918003
0.8655385250776946	3208730.293532834
0.8657549097089641	3230096.5065676025
0.8659713484363913	3252673.5188537226
0.8661878412735006	3275256.1753929243
0.866404388233819	3297844.477596258
0.8666209893308775	3320438.4268751317
0.8668376445782103	3342349.478123241
0.8670543539893549	3361455.699259736
0.8672711175778525	3380566.6969515285
0.8674879353572469	3399682.4723927225
0.8677048073410862	3418803.0267777843
0.8679217335429217	3437928.361301454
0.8681387139763074	3461299.7206252115
0.8683557486548015	3484887.6169587
0.8685728375919655	3508481.4102663007
0.8687899808013633	3532081.102022177
0.8690071782965637	3555686.693701023
0.869224430091138	3579094.4215832907
0.8694417361986609	3602425.0895974664
0.8696590966327107	3625761.5902786404
0.869876511406869	3649103.9250849863
0.8700939805347206	3672452.0954750217
0.8703115040298544	3695951.96860929
0.870529081905862	3719624.4834061954
0.8707467141763385	3743302.916331792
0.8709644008548827	3766987.2688656184
0.8711821419550964	3790677.542487564
0.8713999374905854	3814225.4821254495
0.871617787474958	3837267.6239462653
0.8718356919218269	3860315.5263025574
0.8720536508448075	3883369.1906344397
0.8722716642575187	3906428.618382392
0.8724897321735832	3929493.8109872914
0.8727078546066265	3952141.1338181207
0.8729260315702784	3974787.6735853427
0.873144263078171	3997439.874987482
0.8733625491439405	4020097.7394399745
0.8735808897812266	4042761.2683585887
0.8737992850036719	4065096.38270205
0.874017734824923	4087318.755019326
0.8742362392586293	4109546.6829296728
0.874454798318444	4131780.167821996
0.8746734120180236	4154019.2110855402
0.8748920803710283	4177380.681025017
0.875110803391121	4201870.336159046
0.8753295810919689	4226366.113706873
0.875548413487242	4250868.015199086
0.8757673005906139	4275376.042166674
0.8759862424157616	4300443.170332344
0.8762052389763657	4327116.622199087
0.8764242902861098	4353796.742428779
0.8766433963586814	4380483.532688535
0.8768625572077712	4407176.994645864
0.8770817728470732	4433839.842335535
0.8773010432902849	4457598.031426655
0.8775203685511077	4481362.160065081
0.8777397486432454	4505132.229735637
0.8779591835804065	4528908.24192364
0.8781786733763015	4552690.198114658
0.8783982180446457	4575770.734280072
0.878617817599157	4598646.612560597
0.8788374720535569	4621528.209810682
0.8790571814215703	4644415.527460073
0.8792769457169257	4667308.566938877
0.879496764953355	4688652.466368322
0.8797166391445934	4708603.77753236
0.8799365683043796	4728560.076524189
0.8801565524464557	4748521.364590765
0.8803765915845676	4768487.642979377
0.8805966857324639	4788412.567483128
0.880816834903897	4808226.0673302235
0.881037039112623	4828044.520552289
0.8812572983724012	4847867.928387658
0.8814776126969944	4867696.292074993
0.8816979821001687	4887250.8000261495
0.8819184065956938	4900246.895725048
0.8821388861973429	4913246.2404478835
0.8823594209188923	4926248.835006888
0.882580010774122	4939254.680214526
0.8828006557768155	4952263.776883474
0.8830213559407598	4973238.578679373
0.8832421112797452	4996221.261892809
0.8834629218075651	5019209.690777034
0.8836837875380171	5042203.866768486
0.8839047084849018	5065203.791303941
0.884125684662023	5096944.445316892
0.8843467160831886	5135693.004974438
0.8845678027622095	5174451.251771899
0.8847889447129001	5213219.188131067
0.8850101419490785	5251996.816474317
0.8852313944845657	5285275.730270628
0.885452702333187	5306505.732205142
0.8856740655087704	5327741.041640137
0.8858954840251476	5348981.659902485
0.8861169578961539	5370227.588319388
0.886338487135628	5389613.055089438
0.886560071757412	5384174.76615387
0.8867817117753515	5378735.117646068
0.8870034072032955	5373294.1092261365
0.8872251580550963	5367851.740554106
0.8874469643446101	5362408.011289906
0.8876688260856963	5382104.437648991
0.8878907432922178	5407009.1471732035
0.8881127159780409	5431920.082874782
0.8883347441570356	5456837.246310315
0.8885568278430749	5481760.6390366815
0.8887789670500358	5504219.104487705
0.8890011617917983	5524930.210110556
0.8892234120822464	5545646.493509822
0.8894457179352669	5566367.955979921
0.8896680793647509	5587094.5988156535
0.8898904963845921	5594448.878526273
0.8901129690086883	5576280.289219793
0.8903354972509405	5558107.15776599
0.8905580811252535	5539929.48302931
0.8907807206455347	5521747.26387397
0.8910034158256963	5498164.833998074
0.8912261666796527	5426355.643888368
0.8914489732213227	5354528.501481115
0.8916718354646282	5282683.40228819
0.8918947534234944	5210820.341820536
0.8921177271118502	5138939.315587809
0.8923407565436284	4888215.995443948
0.8925638417327644	4608258.8848199155
0.8927869826931977	4328231.784918133
0.8930101794388711	4048134.6782413945
0.8932334319837308	3767967.5472880304
0.8934567403417267	3589241.1328868116
0.8936801045268123	3473547.02384384
0.8939035245529441	3357823.9912736868
0.8941270004340824	3242072.0279453453
0.894350532184191	3126291.1266262014
0.8945741198172371	3145378.8315743203
0.8947977633471915	3388182.8065172955
0.8950214627880284	3631047.4824539963
0.8952452181537254	3873972.874559537
0.8954690294582639	4116958.99801325
0.8956928967156286	4361728.359483026
0.8959168199398075	4617737.26943163
0.8961407991447926	4873810.181607787
0.8963648343445789	5129947.11201198
0.896588925553165	5386148.07664863
0.8968130727845534	5642413.091526473
0.8970372760527496	5737299.977755775
0.8972615353717629	5812010.915976771
0.8974858507556059	5886740.531932332
0.8977102222182949	5961488.830291861
0.8979346497738496	6036255.81572602
0.8981591334362931	6162618.257234368
0.8983836732196523	6317218.4090115065
0.8986082691379572	6471857.210826487
0.8988329212052417	6626534.672341923
0.8990576294355432	6781250.803222871
0.8992823938429022	6892639.606630407
0.8995072144413631	6939576.516539531
0.8997320912449734	6986525.160676114
0.8999570242677847	7033485.54197372
0.9001820135238516	7080457.663366655
0.9004070590272328	7122336.143947702
0.9006321607919896	7137460.930278537
0.9008573188321878	7152589.497805971
0.9010825331618959	7167721.847475279
0.9013078037951865	7182857.980232007
0.9015331307461353	7197997.897021917
0.9017585140288219	7304792.422219437
0.9019839536573292	7419507.76902881
0.9022094496457435	7534251.794674802
0.9024350020081551	7649024.506327335
0.9026606107586572	7763825.911157745
0.902886275911347	7850902.970349455
0.9031119974803249	7924622.8988481425
0.9033377754796951	7998361.257328955
0.903563609923565	8072118.050399356
0.903789500826046	8145893.282668073
0.9040154482012526	8201859.360297926
0.904241452063303	8234745.332270687
0.9044675124263188	8267639.525736435
0.9046936293044254	8300541.942750544
0.9049198027117517	8333452.585368922
0.9051460326624297	8367987.6420991495
0.9053723191705955	8409413.430485891
0.9055986622503881	8450849.57531969
0.9058250619159507	8492296.079189701
0.9060515181814298	8533752.944685705
0.9062780310609752	8575220.174398053
0.9065046005687405	8518255.271103902
0.906731226718883	8455784.310566256
0.9069579095255627	8393297.732288556
0.907184649002944	8330795.532366281
0.907411445165195	8268277.706893963
0.9076382980264862	8344212.7183813825
0.907865207600993	8477672.411268631
0.9080921739028933	8611165.469079062
0.9083191969463691	8744691.900153926
0.9085462767456058	8878251.712836621
0.9087734133147922	8959657.43572925
0.9090006066681211	8980806.324073229
0.909227856819788	9001960.499639263
0.9094551637839932	9023119.96374922
0.9096825275749393	9044284.717725197
0.9099099482068329	9052558.243202325
0.9101374256938848	9014999.382471312
0.9103649600503083	8977431.132025134
0.9105925512903209	8939853.48951635
0.9108201994281437	8902266.452596901
0.9110479044780008	8864670.018918265
0.9112756664541204	8999502.178050555
0.911503485370734	9138315.120457605
0.9117313612420768	9277162.766100254
0.9119592940823873	9416045.123654272
0.912187283905908	9554962.201797724
0.9124153307268845	9560780.181251584
0.9126434345595664	9518279.817532316
0.9128715954182063	9475768.82872216
0.9130998133170609	9433247.21216478
0.9133280882703902	9390714.965203261
0.913556420292458	9405873.678880148
0.9137848093975312	9480544.687805366
0.9140132555998806	9555234.364482805
0.9142417589137806	9629942.713579418
0.9144703193535092	9704669.739763355
0.9146989369333476	9768292.573807564
