#wavelength	surface flux
0.6450077295303345	13252.726076564704
0.6472567915916443	15175.913536509637
0.6494921445846558	17402.613326709587
0.6517150402069092	19817.03649551032
0.6539263725280762	22442.097900719527
0.6561272740364075	25279.24242391535
0.6583186388015747	28310.596138698824
0.6605015397071838	31640.764861269898
0.6626768708229065	35170.309037190265
0.6648455858230591	38924.90061803145
0.6670085787773132	42563.982356948145
0.6691668033599854	40932.31874844277
0.6713210344314575	36672.417589142184
0.6734722256660461	54324.822238381195
0.6756211519241333	60986.1722721495
0.6777685880661011	66341.27701417635
0.6799154281616211	71687.01807535977
0.6820623278617859	77090.1094123841
0.6842101216316223	82542.27008030866
0.6863595843315125	87980.58663029801
0.688511312007904	93360.57610165575
0.6906660795211792	98124.81508610128
0.6928245425224304	101487.6568381349
0.6949873566627502	107424.67405978299
0.6971551775932312	113178.33375959386
0.6993286609649658	117483.29217053216
0.7015084028244019	120598.90144750319
0.7036949396133423	124316.46441261683
0.7058889269828796	127182.28852722631
0.7080909013748169	129293.76211847486
0.710301399230957	130508.86467096733
0.712520956993103	130858.13738134044
0.7147500514984131	129587.73106060596
0.7169892191886902	124513.85243768668
0.7192389369010925	121572.79913778872
0.7214996814727783	119687.42180984319
0.723771870136261	114481.43091227053
0.7260559797286987	107814.68598114939
0.7283523678779602	101744.94814073731
0.7306615710258484	93681.95962838465
0.7329838871955872	86748.97633248582
0.7353196740150452	78630.99511432847
0.7376693487167358	69428.07103558704
0.7400332689285278	60925.825126260264
0.7424117922782898	51989.62444600834
0.7448052167892456	43606.981300263404
0.7472138404846191	35667.14527303341
0.7496379613876343	28354.67777711488
0.7520779371261597	21849.48566609153
0.7545340061187744	16228.320737585791
0.7570064663887024	11490.560756359342
0.7594954967498779	7589.2233820562815
0.7620013952255249	4391.975927839246
0.7645244002342224	1732.2981424521622
0.7670646905899048	492.52529212878426
0.7696225643157959	559.4929069664927
0.7721980810165405	3056.0486608557057
0.7747915983200073	7381.530640224612
0.7774031162261963	12804.22990506991
0.7800329327583313	16428.64879442873
0.7826811671257019	29458.783684478625
0.7853479981422424	43191.27787693196
0.7880334854125977	59373.59960061489
0.7907378077507019	77899.6051252625
0.7934610247612	56271.45225256178
0.7962033748626709	91781.94213317052
0.7989648580551147	162111.14554618785
0.801745593547821	204687.20820405052
0.8045456409454346	250817.68804150063
0.8073651194572449	300968.97684395406
0.8102040886878967	348624.3190396915
0.8130625486373901	399585.16825706634
0.8159406185150146	477958.8288425924
0.8188382983207703	555702.1669936501
0.8217556476593018	647777.5213634574
0.8246926665306091	740590.8417279455
0.8276493549346924	850103.5544801949
0.8306257724761963	956629.4719918143
0.8336219191551208	1081642.6422969517
0.8366377949714661	1199293.4351577063
0.8396733403205872	1348476.806608473
0.8427285552024841	1511336.0578901242
0.8458034992218018	1691855.2141059274
0.8488980531692505	1841667.2163366673
0.8520121574401855	1382481.6150505359
0.8551458716392517	2212199.768827342
0.8582990765571594	2599646.7317468813
0.8614717125892639	2850546.358925623
0.8646637797355652	3125691.405560229
0.8678751587867737	3439561.988587175
0.8711057901382446	3781733.9429183207
0.8743556141853333	4123816.247199711
0.87762451171875	4489446.673579029
0.8809124231338501	4813109.883869408
0.8842192888259888	5126752.537866799
0.8875449895858765	5407932.422629981
0.8908893465995789	5414509.775071196
0.894252359867096	3679428.4642333565
0.8976338505744934	5908962.170353898
0.9010337591171265	7220523.128976318
0.9044519662857056	8227438.399900851
0.9078882932662964	8616101.499262594
0.9113426208496094	9157656.65535004
0.914814829826355	9699696.564244097
0.9183048605918884	9526981.477423685
0.9218124747276306	10912836.90339291
0.925337553024292	9649096.589059463
0.9288799166679382	3836687.4013092145
0.9324395060539246	5390421.624842411
0.9360161423683167	6831146.75629853
0.9396095871925354	9519810.240200471
0.943219780921936	6883332.359986126
0.9468464851379395	6232472.076310559
0.9504896402359009	6891182.442400978
0.9541489481925964	9043020.834130935
0.9578243494033813	10018595.756792309
0.9615156054496765	7645003.863917502
0.9652225375175476	8218839.5914722085
0.9689450263977051	9439495.312788922
0.9726828336715698	15216625.112522274
0.9764357805252075	15354956.017399516
0.9802037477493286	15600465.459336974
0.983986496925354	17662801.050372384
0.9877838492393494	19560184.150825325
0.9915955662727356	21863210.309916493
0.9954215884208679	23137196.62777171
0.9992615580558777	23374888.010761134
1.0031154155731201	24313165.435482092
1.0069829225540161	26751047.815484516
1.0108637809753418	28998013.455828216
1.0147579908370972	31613158.724093933
1.018665075302124	33096468.09842754
1.022585153579712	34136206.05156724
1.0265177488327026	34951862.533985585
1.0304628610610962	36720987.601090714
1.0344202518463135	39163603.13939695
1.0383895635604858	40832595.60528159
1.0423706769943237	41945194.302871235
1.0463634729385376	43089628.27663993
1.0503677129745483	43952514.883027345
1.0543830394744873	45414051.0731339
1.058409333229065	46901171.14332983
1.0624464750289917	48479257.26012054
1.0664942264556885	48764186.45438136
1.0705522298812866	48352870.86534543
1.0746204853057861	49814613.46474678
1.0786986351013184	50047231.52944714
1.0827864408493042	50662084.58558353
1.086883783340454	48815490.878177814
1.0909905433654785	41125592.673062906
1.0951062440872192	31426161.82901966
1.0992310047149658	25494011.023942098
1.10336434841156	12623753.322852943
1.1075061559677124	13056254.294214964
1.1116561889648438	7151706.477033382
1.115814208984375	6589627.533805377
1.1199802160263062	6434285.840846818
1.124153733253479	3527822.7647914565
1.1283347606658936	9573600.083516428
1.1325229406356812	4386384.686048359
1.1367181539535522	9544105.077591266
1.1409201622009277	12481638.144969637
1.145128846168518	9295226.002418922
1.1493438482284546	12512842.727043727
1.1535650491714478	4362442.123251088
1.1577922105789185	6615967.185806792
1.1620250940322876	6494262.444192488
1.1662636995315552	9015705.111421933
1.170507550239563	8637359.902767811
1.174756646156311	12710244.670588475
1.1790107488632202	17179015.49817934
1.1832695007324219	25437643.23919429
1.1875330209732056	29086389.819218494
1.191800832748413	32797028.694647983
1.1960728168487549	41658042.275194705
1.2003488540649414	42761781.56330105
1.2046287059783936	48742540.37807127
1.2089121341705322	49156873.993081115
1.2131990194320679	50761833.62626279
1.2174891233444214	56346621.8015261
1.2217823266983032	60002008.02532734
1.2260783910751343	63481677.53453513
1.230377197265625	64859787.386556655
1.2346785068511963	67428118.12961167
1.238982081413269	69351321.7648838
1.2432878017425537	66934963.659205236
1.2475954294204712	71319746.00689879
1.2519049644470215	66441766.79778912
1.256216049194336	75389432.40114063
1.2605286836624146	79235639.69539133
1.2648425102233887	78918990.25530247
1.2691574096679688	80918215.3187835
1.2734732627868652	80641978.42836528
1.2777899503707886	81453990.74437882
1.2821072340011597	75410630.26926354
1.2864248752593994	73895906.24936
1.2907428741455078	64909207.40019343
1.2950609922409058	64349027.40214726
1.2993791103363037	62611503.30815604
1.303696870803833	63395036.227792814
1.3080145120620728	62568096.22243469
1.3123314380645752	58038685.17431575
1.3166478872299194	58288990.33076833
1.3209635019302368	54883767.17805832
1.3252781629562378	35736902.112059906
1.3295916318893433	23209200.67542843
1.3339040279388428	5548501.955817208
1.3382149934768677	1192786.6875750555
1.3425244092941284	425247.10930150613
1.3468321561813354	716713.976303648
1.3511382341384888	113025.91475473378
1.3554422855377197	208493.4392740355
1.3597444295883179	246336.12362671224
1.3640443086624146	265616.8926096028
1.3683418035507202	219958.2372617813
1.3726370334625244	494772.5322473223
1.3769296407699585	483484.62061706046
1.381219506263733	92668.6104159432
1.3855066299438477	56030.88210604656
1.3897908926010132	156452.61584989537
1.3940720558166504	341520.8458741003
1.3983501195907593	287894.53816990723
1.4026249647140503	773129.9856499651
1.4068963527679443	1090035.8186126284
1.4111642837524414	284450.7765037668
1.4154287576675415	247130.35106523143
1.419689416885376	322269.701138557
1.4239463806152344	300447.5544709248
1.4281994104385376	819444.0828912959
1.4324485063552856	532514.7436120786
1.436693549156189	679449.256737628
1.440934419631958	1045313.5923041878
1.4451709985733032	1405043.944444178
1.449403166770935	2166038.539190374
1.453631043434143	2478529.020107183
1.4578542709350586	3410071.7217906765
1.4620729684829712	3864736.31620662
1.4662868976593018	3955853.782552231
1.4704961776733398	3821959.048979114
1.4747005701065063	4267821.216700442
1.4788999557495117	3958422.4645999493
1.4830944538116455	4423782.8889914695
1.4872838258743286	4421664.917986823
1.491468071937561	4149764.300120704
1.4956470727920532	4900706.949202352
1.4998208284378052	7344978.667578256
1.5039892196655273	9856333.458861474
1.5081522464752197	8880924.428674476
1.5123097896575928	9754537.369516833
1.5164618492126465	13053187.788576048
1.5206083059310913	15194976.666501883
1.5247491598129272	18141475.806176465
1.5288842916488647	18644830.77268743
1.5330137014389038	21436077.743645974
1.5371372699737549	22685981.96116641
1.541254997253418	24640980.17577053
1.545366883277893	26584945.18827514
1.5494728088378906	29123101.52634514
1.5535727739334106	30481847.439204924
1.5576666593551636	31822121.97454669
1.561754584312439	35571796.003865264
1.5658363103866577	37334739.513211764
1.5699119567871094	38398598.31211738
1.5739814043045044	37479478.39276746
1.5780447721481323	38291739.11647644
1.582101821899414	39410830.201517165
1.5861525535583496	40629097.67002323
1.5901970863342285	39464710.47349455
1.5942351818084717	38056098.43732993
1.5982669591903687	37815333.49845247
1.6022924184799194	35852260.32519407
1.606311559677124	33302235.96983552
1.6103241443634033	32276534.22487211
1.6143304109573364	30583457.718723573
1.6183301210403442	27602904.524050735
1.6223233938217163	24453097.878509488
1.6263102293014526	22071328.603641454
1.6302905082702637	20018588.19984507
1.634264349937439	21982272.53874179
1.638231635093689	28049892.145679373
1.6421923637390137	26724752.387769297
1.646146535873413	18175754.491202988
1.6500942707061768	18341317.51936532
1.6540353298187256	24188742.721612792
1.6579699516296387	23312946.74434287
1.661897897720337	22336045.79763685
1.6658192873001099	12781511.325976294
1.6697341203689575	9199388.23564511
1.6736423969268799	16374750.212094342
1.677544116973877	15251898.736622905
1.6814392805099487	14976967.843923783
1.6853278875350952	14069687.937864427
1.6892099380493164	12100112.162067613
1.6930854320526123	9778276.787248027
1.696954369544983	7270664.628118921
1.7008168697357178	8418445.449763883
1.7046726942062378	8302654.523500231
1.708522081375122	10619444.681571629
1.712364912033081	11735850.900372867
1.7162011861801147	13284584.02168246
1.7200311422348022	13987079.54371335
1.723854422569275	12709431.378956325
1.7276713848114014	11656164.47007542
1.731481909751892	10737373.813861933
1.7352858781814575	10123792.204806168
1.7390835285186768	9538638.912172157
1.7428747415542603	8815870.753886122
1.7466596364974976	8209537.071590912
1.7504380941390991	7704284.904134442
1.7542102336883545	5359805.817726724
1.7579760551452637	4972858.928013698
1.7617355585098267	5184325.6450109575
1.7654887437820435	4446131.551239906
1.7692357301712036	3331818.1729002045
1.7729763984680176	2959897.199229992
1.776710867881775	1912408.857144317
1.7804391384124756	1717335.9829453721
1.7841613292694092	1761480.0851734413
1.7878772020339966	1163223.8828293758
1.7915871143341064	926626.4318934089
1.7952908277511597	955281.3447606557
1.7989884614944458	1132158.8567328798
1.8026801347732544	510210.66044709063
1.806365728378296	315975.1540547355
1.8100452423095703	259486.44096252866
1.8137187957763672	200168.07978225913
1.817386507987976	203394.68964132547
1.8210482597351074	202152.85554680013
1.8247040510177612	197035.60431399857
1.828354001045227	155684.17959586406
1.8319982290267944	183904.49553424332
1.8356364965438843	169736.80223868333
1.8392690420150757	256608.4688510085
1.8428958654403687	721733.3751933785
1.8465168476104736	982557.742341638
1.8501322269439697	579547.264299687
1.8537418842315674	318153.1126312781
1.8573459386825562	478051.4834128889
1.860944390296936	452754.0566213013
1.864537239074707	320868.91996687785
1.8681244850158691	424231.60350033955
1.871706247329712	283773.5967642353
1.8752825260162354	501509.61891091353
1.8788533210754395	1294857.2627190799
1.8824186325073242	1454781.5593897987
1.8859784603118896	1025391.826058765
1.8895330429077148	971420.7097787552
1.8930821418762207	1709198.5443200467
1.8966259956359863	2046221.431342301
1.9001644849777222	610921.7864284375
1.9036977291107178	361765.5424745042
1.9072256088256836	886784.2717317035
1.9107483625411987	694971.0725047049
1.9142658710479736	277445.61121975654
1.9177782535552979	222068.62935183884
1.9212853908538818	149446.46235244896
1.9247875213623047	180763.32093911496
1.9282845258712769	228831.60159369724
1.9317764043807983	275760.2354410585
1.9352631568908691	372144.1296067252
1.9387450218200684	474467.15146290435
1.942221760749817	593991.292288692
1.9456936120986938	527546.1755952031
1.9491604566574097	688465.3996561158
1.952622413635254	656073.3894699523
1.956079363822937	391474.6697171137
1.959531545639038	494156.0816331345
1.962978720664978	794442.0901989227
1.966421127319336	1301266.0438471742
1.9698586463928223	1774163.6257303879
1.9732913970947266	1652286.4018417604
1.9767193794250488	1448255.9876459914
1.9801424741744995	1587999.7982794323
1.9835609197616577	2517391.6957654036
1.9869745969772339	3023816.1495811073
1.990383505821228	2438925.3306658226
1.9937876462936401	2390374.3860096876
1.9971871376037598	2844064.2832628083
2.000581979751587	3275371.5496449727
2.003972291946411	3049241.4012671337
2.007357597351074	3369791.066558883
2.0107386112213135	4689397.616797807
2.0141148567199707	4755606.0079545155
2.017486572265625	4383122.571584176
2.0208535194396973	4806339.6576665435
2.0242159366607666	4997189.660109128
2.027573823928833	5221497.166710737
2.0309269428253174	5500167.7544982275
2.034275770187378	5733212.187802562
2.0376198291778564	6129353.694511392
2.040959596633911	6484057.233025599
2.044294595718384	7051496.520323603
2.0476250648498535	7955529.553150037
2.0509510040283203	7833746.486882743
2.054272413253784	7555917.325135987
2.057589530944824	8002256.314394381
2.0609018802642822	8401709.595369602
2.0642096996307373	8394627.214211823
2.0675129890441895	8491427.499551829
2.0708119869232178	8531165.39334026
2.074106216430664	8411796.199170457
2.0773961544036865	8314315.785903931
2.080681324005127	8315089.6858138135
2.0839622020721436	8317743.135261393
2.087238311767578	8361307.756293121
2.090510129928589	8372635.437213894
2.0937774181365967	8299236.833445611
2.0970399379730225	8246990.554684655
2.1002981662750244	8126284.451983612
2.1035518646240234	7964449.548673055
2.1068007946014404	7807679.543607977
2.1100454330444336	7739482.646806828
2.1132853031158447	7728452.107653019
2.116520881652832	7649633.228886427
2.1197516918182373	7554615.750310353
2.1229779720306396	7495360.40694357
2.12619948387146	7428063.096098661
2.1294167041778564	7338571.532147669
2.132629156112671	7276243.534421232
2.1358368396759033	7108754.940431752
2.139039993286133	6925588.893407792
2.1422386169433594	6685111.293644428
2.145432472229004	6476658.08133483
2.1486217975616455	6379076.804189858
2.151806354522705	6139927.480297732
2.1549863815307617	6103734.2291752
2.1581614017486572	6078905.746418585
2.16133189201355	5873917.599645138
2.1644976139068604	5766066.4587835455
2.167658567428589	5634374.847272394
2.1708147525787354	5527408.732085842
2.173966407775879	5401480.938525968
2.1771130561828613	5190676.232258983
2.1802549362182617	4916688.825090439
2.183391809463501	4691229.108252131
2.1865241527557373	4426495.479073834
2.1896514892578125	3938242.0587712894
2.1927738189697266	3188077.241542736
2.1958916187286377	2508163.1216696585
2.1990041732788086	1996080.1159657252
2.2021119594573975	1603498.51883962
2.2052149772644043	1474069.1561347048
2.208312749862671	1679824.111659886
2.2114057540893555	2033746.8142520501
2.214493751525879	2250116.0698852753
2.217576742172241	2206324.083446314
2.2206547260284424	2034913.9582592966
2.2237277030944824	1903394.8988140686
2.2267956733703613	1745312.0399002796
2.2298583984375	1624300.7836328465
2.2329163551330566	1551065.836859366
2.235969066619873	1463898.2448373314
2.2390167713165283	1359947.9361489408
2.2420592308044434	1160571.860369494
2.2450966835021973	895970.3320479478
2.248128890991211	868880.3757158857
2.2511560916900635	1041098.5754424232
2.254178285598755	1070978.069679417
2.257194995880127	1036190.6737122948
2.260206699371338	1024794.4343355611
2.2632133960723877	976189.9045810174
2.266214609146118	976583.0190600324
2.2692108154296875	1084052.0078553287
2.2722020149230957	1224841.717191692
2.2751877307891846	1281046.4626740566
2.278168201446533	1208057.2117996255
2.2811436653137207	1088663.840138012
2.284113883972168	994678.7786105913
2.287078857421875	928353.7217267172
2.290038824081421	878831.5615600806
2.2929933071136475	873995.7745342721
2.295942783355713	895006.9727316119
2.298887014389038	903933.7817060938
2.301826238632202	975678.7214113167
2.304760217666626	1238219.2816793458
2.3076889514923096	1665409.4051285873
2.310612440109253	1999920.1606844657
2.3135311603546143	1872969.4125026804
2.3164443969726562	1217660.4853464866
2.319352865219116	722792.3303093374
2.322256088256836	720796.797068333
2.3251543045043945	761856.0490765296
2.328047275543213	712131.2070133272
2.330935478210449	715619.729450805
2.3338186740875244	722271.2658332926
2.3366971015930176	693998.0881718368
2.3395702838897705	647946.3446891241
2.3424389362335205	595443.5444215816
2.3453025817871094	570006.509099366
2.348161458969116	612755.0455070867
2.351015567779541	732395.5641161108
2.353865146636963	894661.5693805019
2.3567099571228027	1065143.8898458672
2.3595502376556396	1246416.3574984022
2.3623859882354736	1387167.3480250943
2.3652172088623047	1275054.453324826
2.368043899536133	862730.8515856013
2.370866537094116	541267.3701913499
2.3736846446990967	504640.2523547737
2.3764986991882324	626541.1829866435
2.3793084621429443	750846.1910727086
2.3821144104003906	825820.904698204
2.384916305541992	890975.2191414578
2.387714147567749	981525.0141260568
2.3905084133148193	1056291.030859473
2.393299102783203	1077437.4885273892
2.3960859775543213	1088302.4202966746
2.398869514465332	1145680.293819712
2.4016497135162354	1161526.973740169
2.4044265747070312	1153171.2669019953
2.407200336456299	1219882.6792739213
2.409970998764038	1389467.7596580067
2.4127390384674072	1551550.8372452895
2.415503978729248	1558379.621664881
2.418266534805298	1497836.3892199197
2.4210267066955566	1523420.2566458255
2.4237842559814453	1571444.3385684039
2.426539897918701	1689259.930315711
2.429293394088745	1894914.1537032793
2.4320452213287354	2071576.4051320492
2.4347951412200928	2047989.2047310944
2.4375438690185547	1998359.6977138813
2.440291166305542	2204180.760496252
2.443037271499634	2160824.4593604226
2.445782423019409	1910672.4853083002
2.4485268592834473	1703967.7646225141
2.451270818710327	1700932.8085565798
2.454014539718628	1854483.4021930075
2.4567582607269287	2010927.6888735068
2.4595019817352295	1998269.4846170272
2.4622461795806885	1980312.489417578
2.4649908542633057	1877691.988752915
2.4677364826202393	1688006.1259757613
2.4704833030700684	1461186.4995086535
2.473231554031372	1258374.0183476557
2.4759814739227295	1103086.4363131835
2.4787333011627197	1082885.2746685978
2.481487512588501	1147006.286848158
