#wavelength	surface flux
0.7	27723082.16625684
0.7001166666666666	27916804.716898948
0.7002333527777778	28021586.821380273
0.700350058336574	28126386.38954563
0.7004667833462966	28231203.424305543
0.7005835278101878	28336037.92857154
0.7007002917314895	28440889.905254748
0.7008170751134447	28545759.357267383
0.7009338779592968	28650646.287521973
0.7010507002722901	28657404.803498957
0.7011675420556689	28544727.416177608
0.701284403312678	28432031.24929189
0.7014012840465635	28319316.29971153
0.7015181842605713	28206582.564306255
0.701635103957948	28093830.039945167
0.701752043141941	27981058.7234967
0.701869001815798	27868268.611828662
0.7019859799827672	27697522.893489353
0.7021029776460976	27486427.961230375
0.7022199948090387	27275297.84648242
0.7023370314748403	27064132.5433821
0.7024540876467528	26852932.046064634
0.702571163328027	26641696.348664626
0.7026882585219152	26430425.44531449
0.7028053732316688	26219119.33014743
0.7029225074605406	26160573.57259781
0.7030396612117841	26161019.43643053
0.7031568344886527	26161465.37457389
0.7032740272944008	26161911.387040272
0.7033912396322832	26162357.473842066
0.7035084715055552	26162803.63499166
0.7036257229174727	26163249.870501447
0.7037429938712924	26163696.18038382
0.7038602843702709	26356501.21353335
0.7039775944176659	26581963.81535436
0.7040949240167356	26807463.994275764
0.7042122731707383	27033001.756560206
0.7043296418829335	27258577.108471822
0.7044470301565806	27484190.056275386
0.70456443799494	27709840.60623674
0.7046818654012724	27935528.76462323
0.7047993123788394	27858764.92778546
0.7049167789309024	27781641.176723976
0.7050342650607243	27704504.571703862
0.7051517707715678	27627355.110582948
0.7052692960666963	27550192.791218553
0.705386840949374	27473017.61146763
0.7055044054228656	27395829.569186624
0.7056219894904361	27356426.85410241
0.7057395931553511	27557221.05743714
0.705857216420877	27758048.726472586
0.7059748592902804	27958909.866786093
0.7060925217668288	28159804.483956516
0.70621020385379	28360732.583563104
0.7063279055544321	28561694.171186037
0.7064456268720246	28762689.252407216
0.7065633678098366	28937065.755781982
0.7066811283711383	29038071.01304406
0.7067989085592001	29139093.10451568
0.7069167083772933	29240132.03300248
0.7070345278286895	29341187.801310763
0.707152366916661	29442260.412247114
0.7072702256444803	29543349.868618507
0.7073881040154211	29644456.173232764
0.7075060020327569	29647726.56397313
0.7076239196997625	29508489.883443866
0.7077418570197124	29369229.996801317
0.7078598139958823	29229946.900177673
0.7079777906315483	29090640.589704454
0.7080957869299869	28951311.061512932
0.7082138028944751	28811958.31173345
0.7083318385282908	28672582.33649557
0.7084498938347124	28604907.170800965
0.708567968817018	28598029.831615895
0.7086860634784875	28591151.34620762
0.7088041778224007	28584271.714385107
0.7089223118520377	28577390.935957298
0.7090404655706796	28570509.010733087
0.709158638981608	28563625.93852133
0.709276832088105	28556741.719130874
0.7093950448934531	28659810.545660183
0.7095132774009353	28815334.891295053
0.7096315296138355	28970885.157654263
0.7097498015354378	29126461.34905782
0.7098680931690269	29282063.469826464
0.7099864045178884	29437691.524282098
0.7101047355853081	29593345.516746774
0.7102230863745722	29749025.451543428
0.7103414568889679	29583498.307173498
0.7104598471317828	29344951.86322589
0.7105782571063047	29106365.661537804
0.7106966868158224	28867739.695482783
0.710815136263625	28629073.958433468
0.7109336054530023	28390368.44376116
0.7110520943872445	28151623.144836493
0.7111706030696424	27912838.055028528
0.7112891315034873	27969224.597944953
0.7114076796920712	28039705.92615352
0.7115262476386865	28110199.00125012
0.7116448353466263	28180703.825192522
0.711763442819184	28251220.399938952
0.711882070059654	28321748.727447905
0.7120007170713306	28392288.809678063
0.7121193838575091	28479256.766125448
0.7122380704214853	28737455.121046893
0.7123567767665555	28995696.50902723
0.7124755028960166	29253980.937239025
0.7125942488131658	29512308.412855323
0.7127130145213015	29770678.943051603
0.7128318000237216	30029092.535002116
0.7129506053237256	30287549.195884988
0.7130694304246129	30460930.268522743
0.7131882753296837	30336735.4017188
0.7133071400422386	30212519.835770357
0.7134260245655789	30088283.567227673
0.7135449289030065	29964026.592640195
0.7136638530578235	29839748.90855702
0.7137827970333332	29715450.511526313
0.7139017608328388	29591131.398096133
0.7140207444596443	29508480.036805335
0.7141397479170543	29500182.996809155
0.7142587712083737	29491884.573972993
0.7143778143369084	29483584.768066347
0.7144968773059646	29475283.578858715
0.7146159601188489	29466981.006119553
0.7147350627788687	29458677.049618267
0.7148541852893318	29450371.70912423
0.7149733276535467	29536583.166030053
0.7150924898748222	29718119.013257224
0.715211671956468	29899685.11645897
0.7153308739017941	30081281.48067806
0.715450095714111	30262908.110957764
0.71556933739673	30444565.01234254
0.7156885989529628	30626252.189877525
0.7158078803861218	30807969.648609035
0.7159271816995193	30804414.72180642
0.7160465028964692	30692098.094931416
0.7161658439802853	30579762.748618606
0.7162852049542819	30467408.6797481
0.7164045858217744	30355035.88519938
0.716523986586078	30242644.361851614
0.7166434072505089	30130234.106583346
0.716762847818384	30017805.116272494
0.7168823082930204	30102911.726144087
0.7170017886777359	30246152.166080914
0.7171212889758488	30389416.4794243
0.7172408091906781	30532704.67015329
0.7173603493255433	30676016.742247444
0.7174799093837642	30819352.699686866
0.7175994893686615	30962712.54645259
0.7177190892835562	31106096.28652604
0.7178387091317702	31296289.844079386
0.7179583489166254	31491211.60561241
0.7180780086414448	31686165.854105834
0.7181976883095517	31881152.594974004
0.7183173879242699	32076171.83363234
0.718437107488924	32271223.575497158
0.7185568470068389	32466307.8259857
0.7186766064813399	32655576.99910901
0.7187963859157535	32698675.044922326
0.7189161853134061	32741780.273743276
0.719036004677625	32784892.68676903
0.7191558440117378	32828012.285196934
0.7192757033190732	32871139.07022463
0.7193955826029597	32914273.043049783
0.7195154818667269	32957414.204870444
0.7196354011137046	32971630.08715042
0.7197553403472235	32852638.076385774
0.7198752995706147	32733626.23361938
0.7199952787872098	32614594.55554578
0.720115278000341	32495543.038859174
0.7202352972133411	32376471.680253103
0.7203553364295432	32257380.47642078
0.7204753956522815	32138269.42405431
0.7205954748848902	32020721.965207748
0.7207155741307044	31906645.8203353
0.7208356933930594	31792550.662772235
0.7209558326752915	31678436.48934955
0.7210759919807375	31564303.29689781
0.7211961713127342	31450151.082247477
0.7213163706746197	31335979.84222785
0.7214365900697322	31221789.573668342
0.7215568295014103	31294658.534047022
0.721677088972994	31590755.51996621
0.7217973684878227	31886901.85538256
0.7219176680492374	32183097.548521828
0.7220379876605789	32479342.60760977
0.722158327325189	32775637.040874343
0.7222786870464099	33071980.8565443
0.7223990668275843	33368374.062850326
0.7225194666720555	33498276.266327005
0.7226398865831676	33510168.768167544
0.7227603265642646	33522063.25209169
0.722880786618692	33533959.718429856
0.7230012667497951	33545858.1675124
0.7231217669609201	33557758.59966979
0.7232422872554135	33569661.01523253
0.7233628276366229	33581565.41453122
0.7234833881078956	33382269.68879008
0.7236039686725803	33102755.456934307
0.7237245693340255	32823194.639373668
0.7238451900955812	32543587.228342917
0.7239658309605971	32263933.216077317
0.7240864919324239	31984232.59480931
0.7242071730144127	31704485.35677107
0.724327874209915	31424691.494193748
0.7244485955222832	31602175.854688704
0.7245693369548704	31855304.59704201
0.7246900985110294	32108475.527518664
0.7248108801941148	32361688.653151073
0.7249316820074803	32614943.98097024
0.7250525039544815	32868241.518011123
0.7251733460384739	33121581.27130822
0.7252942082628137	33374300.011661988
0.7254150906308574	33242760.790388916
0.7255359931459625	33111199.64591229
0.7256569158114868	32979616.574578207
0.7257778586307888	32848011.57273217
0.7258988216072273	32716384.636719197
0.7260198047441617	32584735.7628837
0.7261408080449525	32453064.94756901
0.72626183151296	32321697.024688657
0.7263828751515454	32192465.93918518
0.7265039389640706	32063213.315167475
0.726625022953898	31933939.149045687
0.7267461271243904	31804643.437229488
0.7268672514789111	31675326.176128067
0.7269883960208241	31545987.36214991
0.7271095607534942	31416626.99170267
0.7272307456802866	31249574.821220104
0.7273519508045666	30980738.397958677
0.7274731761297006	30711857.168626837
0.7275944216590555	30442931.12575678
0.7277156873959987	30173960.261879485
0.7278369733438982	29904944.56952444
0.727958279506122	29635884.04122139
0.7280796058860397	29366778.66949663
0.7282009524870207	29118535.471521977
0.7283223193124353	28901174.717334524
0.7284437063656539	28683777.736355156
0.7285651136500483	28466344.522545267
0.7286865411689898	28248875.06986686
0.7288079889258514	28031369.372279145
0.7289294569240056	27813827.42374233
0.7290509451668262	27596249.218213845
0.7291724536576875	27620647.480300613
0.7292939823999636	27845583.40822791
0.7294155313970303	28070556.82547698
0.7295371006522632	28295567.73829553
0.7296586901690385	28520616.152932707
0.7297802999507332	28745702.07563889
0.7299019300007252	28970825.51266611
0.7300235803223919	29195986.47026556
0.7301452509191123	29302284.464678057
0.7302669417942654	29353719.341726907
0.7303886529512311	29405162.791255284
0.7305103843933897	29456614.814691927
0.7306321361241218	29508075.413465768
0.7307539081468093	29559544.589006163
0.7308757004648336	29611022.342742372
0.7309975130815778	29662508.676104266
0.7311193460004248	29753530.6477977
0.7312411992247582	29853516.210983194
0.7313630727579622	29953518.438429195
0.7314849666034219	30053537.3329132
0.7316068807645224	30153572.897212896
0.7317288152446498	30253625.13410669
0.7318507700471907	30353694.04637335
0.7319727451755319	30453779.63679201
0.732094740633061	30636662.95723828
0.7322167564231665	30823303.587285258
0.7323387925492371	31009975.324103918
0.7324608490146619	31196678.172878664
0.732582925822831	31383412.138794918
0.7327050229771347	31570177.22703861
0.7328271404809642	31756973.442797203
0.7329492783377112	31909565.07465375
0.7330714365507675	31725608.812392715
0.7331936151235259	31541621.89075468
0.7333158140593796	31357604.30462992
0.7334380333617229	31173556.048907187
0.7335602730339499	30989477.118475083
0.7336825330794556	30805367.508221205
0.7338048135016354	30621227.213032637
0.7339271143038857	30352231.28260631
0.734049435489603	29798968.78832024
0.7341717770621846	29245614.083618354
0.7342941390250283	28692167.153132636
0.7344165213815324	28138627.98149205
0.734538924135096	27584996.553322047
0.7346613472891185	27031272.85324807
0.734783790847	26477456.865890555
0.7349062548121412	25925398.9805748
0.7350287391879431	25376519.751503922
0.7351512439778078	24827549.042560406
0.7352737691851374	24278486.838499397
0.735396314813335	23729333.124070555
0.7355188808658037	23180087.884023555
0.7356414673459482	22630751.103102088
0.7357640742571725	22081322.76605085
0.7358867016028818	21786302.145475835
0.7360093493864824	21742573.35239831
0.7361320176113801	21698837.271188665
0.736254706280982	21655093.900632154
0.7363774153986956	21611343.239513822
0.7365001449679286	21567585.28661873
0.7366228949920899	21523820.040731452
0.7367456654745885	21480047.500636525
0.7368684564188344	21364617.15443604
0.7369912678282374	21208672.211202558
0.7371140997062088	21052701.277145136
0.7372369520561599	20896704.34793189
0.7373598248815024	20740681.419230796
0.7374827181856494	20584632.48670799
0.7376056319720137	20428557.54602975
0.7377285662440091	20272456.592861377
0.7378515210050496	20201419.530644547
0.7379744962585505	20155971.59360612
0.738097492007927	20110516.08191153
0.7382205082565949	20065052.994298358
0.738343545007971	20019582.32950392
0.7384666022654723	19974104.086265307
0.7385896800325165	19928618.263319556
0.7387127783125219	19883124.859403256
0.7388358971089073	19846612.603173144
0.7389590364250921	19810995.853488598
0.7390821962644963	19775373.16767908
0.7392053766305403	19739744.54475531
0.7393285775266454	19704109.983727694
0.7394517989562333	19668469.48360654
0.7395750409227259	19632823.043402087
0.7396983034295463	19601175.553607013
0.739821586480118	19658614.58074327
0.7399448900778645	19716063.181050606
0.7400682142262109	19773521.356124833
0.740191558928582	19830989.10756151
0.7403149241884034	19888466.43695672
0.7404383100091014	19945953.345906835
0.7405617163941028	20003449.83600841
0.7406851433468352	20010539.048973292
0.7408085908707264	19786984.43429488
0.7409320589692048	19563392.560514122
0.7410555476456997	19339763.42142089
0.7411790569036406	19116097.01080464
0.7413025867464579	18892393.322453223
0.7414261371775823	18668652.350153685
0.7415497082004452	18444874.08769227
0.7416732998184786	18259797.48186438
0.741796912035115	18157792.71126905
0.7419205448537874	18055770.939878643
0.7420441982779297	17953732.164859675
0.742167872310976	17851676.38337811
0.7422915669563612	17749603.592599634
0.7424152822175206	17647513.78968939
0.7425390180978901	17545406.97181206
0.7426627746009065	17432906.415438548
0.7427865517300065	17307737.143388614
0.7429103494886282	17182547.009793207
0.7430341678802096	17057336.011175632
0.7431580069081896	16932104.1440583
0.7432818665760077	16806851.40496293
0.7434057468871037	16681577.790411152
0.7435296478449182	16556283.296923688
0.7436535694528923	16448458.394979393
0.7437775117144678	16352588.28812987
0.7439014746330868	16256702.20292935
0.7440254582121922	16160800.136714546
0.7441494624552276	16064882.086822003
0.7442734873656368	15968948.050587831
0.7443975329468645	15872998.025347542
0.7445215992023557	15777032.008436393
0.7446456861355559	15664736.818629581
0.7447697937499119	15546413.571123084
0.7448939220488703	15428070.603075365
0.7450180710358784	15309707.91119974
0.7451422407143843	15191325.492208788
0.7452664310878367	15072923.342814561
0.7453906421596846	14954501.459728895
0.7455148739333779	14836059.839662677
0.7456391264123667	14726602.007714927
0.7457633996001021	14618565.547198195
0.7458876935000356	14510511.080604516
0.7460120081156189	14402438.604933279
0.7461363434503048	14294348.117182711
0.7462606995075466	14186239.614350755
0.7463850762907978	14078113.093435155
0.7465094738035127	13969861.847486407
0.7466338920491467	13833679.400885878
0.746758331031155	13697474.257210784
0.7468827907529935	13561246.41267857
0.7470072712181189	13424995.863505598
0.7471317724299886	13288722.605907738
0.7472562943920602	13152426.636100374
0.7473808371077922	13016107.95029792
0.7475054005806435	12880318.791175632
0.7476299848140736	12747908.622149797
0.7477545898115426	12615476.384762429
0.7478792155765113	12483022.075335465
0.7480038621124406	12350545.690190367
0.7481285294227926	12218047.225647775
0.7482532175110298	12085526.67802762
0.7483779263806148	11952984.043649714
0.7485026560350116	11823523.021684876
0.7486274064776842	11702440.478417382
0.748752177712097	11581337.75472623
0.7488769697417158	11460214.847247537
0.749001782570006	11339071.752617747
0.7491266162004343	11217908.467472218
0.7492514706364677	11096724.98844578
0.7493763458815739	10975521.312172713
0.7495012419392209	10852858.794926224
0.7496261588128773	10728107.616966182
0.7497510965060128	10603335.647143062
0.7498760550220971	10478542.881991683
0.7500010343646007	10353729.318046093
0.7501260345369949	10228894.951839782
0.750251055542751	10104039.779905913
0.7503760973853414	9979163.798776645
0.7505011600682389	9851840.961801562
0.750626243594917	9722471.213770188
0.7507513479688495	9593079.90411434
0.7508764731935109	9463667.029240169
0.7510016192723765	9334232.585553488
0.7511267862089218	9204776.569459645
0.7512519740066232	9075298.977363074
0.7513771826689577	8945799.805667747
0.7515024121994025	8820066.538770277
0.7516276626014359	8696078.256075716
0.751752933878536	8572069.308667589
0.7518782260341824	8448039.69310152
0.7520035390718548	8323989.405932799
0.7521288729950334	8199918.443716283
0.7522542278071992	8075826.803006054
0.7523796035118337	7951714.4803556455
0.7525050001124189	7829090.881399544
0.7526304176124378	7706775.107894891
0.7527558560153731	7584438.948428144
0.752881315324709	7462082.399601367
0.7530067955439299	7339705.458016409
0.7531322966765205	7217308.120274683
0.7532578187259665	7094890.38297663
0.7533833616957542	6972452.242722364
0.75350892558937	6851367.319960772
0.7536345104103016	6730326.808097814
0.7537601161620366	6609266.122816274
0.7538857428480638	6488185.260753737
0.7540113904718717	6367084.2185476795
0.7541370590369503	6245962.992834614
0.7542627485467898	6124821.58025052
0.7543884590048808	6004665.552487342
0.7545141904147151	5894517.207124739
0.7546399427797842	5784350.503704753
0.7547657161035808	5674165.439167513
0.754891510389598	5563962.010452855
0.7550173256413296	5453740.214500035
0.7551431618622698	5343500.048247916
0.7552690190559135	5233241.508634779
0.7553948972257561	5124458.934296702
0.7555207963752938	5020674.172018235
0.755646716508023	4916872.112279447
0.755772657627441	4813052.752197333
0.7558986197370455	4709216.088888523
0.756024602840335	4605362.119469189
0.7561506069408084	4501490.841054953
0.7562766320419653	4397602.250760887
0.7564026781473054	4296090.113020156
0.75652874526033	4198773.4484317675
0.7566548333845401	4101440.564399231
0.7567809425234375	4004091.4582193904
0.7569070726805247	3906726.1271885755
0.7570332238593047	3809344.568602602
0.7571593960632813	3711946.779756771
0.7572855892959586	3614532.757946127
0.7574118035608413	3523564.9844591497
0.7575380388614347	3438904.508673654
0.7576642952012449	3354229.9228088288
0.7577905725837782	3269541.224513148
0.7579168710125422	3184838.411434267
0.7580431904910444	3100121.4812198416
0.7581695310227928	3015390.431517154
0.7582958926112967	2930645.2599727423
0.7584222752600652	2851297.089265375
0.7585486789726085	2775044.178682799
0.7586751037524372	2698778.559281764
0.7588015496030628	2622500.2289440134
0.7589280165279966	2546209.185551357
0.7590545045307512	2469905.4269848024
0.7591810136148396	2393588.9511251547
0.7593075437837755	2317259.7558527514
0.7594340950410726	2247519.5054899636
0.7595606673902461	2179683.016621667
0.7596872608348112	2111835.2216718243
0.7598138753782836	2043976.1187562314
0.75994051102418	1976105.705990089
0.7600671677760173	1908223.981488539
0.7601938456373134	1840330.9433661862
0.7603205446115863	1772426.5897375182
0.7604472647023548	1711234.1116603804
0.7605740059131385	1650699.7194123645
0.7607007682474575	1590155.2380989147
0.7608275517088319	1529600.666038714
0.7609543563007835	1469036.0015497021
0.7610811820268336	1408461.2429499784
0.7612080288905045	1347876.388557271
0.7613348968953197	1287546.9899488525
0.7614617860448022	1232656.102985975
0.7615886963424764	1177756.0675418624
0.7617156277918667	1122846.8820918952
0.7618425803964988	1067928.5451109747
0.7619695541598982	1013001.0550739053
0.7620965490855914	958064.4104552036
0.7622235651771058	903118.6097290018
0.7623506024379685	850272.6798180533
0.7624776608717082	806662.0441615138
0.7626047404818536	763044.1400656963
0.7627318412719337	719418.9663192711
0.762858963245479	675786.5217105275
0.7629861064060198	632146.8050276784
0.7631132707570876	588499.8150586702
0.7632404563022137	544845.550591373
0.7633676630449308	504341.3714299605
0.7634948909887717	470551.41487118124
0.7636221401372697	436755.82665301947
0.7637494104939593	402954.60583678953
0.7638767020623748	369147.75148380565
0.7640040148460518	335335.2626550578
0.7641313488485262	301517.13841150637
0.7642587040733344	267693.377813876
0.7643860805240132	238976.0915991738
0.7645134782041005	216354.30086120026
0.7646408971171346	193728.73982476103
0.764768337266654	171099.40786149068
0.7648957986561985	148466.30434288576
0.7650232812893079	125829.4286403641
