#wavelength	surface flux
0.7	72266981.19172631
0.7001166666666666	72405037.49703027
0.7002333527777778	73086158.26461889
0.700350058336574	73767392.55233511
0.7004667833462966	74448740.3790984
0.7005835278101878	75130201.7638347
0.7007002917314895	75811776.72546737
0.7008170751134447	76493465.28292686
0.7009338779592968	77175267.45514561
0.7010507002722901	77611994.44824718
0.7011675420556689	77750415.74485116
0.701284403312678	77888860.111671
0.7014012840465635	78027327.55255218
0.7015181842605713	78165818.07134014
0.701635103957948	78304331.67188114
0.701752043141941	78442868.35802221
0.701869001815798	78581428.13361117
0.7019859799827672	78763462.40509379
0.7021029776460976	78975766.74517979
0.7022199948090387	79188106.46932274
0.7023370314748403	79400481.58341962
0.7024540876467528	79612892.09336881
0.702571163328027	79825338.00506933
0.7026882585219152	80037819.32442234
0.7028053732316688	80250336.05732828
0.7029225074605406	80118224.76528262
0.7030396612117841	79853001.09213318
0.7031568344886527	79587733.21503818
0.7032740272944008	79322421.1266305
0.7033912396322832	79057064.81954126
0.7035084715055552	78791664.28640112
0.7036257229174727	78526219.51983869
0.7037429938712924	78260730.51248159
0.7038602843702709	78633434.89166328
0.7039775944176659	79114451.16160564
0.7040949240167356	79595547.60092652
0.7042122731707383	80076724.22298704
0.7043296418829335	80557981.0411515
0.7044470301565806	81039318.06878558
0.70456443799494	81520735.31925723
0.7046818654012724	82002232.80593757
0.7047993123788394	78983840.42296515
0.7049167789309024	75960928.6035705
0.7050342650607243	72937512.96553463
0.7051517707715678	69913593.42489383
0.7052692960666963	66889169.89766441
0.705386840949374	63864242.29984841
0.7055044054228656	60838810.54742783
0.7056219894904361	58282551.78518667
0.7057395931553511	58710615.769466296
0.705857216420877	59138751.097743645
0.7059748592902804	59566957.78190879
0.7060925217668288	59995235.83385506
0.70621020385379	60423585.265476584
0.7063279055544321	60852006.08866951
0.7064456268720246	61280498.31533362
0.7065633678098366	61658192.69073474
0.7066811283711383	61895855.122073926
0.7067989085592001	62133557.163818344
0.7069167083772933	62371298.82256956
0.7070345278286895	62609080.10493073
0.707152366916661	62846901.01750567
0.7072702256444803	63084761.5668991
0.7073881040154211	63322661.75971775
0.7075060020327569	63532930.40424354
0.7076239196997625	63702935.216782875
0.7077418570197124	63872968.363457456
0.7078598139958823	64043029.848989815
0.7079777906315483	64213119.67810325
0.7080957869299869	64383237.85552142
0.7082138028944751	64553384.385969065
0.7083318385282908	64723559.274171904
0.7084498938347124	64638817.27119282
0.708567968817018	64337913.34915836
0.7086860634784875	64036959.27646988
0.7088041778224007	63735955.04476904
0.7089223118520377	63434900.64569665
0.7090404655706796	63133796.07089125
0.709158638981608	62832641.3119897
0.709276832088105	62531436.360628285
0.7093950448934531	62453730.537308216
0.7095132774009353	62482624.84960878
0.7096315296138355	62511523.977628075
0.7097498015354378	62540427.922168694
0.7098680931690269	62569336.68403337
0.7099864045178884	62598250.26402507
0.7101047355853081	62627168.66294676
0.7102230863745722	62656091.88160158
0.7103414568889679	62742611.03661757
0.7104598471317828	62842230.66985547
0.7105782571063047	62941866.90636551
0.7106966868158224	63041519.74891495
0.710815136263625	63141189.20027147
0.7109336054530023	63240875.26320328
0.7110520943872445	63340577.94047887
0.7111706030696424	63440297.2348674
0.7112891315034873	63719063.65460848
0.7114076796920712	64006418.5964371
0.7115262476386865	64293821.43075602
0.7116448353466263	64581272.16554714
0.711763442819184	64868770.80879421
0.711882070059654	65156317.36848206
0.7120007170713306	65443911.85259636
0.7121193838575091	65705106.16472407
0.7122380704214853	65690497.05036378
0.7123567767665555	65675885.50115111
0.7124755028960166	65661271.51668023
0.7125942488131658	65646655.09654529
0.7127130145213015	65632036.24034028
0.7128318000237216	65617414.94765928
0.7129506053237256	65602791.218096144
0.7130694304246129	65575120.08840143
0.7131882753296837	65501834.56125706
0.7133071400422386	65428536.81985814
0.7134260245655789	65355226.86216905
0.7135449289030065	65281904.68615364
0.7136638530578235	65208570.28977562
0.7137827970333332	65135223.67099808
0.7139017608328388	65061864.827784106
0.7140207444596443	65104384.77468451
0.7141397479170543	65353649.87984623
0.7142587712083737	65602956.52919179
0.7143778143369084	65852304.72964578
0.7144968773059646	66101694.48813323
0.7146159601188489	66351125.811580345
0.7147350627788687	66600598.70691472
0.7148541852893318	66850113.18106489
0.7149733276535467	67101627.70723182
0.7150924898748222	67355159.02609937
0.715211671956468	67608732.60018678
0.7153308739017941	67862348.43653673
0.715450095714111	68116006.54219262
0.71556933739673	68369706.92419949
0.7156885989529628	68623449.58960333
0.7158078803861218	68877234.54545179
0.7159271816995193	69043993.950529
0.7160465028964692	69159677.75393905
0.7161658439802853	69275380.837983
0.7162852049542819	69391103.20587426
0.7164045858217744	69506844.86082691
0.716523986586078	69622605.80605534
0.7166434072505089	69738386.04477458
0.716762847818384	69854185.58020031
0.7168823082930204	70078212.73149931
0.7170017886777359	70334111.64671864
0.7171212889758488	70590053.211757
0.7172408091906781	70846037.43372296
0.7173603493255433	71102064.31972598
0.7174799093837642	71358133.87687653
0.7175994893686615	71614246.1122867
0.7177190892835562	71870401.03306934
0.7178387091317702	72237021.1489457
0.7179583489166254	72614786.89615674
0.7180780086414448	72992615.60432594
0.7181976883095517	73370507.28394647
0.7183173879242699	73748461.94551365
0.718437107488924	74126479.59952453
0.7185568470068389	74504560.25647786
0.7186766064813399	74881603.6736548
0.7187963859157535	75231201.17617914
0.7189161853134061	75580856.94495389
0.719036004677625	75930570.98969014
0.7191558440117378	76280343.32010031
0.7192757033190732	76630173.94589935
0.7193955826029597	76980062.87680228
0.7195154818667269	77330010.12252733
0.7196354011137046	77624120.2300052
0.7197553403472235	77660926.6538013
0.7198752995706147	77697739.21200137
0.7199952787872098	77734557.90562782
0.720115278000341	77771382.7357032
0.7202352972133411	77808213.70325027
0.7203553364295432	77845050.80929187
0.7204753956522815	77881894.0548512
0.7205954748848902	77920937.90891887
0.7207155741307044	77964826.25199103
0.7208356933930594	78008721.90978697
0.7209558326752915	78052624.88352588
0.7210759919807375	78096535.17442712
0.7211961713127342	78140452.78371015
0.7213163706746197	78184377.71259478
0.7214365900697322	78228309.96230085
0.7215568295014103	78483375.38120212
0.721677088972994	78990392.01354784
0.7217973684878227	79497493.14866477
0.7219176680492374	80004678.80063815
0.7220379876605789	80511948.98355323
0.722158327325189	81019303.71149899
0.7222786870464099	81526742.9985658
0.7223990668275843	82034266.85884732
0.7225194666720555	82355726.68266423
0.7226398865831676	82545311.89323927
0.7227603265642646	82734928.70134896
0.722880786618692	82924577.11226042
0.7230012667497951	83114257.13124022
0.7231217669609201	83303968.76355654
0.7232422872554135	83493712.01447809
0.7233628276366229	83683486.8892751
0.7234833881078956	83884201.24007893
0.7236039686725803	84089090.3317745
0.7237245693340255	84294013.57165171
0.7238451900955812	84498970.96540262
0.7239658309605971	84703962.5187189
0.7240864919324239	84908988.23729435
0.7242071730144127	85114048.1268229
0.724327874209915	85319142.19299927
0.7244485955222832	85853815.8110167
0.7245693369548704	86443066.08398849
0.7246900985110294	87032414.56533824
0.7248108801941148	87621861.27143645
0.7249316820074803	88211406.21865037
0.7250525039544815	88801049.42335646
0.7251733460384739	89390790.90193008
0.7252942082628137	89980143.88497448
0.7254150906308574	90287535.99734159
0.7255359931459625	90594979.34172747
0.7256569158114868	90902473.92667082
0.7257778586307888	91210019.76071183
0.7258988216072273	91517616.85239175
0.7260198047441617	91825265.21025328
0.7261408080449525	92132964.84284164
0.72626183151296	92417570.74998441
0.7263828751515454	92548412.2289377
0.7265039389640706	92679275.51480412
0.726625022953898	92810160.61121827
0.7267461271243904	92941067.52181521
0.7268672514789111	93071996.2502305
0.7269883960208241	93202946.80010042
0.7271095607534942	93333919.17506208
0.7272307456802866	93472683.21574332
0.7273519508045666	93632458.58890489
0.7274731761297006	93792260.59129526
0.7275944216590555	93952089.22735266
0.7277156873959987	94111944.50151615
0.7278369733438982	94271826.41822559
0.727958279506122	94431734.98192072
0.7280796058860397	94591670.19704333
0.7282009524870207	94810634.95071998
0.7283223193124353	95116908.0325669
0.7284437063656539	95423232.15992685
0.7285651136500483	95729607.34130852
0.7286865411689898	96036033.58521979
0.7288079889258514	96342510.90017244
0.7289294569240056	96649039.2946769
0.7290509451668262	96955618.77724744
0.7291724536576875	97490706.82789502
0.7292939823999636	98215185.66794534
0.7294155313970303	98939785.25447047
0.7295371006522632	99664505.60759315
0.7296586901690385	100389346.74744077
0.7297802999507332	101114308.69414473
0.7299019300007252	101839391.46784167
0.7300235803223919	102564595.08866562
0.7301452509191123	103141072.48494934
0.7302669417942654	103648942.69060285
0.7303886529512311	104156897.54129079
0.7305103843933897	104664937.05112064
0.7306321361241218	105173061.23420174
0.7307539081468093	105681270.10464759
0.7308757004648336	106189563.67657077
0.7309975130815778	106697941.96408987
0.7311193460004248	107278064.78473279
0.7312411992247582	107874507.15719199
0.7313630727579622	108471048.93671314
0.7314849666034219	109067690.13986482
0.7316068807645224	109664430.78321664
0.7317288152446498	110261270.88334264
0.7318507700471907	110858210.45681897
0.7319727451755319	111455249.52022399
0.732094740633061	112230962.48451954
0.7322167564231665	113014844.21009965
0.7323387925492371	113798856.58263406
0.7324608490146619	114582999.62389702
0.732582925822831	115367273.35566704
0.7327050229771347	116151677.79972479
0.7328271404809642	116936212.97785735
0.7329492783377112	117683511.20574485
0.7330714365507675	118063569.88585378
0.7331936151235259	118443691.90907598
0.7333158140593796	118823877.28596827
0.7334380333617229	119204126.02709062
0.7335602730339499	119584438.14300334
0.7336825330794556	119964813.6442688
0.7338048135016354	120345252.5414504
0.7339271143038857	120426409.5219586
0.734049435489603	119504567.9337005
0.7341717770621846	118582572.70517752
0.7342941390250283	117660423.8107836
0.7344165213815324	116738121.22490762
0.734538924135096	115815664.92193265
0.7346613472891185	114893054.87624173
0.734783790847	113970291.06220953
0.7349062548121412	112674780.91140452
0.7350287391879431	110720482.30588558
0.7351512439778078	108765857.98392838
0.7352737691851374	106810907.89125322
0.735396314813335	104855631.97356087
0.7355188808658037	102900030.17655216
0.7356414673459482	100944102.44590661
0.7357640742571725	98987848.7273073
0.7358867016028818	98172042.19243877
0.7360093493864824	98482716.12583129
0.7361320176113801	98793441.8382123
0.736254706280982	99104219.33821203
0.7363774153986956	99415048.63446218
0.7365001449679286	99725929.73559438
0.7366228949920899	100036862.65024371
0.7367456654745885	100347847.38704546
0.7368684564188344	99688458.83143507
0.7369912678282374	98480496.54927984
0.7371140997062088	97272332.94007707
0.7372369520561599	96063967.97027162
0.7373598248815024	94855401.60630727
0.7374827181856494	93646633.81461355
0.7376056319720137	92437664.56162113
0.7377285662440091	91228493.81375301
0.7378515210050496	91354149.50582837
0.7379744962585505	91881495.44268063
0.738097492007927	92408929.27052222
0.7382205082565949	92936451.00400147
0.738343545007971	93464060.65776952
0.7384666022654723	93991758.2464804
0.7385896800325165	94519543.78478861
0.7387127783125219	95047417.28735386
0.7388358971089073	93993492.05276452
0.7389590364250921	92780724.0000004
0.7390821962644963	91567753.81922658
0.7392053766305403	90354581.47675772
0.7393285775266454	89141206.93889758
0.7394517989562333	87927630.17194663
0.7395750409227259	86713851.14220315
0.7396983034295463	85663126.17446862
0.739821586480118	88243985.27802041
0.7399448900778645	90825274.52475101
0.7400682142262109	93406993.98636392
0.740191558928582	95989143.73455101
0.7403149241884034	98571723.84102742
0.7404383100091014	101154734.37752225
0.7405617163941028	103738175.4157715
0.7406851433468352	105557419.91383356
0.7408085908707264	103878982.46000724
0.7409320589692048	102200265.26660608
0.7410555476456997	100521268.28700465
0.7411790569036406	98841991.47457454
0.7413025867464579	97162434.78267519
0.7414261371775823	95482598.16466007
0.7415497082004452	93802481.57387656
0.7416732998184786	92766199.67111221
0.741796912035115	93111497.91881613
0.7419205448537874	93456853.71622795
0.7420441982779297	93802267.0729393
0.742167872310976	94147737.99854377
0.7422915669563612	94493266.50263582
0.7424152822175206	94838852.59481181
0.7425390180978901	95184496.28466961
0.7426627746009065	94801606.0687484
0.7427865517300065	93530446.81020293
0.7429103494886282	92259075.69177969
0.7430341678802096	90987492.67817102
0.7431580069081896	89715697.73406017
0.7432818665760077	88443690.8241235
0.7434057468871037	87171471.91303626
0.7435296478449182	85899040.96546453
0.7436535694528923	84895239.58109877
0.7437775117144678	84075301.2418862
0.7439014746330868	83255226.246285
0.7440254582121922	82435014.57151717
0.7441494624552276	81614666.19480321
0.7442734873656368	80794181.09335998
0.7443975329468645	79973559.24439918
0.7445215992023557	79152800.62513031
0.7446456861355559	78735573.65982106
0.7447697937499119	78466977.89439113
0.7448939220488703	78198337.36300036
0.7450180710358784	77929652.05818793
0.7451422407143843	77660921.97249132
0.7452664310878367	77392147.09844686
0.7453906421596846	77123327.42859034
0.7455148739333779	76854462.95545542
0.7456391264123667	77549116.09560189
0.7457633996001021	78397953.31471631
0.7458876935000356	79246932.00670211
0.7460120081156189	80096052.19513494
0.7461363434503048	80945313.90359959
0.7462606995075466	81794717.15568307
0.7463850762907978	82644261.97497396
0.7465094738035127	83491586.58512664
0.7466338920491467	83721218.69024727
0.746758331031155	83950889.06738563
0.7468827907529935	84180597.72291993
0.7470072712181189	84410344.66323014
0.7471317724299886	84640129.89469713
0.7472562943920602	84869953.42370252
0.7473808371077922	85099815.25662962
0.7475054005806435	85369053.60055417
0.7476299848140736	85880644.70633723
0.7477545898115426	86392321.0773047
0.7478792155765113	86904082.72766748
0.7480038621124406	87415929.67163824
0.7481285294227926	87927861.92343286
0.7482532175110298	88439879.49727
0.7483779263806148	88951982.40736872
0.7485026560350116	89405190.17152114
0.7486274064776842	89698844.96556003
0.748752177712097	89992548.70206405
0.7488769697417158	90286301.38919145
0.749001782570006	90580103.03509967
0.7491266162004343	90873953.6479488
0.7492514706364677	91167853.23590021
0.7493763458815739	91461801.80711657
0.7495012419392209	91502613.84464276
0.7496261588128773	91179448.3197947
0.7497510965060128	90856228.93402563
0.7498760550220971	90532955.67835903
0.7500010343646007	90209628.54381645
0.7501260345369949	89886247.52141795
0.750251055542751	89562812.60218275
0.7503760973853414	89239323.77712747
0.7505011600682389	89020387.73188715
0.750626243594917	88888759.39537038
0.7507513479688495	88757109.12079772
0.7508764731935109	88625436.9045126
0.7510016192723765	88493742.74285807
0.7511267862089218	88362026.6321767
0.7512519740066232	88230288.56881018
0.7513771826689577	88098528.54909968
0.7515024121994025	88371952.53030628
0.7516276626014359	88834351.87248579
0.751752933878536	89296828.28122151
0.7518782260341824	89759381.76935886
0.7520035390718548	90222012.34974442
0.7521288729950334	90684720.03522648
0.7522542278071992	91147504.83865616
0.7523796035118337	91610366.77288662
0.7525050001124189	92136630.83952524
0.7526304176124378	92676754.38567017
0.7527558560153731	93216967.95240544
0.752881315324709	93757271.55473569
0.7530067955439299	94297665.20766652
0.7531322966765205	94838148.92620546
0.7532578187259665	95378722.72536431
0.7533833616957542	95919386.62015633
0.75350892558937	96110110.00843966
0.7536345104103016	96284405.7439376
0.7537601161620366	96458730.52872469
0.7538857428480638	96633084.36764275
0.7540113904718717	96807467.26553373
0.7541370590369503	96981879.227241
0.7542627485467898	97156320.25760865
0.7543884590048808	97320829.55169642
0.7545141904147151	97386035.94014221
0.7546399427797842	97451253.19631931
0.7547657161035808	97516481.32203911
0.754891510389598	97581720.3191132
0.7550173256413296	97646970.18935348
0.7551431618622698	97712230.93457213
0.7552690190559135	97777502.55658165
0.7553948972257561	97792797.76587081
0.7555207963752938	97640307.00670372
0.755646716508023	97487790.8324102
0.755772657627441	97335249.23875424
0.7558986197370455	97182682.22149931
0.756024602840335	97030089.77640821
0.7561506069408084	96877471.89924294
0.7562766320419653	96724828.58576466
0.7564026781473054	96390539.50131784
0.75652874526033	95736591.375337
0.7566548333845401	95082534.25800152
0.7567809425234375	94428368.1311467
0.7569070726805247	93774092.97660445
0.7570332238593047	93119708.77620319
0.7571593960632813	92465215.51176791
0.7572855892959586	91810613.16512185
0.7574118035608413	91262773.51294589
0.7575380388614347	90819398.71887748
0.7576642952012449	90375950.02900988
0.7577905725837782	89932427.43102793
0.7579168710125422	89488830.91261221
0.7580431904910444	89045160.46144325
0.7581695310227928	88601416.06519966
0.7582958926112967	88157597.71155612
0.7584222752600652	86604502.49941698
0.7585486789726085	84413953.7102969
0.7586751037524372	82223039.82971114
0.7588015496030628	80031760.79680768
0.7589280165279966	77840116.55073638
0.7590545045307512	75648107.03062409
0.7591810136148396	73455732.17559183
0.7593075437837755	71262991.92474717
0.7594340950410726	70511760.6626665
0.7595606673902461	70178744.70394613
0.7596872608348112	69845673.24256563
0.7598138753782836	69512546.26927528
0.75994051102418	69179363.77482238
0.7600671677760173	68846125.74995403
0.7601938456373134	68512832.1854146
0.7603205446115863	68179483.07194792
0.7604472647023548	67216521.67198391
0.7605740059131385	66190821.91486221
0.7607007682474575	65164951.207779974
0.7608275517088319	64138909.52224884
0.7609543563007835	63112696.82976784
0.7610811820268336	62086313.101838715
0.7612080288905045	61059758.3099569
0.7613348968953197	60011145.631155394
0.7614617860448022	58513289.48846738
0.7615886963424764	57015183.703086875
0.7617156277918667	55516828.233410254
0.7618425803964988	54018223.037820786
0.7619695541598982	52519368.074699126
0.7620965490855914	51020263.302418046
0.7622235651771058	49520908.679339856
0.7623506024379685	47933854.59227492
0.7624776608717082	45963234.97818413
0.7626047404818536	43992286.927490905
0.7627318412719337	42021010.38545928
0.762858963245479	40049405.29733608
0.7629861064060198	38077471.60836469
0.7631132707570876	36105209.26377641
0.7632404563022137	34132618.20879914
0.7633676630449308	32125221.37470864
0.7634948909887717	30044099.85884604
0.7636221401372697	27962631.489400167
0.7637494104939593	25880816.208557427
0.7638767020623748	23798653.958504215
0.7640040148460518	21716144.68140696
0.7641313488485262	19633288.31943026
0.7642587040733344	17550084.814724207
0.7643860805240132	15694845.326696562
0.7645134782041005	14111740.355289854
0.7646408971171346	12528371.533053918
0.764768337266654	10944738.816014856
0.7648957986561985	9360842.16018911
0.7650232812893079	7776681.521587605
0.7651507851695227	6192256.856212983
0.7652783103003843	4607568.120060993
0.7654058566854343	3679616.282448888
0.7655334243282153	3199273.1555357287
0.7656610132322699	2718849.9714353764
0.765788623401142	2238346.716803889
0.7659162548383754	1757763.3782969052
