#wavelength	surface flux
0.7	162231.2287790844
0.7001166666666666	162494.4520559492
0.7002333527777778	162601.3042450292
0.700350058336574	162708.17424280738
0.7004667833462966	162815.06205225168
0.7005835278101878	162921.9676763312
0.7007002917314895	163028.89111801455
0.7008170751134447	163135.83238027152
0.7009338779592968	163242.7914660721
0.7010507002722901	163349.71779923572
0.7011675420556689	163456.60040199023
0.701284403312678	163563.5008185117
0.7014012840465635	163670.4190517694
0.7015181842605713	163777.35510473262
0.701635103957948	163884.30898037125
0.701752043141941	163991.2806816558
0.701869001815798	164098.2702115574
0.7019859799827672	164340.95773977935
0.7021029776460976	164678.1114721254
0.7022199948090387	165015.32139676058
0.7023370314748403	165352.58752304973
0.7024540876467528	165689.90986035988
0.702571163328027	166027.288418059
0.7026882585219152	166364.72320551868
0.7028053732316688	166702.21423210908
0.7029225074605406	167139.50046160747
0.7030396612117841	167615.3733565852
0.7031568344886527	168091.3255637122
0.7032740272944008	168567.35709620672
0.7033912396322832	169043.46796729026
0.7035084715055552	169519.65819018515
0.7036257229174727	169995.9277781174
0.7037429938712924	170472.2767443147
0.7038602843702709	170621.07479334288
0.7039775944176659	170714.3291441518
0.7040949240167356	170807.59903735254
0.7042122731707383	170900.88447553545
0.7043296418829335	170994.18546129143
0.7044470301565806	171087.5019972117
0.70456443799494	171180.83408588785
0.7046818654012724	171274.1817299122
0.7047993123788394	171665.67236468123
0.7049167789309024	172057.57036234785
0.7050342650607243	172449.533676348
0.7051517707715678	172841.56231756698
0.7052692960666963	173233.65629689262
0.705386840949374	173625.81562521466
0.7055044054228656	174018.0403134254
0.7056219894904361	174366.3765724203
0.7057395931553511	174435.44916757065
0.705857216420877	174504.53327482028
0.7059748592902804	174573.62889608773
0.7060925217668288	174642.7360332921
0.70621020385379	174711.8546883527
0.7063279055544321	174780.98486318905
0.7064456268720246	174850.1265597213
0.7065633678098366	174956.40174608998
0.7066811283711383	175164.92922068402
0.7067989085592001	175373.49144985716
0.7069167083772933	175582.0884394017
0.7070345278286895	175790.72019511132
0.707152366916661	175999.38672278024
0.7072702256444803	176208.08802820355
0.7073881040154211	176416.82411717804
0.7075060020327569	176673.04419928932
0.7076239196997625	176998.40950764675
0.7077418570197124	177323.82904355528
0.7078598139958823	177649.30281605307
0.7079777906315483	177974.83083417994
0.7080957869299869	178300.41310697625
0.7082138028944751	178626.04964348453
0.7083318385282908	178951.74045274913
0.7084498938347124	179052.88254460564
0.708567968817018	178963.61848140208
0.7086860634784875	178874.33954085456
0.7088041778224007	178785.04572048355
0.7089223118520377	178695.73701780927
0.7090404655706796	178606.41343035124
0.709158638981608	178517.07495562852
0.709276832088105	178427.72159116002
0.7093950448934531	178555.49155591585
0.7095132774009353	178786.83837596758
0.7096315296138355	179018.2237538227
0.7097498015354378	179249.64769590742
0.7098680931690269	179481.11020864896
0.7099864045178884	179712.6112984762
0.7101047355853081	179944.1509718184
0.7102230863745722	180175.72923510597
0.7103414568889679	180400.7927381744
0.7104598471317828	180624.4046748112
0.7105782571063047	180848.0538801039
0.7106966868158224	181071.74036026414
0.710815136263625	181295.46412150437
0.7109336054530023	181519.22517003826
0.7110520943872445	181743.02351208017
0.7111706030696424	181966.8591538459
0.7112891315034873	181966.5307102682
0.7114076796920712	181955.50491787994
0.7115262476386865	181944.47728785957
0.7116448353466263	181933.44781990087
0.711763442819184	181922.4165136975
0.711882070059654	181911.38336894312
0.7120007170713306	181900.34838533128
0.7121193838575091	181890.46555588348
0.7122380704214853	181892.61693431623
0.7123567767665555	181894.76867131205
0.7124755028960166	181896.9207669307
0.7125942488131658	181899.07322123196
0.7127130145213015	181901.2260342756
0.7128318000237216	181903.37920612143
0.7129506053237256	181905.53273682922
0.7130694304246129	181905.40195242284
0.7131882753296837	181897.28312094172
0.7133071400422386	181889.16293632204
0.7134260245655789	181881.04139833825
0.7135449289030065	181872.91850676478
0.7136638530578235	181864.79426137608
0.7137827970333332	181856.66866194646
0.7139017608328388	181848.54170825024
0.7140207444596443	181826.13113150516
0.7141397479170543	181778.23867005025
0.7142587712083737	181730.3382265185
0.7143778143369084	181682.42979957943
0.7144968773059646	181634.51338790255
0.7146159601188489	181586.58899015706
0.7147350627788687	181538.65660501196
0.7148541852893318	181490.716231136
0.7149733276535467	181334.3573086171
0.7150924898748222	181068.65354212146
0.715211671956468	180802.90549166471
0.7153308739017941	180537.113149866
0.715450095714111	180271.2765093438
0.71556933739673	180005.3955627148
0.7156885989529628	179739.47030259474
0.7158078803861218	179473.50072159758
0.7159271816995193	178861.2431413546
0.7160465028964692	178045.66008492344
0.7161658439802853	177229.94109798293
0.7162852049542819	176414.08615787808
0.7164045858217744	175598.09524194937
0.716523986586078	174781.968327535
0.7166434072505089	173965.70539196866
0.716762847818384	173149.30641257943
0.7168823082930204	172558.97042299766
0.7170017886777359	172035.08284383686
0.7171212889758488	171511.10795007987
0.7172408091906781	170987.04572717377
0.7173603493255433	170462.8961605637
0.7174799093837642	169938.6592356928
0.7175994893686615	169414.33493800086
0.7177190892835562	168889.92325292624
0.7178387091317702	169120.34474497795
0.7179583489166254	169426.58573672618
0.7180780086414448	169732.87776863994
0.7181976883095517	170039.2208492257
0.7183173879242699	170345.61498699157
0.718437107488924	170652.0601904471
0.7185568470068389	170958.55646810337
0.7186766064813399	171248.98334561213
0.7187963859157535	171136.4110295526
0.7189161853134061	171023.81995144038
0.719036004677625	170911.21010814846
0.7191558440117378	170798.58149654942
0.7192757033190732	170685.93411351493
0.7193955826029597	170573.26795591676
0.7195154818667269	170460.58302062552
0.7196354011137046	170341.5681227399
0.7197553403472235	170193.4755800312
0.7198752995706147	170045.3583552321
0.7199952787872098	169897.21644422878
0.720115278000341	169749.04984290694
0.7202352972133411	169600.85854715153
0.7203553364295432	169452.64255284704
0.7204753956522815	169304.40185587667
0.7205954748848902	169321.27124182912
0.7207155741307044	169702.20393224806
0.7208356933930594	170083.20011144804
0.7209558326752915	170464.2597900113
0.7210759919807375	170845.38297852152
0.7211961713127342	171226.56968756267
0.7213163706746197	171607.8199277226
0.7214365900697322	171989.1337095888
0.7215568295014103	172061.13429760383
0.721677088972994	171764.00830903824
0.7217973684878227	171466.83279947503
0.7219176680492374	171169.6077606599
0.7220379876605789	170872.33318433847
0.722158327325189	170575.00906225422
0.7222786870464099	170277.63538614978
0.7223990668275843	169980.21214776585
0.7225194666720555	169529.18125492564
0.7226398865831676	168969.24473188762
0.7227603265642646	168409.21488609706
0.722880786618692	167849.0917019977
0.7230012667497951	167288.8751640347
0.7231217669609201	166728.5652566486
0.7232422872554135	166168.16196427846
0.7233628276366229	165607.66527135865
0.7234833881078956	165485.91615648946
0.7236039686725803	165530.75773992622
0.7237245693340255	165575.60679696017
0.7238451900955812	165620.46332883704
0.7239658309605971	165665.32733680247
0.7240864919324239	165710.19882210265
0.7242071730144127	165755.0777859837
0.724327874209915	165799.96422969198
0.7244485955222832	164931.77334391276
0.7245693369548704	163912.46690041674
0.7246900985110294	162892.99057251497
0.7248108801941148	161873.34433188918
0.7249316820074803	160853.52815022672
0.7250525039544815	159833.54199919896
0.7251733460384739	158813.3858504792
0.7252942082628137	157794.5998177811
0.7254150906308574	157668.0510695966
0.7255359931459625	157541.48122995408
0.7256569158114868	157414.89029533823
0.7257778586307888	157288.27826223325
0.7258988216072273	157161.64512712276
0.7260198047441617	157034.9908864899
0.7261408080449525	156908.31553681672
0.72626183151296	156781.86795860805
0.7263828751515454	156657.05328293247
0.7265039389640706	156532.21780481096
0.726625022953898	156407.36152077635
0.7267461271243904	156282.48442736102
0.7268672514789111	156157.58652109685
0.7269883960208241	156032.6677985151
0.7271095607534942	155907.72825614613
0.7272307456802866	155741.71183802356
0.7273519508045666	155464.76544287888
0.7274731761297006	155187.7728900018
0.7275944216590555	154910.73417169924
0.7277156873959987	154633.64928027685
0.7278369733438982	154356.5182080388
0.727958279506122	154079.34094728943
0.7280796058860397	153802.11749032963
0.7282009524870207	153299.26855808843
0.7283223193124353	152462.67895485373
0.7284437063656539	151625.94992002018
0.7285651136500483	150789.08143034615
0.7286865411689898	149952.07346259223
0.7288079889258514	149114.9259935083
0.7289294569240056	148277.63899984813
0.7290509451668262	147440.21245835474
0.7291724536576875	146728.42797279186
0.7292939823999636	146120.7484745765
0.7294155313970303	145512.96769644355
0.7295371006522632	144905.08562151442
0.7296586901690385	144297.10223290662
0.7297802999507332	143689.0175137343
0.7299019300007252	143080.83144710722
0.7300235803223919	142472.54401613734
0.7301452509191123	142107.66201837844
0.7302669417942654	141855.1145131979
0.7303886529512311	141602.52491676647
0.7305103843933897	141349.89322206887
0.7306321361241218	141097.21942208902
0.7307539081468093	140844.50350980874
0.7308757004648336	140591.74547821027
0.7309975130815778	140338.94532027288
0.7311193460004248	140158.14725998428
0.7312411992247582	139993.62896086727
0.7313630727579622	139829.08324203375
0.7314849666034219	139664.51009891363
0.7316068807645224	139499.9095269364
0.7317288152446498	139335.2815215304
0.7318507700471907	139170.6260781235
0.7319727451755319	139005.94319214267
0.732094740633061	138453.05283510374
0.7322167564231665	137882.59434205806
0.7323387925492371	137312.04077259687
0.7324608490146619	136741.39211087427
0.732582925822831	136170.64834104123
0.7327050229771347	135599.80944724721
0.7328271404809642	135028.875413637
0.7329492783377112	134461.50631981753
0.7330714365507675	133930.02527638938
0.7331936151235259	133398.45565278747
0.7333158140593796	132866.7974342489
0.7334380333617229	132335.05060600644
0.7335602730339499	131803.21515329235
0.7336825330794556	131271.291061336
0.7338048135016354	130739.27831536539
0.7339271143038857	130274.27875735683
0.734049435489603	130034.0389315741
0.7341717770621846	129793.75906582036
0.7342941390250283	129553.43915342246
0.7344165213815324	129313.07918770591
0.734538924135096	129072.67916199472
0.7346613472891185	128832.2390696129
0.734783790847	128591.75890388226
0.7349062548121412	128159.71738881149
0.7350287391879431	127389.08220144322
0.7351512439778078	126618.31857487548
0.7352737691851374	125847.42648770424
0.735396314813335	125076.40591851779
0.7355188808658037	124305.25684590443
0.7356414673459482	123533.97924844404
0.7357640742571725	122762.57310471794
0.7358867016028818	122076.12955623618
0.7360093493864824	121473.60679744245
0.7361320176113801	120870.98361818976
0.736254706280982	120268.2600017405
0.7363774153986956	119665.43593135441
0.7365001449679286	119062.51139029114
0.7366228949920899	118459.48636180387
0.7367456654745885	117856.3608291452
0.7368684564188344	117251.6452532838
0.7369912678282374	116645.98704489192
0.7371140997062088	116040.22789346508
0.7372369520561599	115434.36778217908
0.7373598248815024	114828.40669420923
0.7374827181856494	114222.3446127237
0.7376056319720137	113616.18152089122
0.7377285662440091	113009.91740187666
0.7378515210050496	112218.5834338036
0.7379744962585505	111371.46609032326
0.738097492007927	110524.20756061922
0.7382205082565949	109676.80782116076
0.738343545007971	108829.26684841258
0.7384666022654723	107981.58461883472
0.7385896800325165	107133.76110888657
0.7387127783125219	106285.79629501901
0.7388358971089073	106006.93586138538
0.7389590364250921	105785.12570840064
0.7390821962644963	105563.27858705688
0.7392053766305403	105341.39449119323
0.7393285775266454	105119.47341464678
0.7394517989562333	104897.51535125401
0.7395750409227259	104675.52029485106
0.7396983034295463	104437.66726549335
0.739821586480118	103847.82525814284
0.7399448900778645	103257.88494379229
0.7400682142262109	102667.84630605421
0.740191558928582	102077.7093285438
0.7403149241884034	101487.47399487095
0.7404383100091014	100897.14028864232
0.7405617163941028	100306.70819346304
0.7406851433468352	99689.39806993805
0.7408085908707264	98949.47472644165
0.7409320589692048	98209.42806238837
0.7410555476456997	97469.2580572238
0.7411790569036406	96728.96469039225
0.7413025867464579	95988.54794133268
0.7414261371775823	95248.0077894814
0.7415497082004452	94507.34421427206
0.7416732998184786	93766.13637153304
0.741796912035115	93023.90224467826
0.7419205448537874	92281.54441213583
0.7420441982779297	91539.06285328802
0.742167872310976	90796.45754751303
0.7422915669563612	90053.72847418711
0.7424152822175206	89310.8756126825
0.7425390180978901	88567.89894236809
0.7426627746009065	87920.95135801731
0.7427865517300065	87391.11323829603
0.7429103494886282	86861.18681222093
0.7430341678802096	86331.17206507522
0.7431580069081896	85801.06898213836
0.7432818665760077	85270.87754868691
0.7434057468871037	84740.597749997
0.7435296478449182	84210.22957134095
0.7436535694528923	83614.6048736016
0.7437775117144678	82974.27132502817
0.7439014746330868	82333.83105419761
0.7440254582121922	81693.28404332137
0.7441494624552276	81052.63027460972
0.7442734873656368	80411.86973027009
0.7443975329468645	79771.00239250588
0.7445215992023557	79130.0282435188
0.7446456861355559	78477.03277652654
0.7447697937499119	77819.53949556734
0.7448939220488703	77161.93663239479
0.7450180710358784	76504.22416874563
0.7451422407143843	75846.40208635243
0.7452664310878367	75188.47036694491
0.7453906421596846	74530.42899225152
0.7455148739333779	73872.27794399546
0.7456391264123667	73254.66013880633
0.7457633996001021	72643.4379778672
0.7458876935000356	72032.11394656681
0.7460120081156189	71420.68802792905
0.7461363434503048	70809.16020497122
0.7462606995075466	70197.53046070902
0.7463850762907978	69585.79877815703
0.7465094738035127	68973.9872272823
0.7466338920491467	68367.851532996
0.746758331031155	67761.61481609341
0.7468827907529935	67155.2770597387
0.7470072712181189	66548.83824709126
0.7471317724299886	65942.29836130826
0.7472562943920602	65335.65738554472
0.7473808371077922	64728.91530295135
0.7475054005806435	64120.55113649157
0.7476299848140736	63502.71705773985
0.7477545898115426	62884.78000664154
0.7478792155765113	62266.739966034555
0.7480038621124406	61648.59691875463
0.7481285294227926	61030.35084763363
0.7482532175110298	60412.001735500126
0.7483779263806148	59793.549565182126
0.7485026560350116	59180.59485086133
0.7486274064776842	58582.69560580339
0.748752177712097	57984.69671087237
0.7488769697417158	57386.59814945758
0.749001782570006	56788.399904949954
0.7491266162004343	56190.10196073508
0.7492514706364677	55591.7043001959
0.7493763458815739	54993.206906712694
0.7495012419392209	54394.35081626952
0.7496261588128773	53795.02264874016
0.7497510965060128	53195.59459318245
0.7498760550220971	52596.06663294905
0.7500010343646007	51996.43875138885
0.7501260345369949	51396.71093184809
0.750251055542751	50796.883157671415
0.7503760973853414	50196.95541219868
0.7505011600682389	49610.333459120906
0.750626243594917	49034.80725577347
0.7507513479688495	48459.18513139301
0.7508764731935109	47883.467069991624
0.7510016192723765	47307.65305557986
0.7511267862089218	46731.74307216623
0.7512519740066232	46155.737103755164
0.7513771826689577	45579.635134349024
0.7515024121994025	45033.049047512366
0.7516276626014359	44500.178594668316
0.751752933878536	43967.219330083055
0.7518782260341824	43434.17123895352
0.7520035390718548	42901.03430647522
0.7521288729950334	42367.80851784179
0.7522542278071992	41834.49385824354
0.7523796035118337	41301.090312868444
0.7525050001124189	40771.75718938303
0.7526304176124378	40243.24040332815
0.7527558560153731	39714.63553114294
0.752881315324709	39185.94255814519
0.7530067955439299	38657.16146965174
0.7531322966765205	38128.29225097759
0.7532578187259665	37599.33488743349
0.7533833616957542	37070.289364328826
0.75350892558937	36555.266799705336
0.7536345104103016	36040.8219437783
0.7537601161620366	35526.2913470422
0.7538857428480638	35011.67499520615
0.7540113904718717	34496.97287397879
0.7541370590369503	33982.18496906468
0.7542627485467898	33467.311266166085
0.7543884590048808	32956.385480731245
0.7545141904147151	32485.599351109806
0.7546399427797842	32014.734757134185
0.7547657161035808	31543.79168572616
0.754891510389598	31072.77012380626
0.7550173256413296	30601.670058292515
0.7551431618622698	30130.4914761013
0.7552690190559135	29659.234364146487
0.7553948972257561	29191.61401640318
0.7555207963752938	28736.38661900177
0.755646716508023	28281.083350367724
0.755772657627441	27825.704197855415
0.7558986197370455	27370.24914881762
0.756024602840335	26914.7181906051
0.7561506069408084	26459.11131056622
0.7562766320419653	26003.42849604692
0.7564026781473054	25551.34231946547
0.75652874526033	25105.64356509915
0.7566548333845401	24659.87052760688
0.7567809425234375	24214.023194608515
0.7569070726805247	23768.10155372157
0.7570332238593047	23322.105592561205
0.7571593960632813	22876.035298740222
0.7572855892959586	22429.89065987024
0.7574118035608413	22006.515643373834
0.7575380388614347	21605.41907534862
0.7576642952012449	21204.255657895246
0.7577905725837782	20803.02537987288
0.7579168710125422	20401.728230136796
0.7580431904910444	20000.36419754227
0.7581695310227928	19598.933270942816
0.7582958926112967	19197.435439188426
0.7584222752600652	18811.24281136922
0.7585486789726085	18433.816514525846
0.7586751037524372	18056.327313299524
0.7588015496030628	17678.775197205592
0.7589280165279966	17301.160155759728
0.7590545045307512	16923.482178473623
0.7591810136148396	16545.741254857974
0.7593075437837755	16167.93737442117
0.7594340950410726	15810.60245166437
0.7595606673902461	15459.165035416445
0.7596872608348112	15107.669046265459
0.7598138753782836	14756.114474450003
0.75994051102418	14404.501310205582
0.7600671677760173	14052.829543767395
0.7601938456373134	13701.099165367865
0.7603205446115863	13349.310165238801
0.7604472647023548	13015.03285567237
0.7605740059131385	12682.446321135027
0.7607007682474575	12349.80435550827
0.7608275517088319	12017.106949554647
0.7609543563007835	11684.354094032627
0.7610811820268336	11351.545779701553
0.7612080288905045	11018.68199731873
0.7613348968953197	10686.187357400002
0.7614617860448022	10362.349561645711
0.7615886963424764	10038.45779292502
0.7617156277918667	9714.512042243188
0.7618425803964988	9390.512300602644
0.7619695541598982	9066.458559005245
0.7620965490855914	8742.350808451152
0.7622235651771058	8418.189039938261
0.7623506024379685	8101.183947552514
0.7624776608717082	7815.731319731388
0.7626047404818536	7530.231116472278
0.7627318412719337	7244.683329846448
0.762858963245479	6959.087951922669
0.7629861064060198	6673.444974769209
0.7631132707570876	6387.754390452595
0.7632404563022137	6102.01619103885
0.7633676630449308	5823.73328070411
0.7634948909887717	5561.375198658635
0.7636221401372697	5298.973390266492
0.7637494104939593	5036.527848239371
0.7638767020623748	4774.038565288957
0.7640040148460518	4511.50553412442
0.7641313488485262	4248.928747454697
0.7642587040733344	3986.3081979868994
0.7643860805240132	3729.7213325203334
0.7645134782041005	3480.3439271510692
0.7646408971171346	3230.9249588808066
0.764768337266654	2981.4644207825904
0.7648957986561985	2731.9623059279434
0.7650232812893079	2482.4186073875208
