#wavelength	surface flux
0.7	37358845.18000247
0.7001166666666666	37559256.71874073
0.7002333527777778	38101882.67656009
0.700350058336574	38644599.07203882
0.7004667833462966	39187405.920249425
0.7005835278101878	39730303.236269556
0.7007002917314895	40273291.035174824
0.7008170751134447	40816369.332046494
0.7009338779592968	41359538.14196739
0.7010507002722901	41595836.85003779
0.7011675420556689	41458624.26216686
0.701284403312678	41321388.805531494
0.7014012840465635	41184130.476319835
0.7015181842605713	41046849.27071999
0.701635103957948	40909545.18491932
0.701752043141941	40772218.215104364
0.701869001815798	40634868.357460916
0.7019859799827672	40690233.44410701
0.7021029776460976	40879742.43944533
0.7022199948090387	41069283.01961645
0.7023370314748403	41258855.18988417
0.7024540876467528	41448458.95551358
0.702571163328027	41638094.32177028
0.7026882585219152	41827761.29392186
0.7028053732316688	42017459.8772352
0.7029225074605406	41798159.2982683
0.7030396612117841	41420876.626913704
0.7031568344886527	41043531.07511382
0.7032740272944008	40666122.632388875
0.7033912396322832	40288651.28825661
0.7035084715055552	39911117.03223403
0.7036257229174727	39533519.85383531
0.7037429938712924	39155859.742573164
0.7038602843702709	39362556.01591681
0.7039775944176659	39668408.5333454
0.7040949240167356	39974312.026193686
0.7042122731707383	40280266.50295729
0.7043296418829335	40586271.97213386
0.7044470301565806	40892328.4422219
0.70456443799494	41198435.9217214
0.7046818654012724	41504594.41913432
0.7047993123788394	40896496.76112789
0.7049167789309024	40287248.54544734
0.7050342650607243	39677898.78839657
0.7051517707715678	39068447.47305325
0.7052692960666963	38458894.582490996
0.705386840949374	37849240.09978058
0.7055044054228656	37239484.00798872
0.7056219894904361	36805767.7176341
0.7057395931553511	37491339.16159018
0.705857216420877	38177024.86745413
0.7059748592902804	38862824.85426866
0.7060925217668288	39548739.14108169
0.70621020385379	40234767.7469424
0.7063279055544321	40920910.69090323
0.7064456268720246	41607167.99202244
0.7065633678098366	42149595.73408829
0.7066811283711383	42295689.643474266
0.7067989085592001	42441807.901845135
0.7069167083772933	42587950.51325897
0.7070345278286895	42734117.481774814
0.707152366916661	42880308.8114521
0.7072702256444803	43026524.50635083
0.7073881040154211	43172764.57053224
0.7075060020327569	43293174.86601102
0.7076239196997625	43375952.618234254
0.7077418570197124	43458744.16674945
0.7078598139958823	43541549.513856046
0.7079777906315483	43624368.66185392
0.7080957869299869	43707201.613043055
0.7082138028944751	43790048.36972401
0.7083318385282908	43872908.93419781
0.7084498938347124	43868961.93237981
0.708567968817018	43791405.33579468
0.7086860634784875	43713835.81311003
0.7088041778224007	43636253.36217153
0.7089223118520377	43558657.98082465
0.7090404655706796	43481049.666914254
0.709158638981608	43403428.41828478
0.709276832088105	43325794.23278052
0.7093950448934531	43406332.51992562
0.7095132774009353	43562324.55945623
0.7096315296138355	43718342.59766016
0.7097498015354378	43874386.63887041
0.7098680931690269	44030456.68742072
0.7099864045178884	44186552.747645974
0.7101047355853081	44342674.823881246
0.7102230863745722	44498822.920462444
0.7103414568889679	44494676.984607935
0.7104598471317828	44454101.86364469
0.7105782571063047	44413519.98016132
0.7106966868158224	44372931.33303069
0.710815136263625	44332335.92112556
0.7109336054530023	44291733.74331842
0.7110520943872445	44251124.79848166
0.7111706030696424	44210509.085487396
0.7112891315034873	44499780.031328246
0.7114076796920712	44804839.35453039
0.7115262476386865	45109949.520953074
0.7116448353466263	45415110.53906995
0.711763442819184	45720322.41735668
0.711882070059654	46025585.164290056
0.7120007170713306	46330898.78834773
0.7121193838575091	46640868.07350959
0.7122380704214853	46998915.64998796
0.7123567767665555	47357022.90106204
0.7124755028960166	47715189.83667815
0.7125942488131658	48073416.466783255
0.7127130145213015	48431702.80132769
0.7128318000237216	48790048.85026011
0.7129506053237256	49148454.62353453
0.7130694304246129	49456677.08703523
0.7131882753296837	49589283.53920253
0.7133071400422386	49721912.09244523
0.7134260245655789	49854562.75044672
0.7135449289030065	49987235.51689124
0.7136638530578235	50119930.39546344
0.7137827970333332	50252647.38984892
0.7139017608328388	50385386.503733434
0.7140207444596443	50563273.08927409
0.7141397479170543	50821688.46563533
0.7142587712083737	51080146.911225595
0.7143778143369084	51338648.43322367
0.7144968773059646	51597193.03880881
0.7146159601188489	51855780.735161446
0.7147350627788687	52114411.5294635
0.7148541852893318	52373085.428897835
0.7149733276535467	52629874.68250612
0.7150924898748222	52884762.82609962
0.715211671956468	53139693.45105043
0.7153308739017941	53394666.56443894
0.715450095714111	53649682.17334622
0.71556933739673	53904740.28485502
0.7156885989529628	54159840.90604904
0.7158078803861218	54414984.04401364
0.7159271816995193	54578404.98951954
0.7160465028964692	54687993.00843268
0.7161658439802853	54797599.292015634
0.7162852049542819	54907223.843312494
0.7164045858217744	55016866.665367976
0.716523986586078	55126527.761227086
0.7166434072505089	55236207.13393545
0.716762847818384	55345904.78653931
0.7168823082930204	55670435.78142002
0.7170017886777359	56058218.54108997
0.7171212889758488	56446065.9312196
0.7172408091906781	56833977.96258104
0.7173603493255433	57221954.64594783
0.7174799093837642	57609995.99209496
0.7175994893686615	57998102.01179995
0.7177190892835562	58386272.715841375
0.7178387091317702	58898083.99876281
0.7179583489166254	59422385.48572794
0.7180780086414448	59946774.35627464
0.7181976883095517	60471250.62496641
0.7183173879242699	60995814.30636969
0.718437107488924	61520465.41505332
0.7185568470068389	62045203.9655886
0.7186766064813399	62567192.69610228
0.7187963859157535	63018330.26075844
0.7189161853134061	63469543.01500868
0.719036004677625	63920830.97138469
0.7191558440117378	64372194.1424198
0.7192757033190732	64823632.54065072
0.7193955826029597	65275146.17861414
0.7195154818667269	65726735.06885094
0.7196354011137046	66121217.85024586
0.7197553403472235	66252493.11324091
0.7198752995706147	66383790.25544641
0.7199952787872098	66515109.28050903
0.720115278000341	66646450.192075826
0.7202352972133411	66777812.99379457
0.7203553364295432	66909197.6893134
0.7204753956522815	67040604.28228166
0.7205954748848902	67111653.79004933
0.7207155741307044	67049602.0409912
0.7208356933930594	66987539.94997501
0.7209558326752915	66925467.51527696
0.7210759919807375	66863384.73517305
0.7211961713127342	66801291.6079392
0.7213163706746197	66739188.13185071
0.7214365900697322	66677074.30518294
0.7215568295014103	66949640.05488901
0.721677088972994	67621592.69999194
0.7217973684878227	68293657.33720127
0.7219176680492374	68965833.98518427
0.7220379876605789	69638122.66260818
0.722158327325189	70310523.38814525
0.7222786870464099	70983036.18046956
0.7223990668275843	71655661.05825953
0.7225194666720555	72087917.56641766
0.7226398865831676	72349811.58515872
0.7227603265642646	72611749.25290227
0.722880786618692	72873730.57692435
0.7230012667497951	73135755.56450026
0.7231217669609201	73397824.22290745
0.7232422872554135	73659936.55942415
0.7233628276366229	73922092.58133072
0.7234833881078956	73966296.35894054
0.7236039686725803	73927742.85943379
0.7237245693340255	73889182.93434383
0.7238451900955812	73850616.58259964
0.7239658309605971	73812043.8031302
0.7240864919324239	73773464.59486412
0.7242071730144127	73734878.95673
0.724327874209915	73696286.88765626
0.7244485955222832	74461437.75556411
0.7245693369548704	75359609.31630881
0.7246900985110294	76257930.57231233
0.7248108801941148	77156401.54852754
0.7249316820074803	78055022.26990247
0.7250525039544815	78953792.76139908
0.7251733460384739	79852713.04797776
0.7252942082628137	80750436.47921996
0.7254150906308574	80868003.16053921
0.7255359931459625	80985589.43630537
0.7256569158114868	81103195.3097842
0.7257778586307888	81220820.784242
0.7258988216072273	81338465.86294551
0.7260198047441617	81456130.549162
0.7261408080449525	81573814.84615974
0.72626183151296	81692095.05255117
0.7263828751515454	81814224.78552602
0.7265039389640706	81936374.87345634
0.726625022953898	82058545.31973472
0.7267461271243904	82180736.12775423
0.7268672514789111	82302947.3009083
0.7269883960208241	82425178.84259114
0.7271095607534942	82547430.75619766
0.7272307456802866	82586404.53206733
0.7273519508045666	82400375.41378228
0.7274731761297006	82214315.29064427
0.7275944216590555	82028224.15748575
0.7277156873959987	81842102.00913832
0.7278369733438982	81655948.8404325
0.727958279506122	81469764.64619908
0.7280796058860397	81283549.42126638
0.7282009524870207	81126841.97745293
0.7283223193124353	81013799.61549895
0.7284437063656539	80900738.41315152
0.7285651136500483	80787658.36727019
0.7286865411689898	80674559.47471477
0.7288079889258514	80561441.73234367
0.7289294569240056	80448305.13701576
0.7290509451668262	80335149.6855885
0.7291724536576875	80824607.90128659
0.7292939823999636	81813493.61346978
0.7294155313970303	82802544.1399403
0.7295371006522632	83791759.50816497
0.7296586901690385	84781139.74561691
0.7297802999507332	85770684.87977466
0.7299019300007252	86760394.93812397
0.7300235803223919	87750269.94814703
0.7301452509191123	88319988.67099129
0.7302669417942654	88695794.89152189
0.7303886529512311	89071663.74642268
0.7305103843933897	89447595.24613272
0.7306321361241218	89823589.40109241
0.7307539081468093	90199646.22174528
0.7308757004648336	90575765.71853411
0.7309975130815778	90951947.9019062
0.7311193460004248	91562903.87205286
0.7312411992247582	92227097.26258224
0.7313630727579622	92891401.35200989
0.7314849666034219	93555816.15878643
0.7316068807645224	94220341.70136371
0.7317288152446498	94884977.99819839
0.7318507700471907	95549725.06774956
0.7319727451755319	96214582.92847872
0.732094740633061	97239207.53841156
0.7322167564231665	98280194.74341612
0.7323387925492371	99321355.44628821
0.7324608490146619	100362689.67594385
0.732582925822831	101404197.46130468
0.7327050229771347	102445878.8312952
0.7328271404809642	103487733.81484847
0.7329492783377112	104386436.24412769
0.7330714365507675	103876240.26003952
0.7331936151235259	103365959.24328747
0.7333158140593796	102855593.17969988
0.7334380333617229	102345142.05510092
0.7335602730339499	101834605.85531427
0.7336825330794556	101323984.5661609
0.7338048135016354	100813278.17346032
0.7339271143038857	99664440.57738991
0.734049435489603	96377519.61060229
0.7341717770621846	93090050.82365297
0.7342941390250283	89802034.12524082
0.7344165213815324	86513469.42404687
0.734538924135096	83224356.62873124
0.7346613472891185	79934695.64795403
0.734783790847	76644486.39034554
0.7349062548121412	73308729.48977649
0.7350287391879431	69892878.57381092
0.7351512439778078	66476458.34935235
0.7352737691851374	63059468.72152715
0.735396314813335	59641909.59542763
0.7355188808658037	56223780.876146086
0.7356414673459482	52805082.46873768
0.7357640742571725	49385814.27826373
0.7358867016028818	47651758.80149143
0.7360093493864824	47582276.64926587
0.7361320176113801	47512782.91668171
0.736254706280982	47443277.60180877
0.7363774153986956	47373760.7027166
0.7365001449679286	47304232.21747472
0.7366228949920899	47234692.14415192
0.7367456654745885	47165140.48081689
0.7368684564188344	46428268.46973595
0.7369912678282374	45314124.80104316
0.7371140997062088	44199795.44173845
0.7372369520561599	43085280.360872805
0.7373598248815024	41970579.52749619
0.7374827181856494	40855692.91064548
0.7376056319720137	39740620.47935854
0.7377285662440091	38625362.20266621
0.7378515210050496	38535752.133845106
0.7379744962585505	38754769.39856914
0.738097492007927	38973823.166170575
0.7382205082565949	39192913.44273314
0.738343545007971	39412040.234341756
0.7384666022654723	39631203.54708253
0.7385896800325165	39850403.38704176
0.7387127783125219	40069639.76030792
0.7388358971089073	39375868.25106961
0.7389590364250921	38590400.49149344
0.7390821962644963	37804801.820623405
0.7392053766305403	37019072.21664271
0.7393285775266454	36233211.65772745
0.7394517989562333	35447220.12205161
0.7395750409227259	34661097.58778777
0.7396983034295463	33960166.73119021
0.739821586480118	35157185.96975235
0.7399448900778645	36354404.71151853
0.7400682142262109	37551822.98974533
0.740191558928582	38749440.83768388
0.7403149241884034	39947258.288596146
0.7404383100091014	41145275.37575053
0.7405617163941028	42343492.13241868
0.7406851433468352	43163206.49932945
0.7408085908707264	42250586.48628222
0.7409320589692048	41337814.369899936
0.7410555476456997	40424890.12483084
0.7411790569036406	39511813.72572157
0.7413025867464579	38598585.147212185
0.7414261371775823	37685204.363939464
0.7415497082004452	36771671.350536905
0.7416732998184786	36180905.53004235
0.741796912035115	36282767.04346976
0.7419205448537874	36384645.53381605
0.7420441982779297	36486541.00391072
0.742167872310976	36588453.45658384
0.7422915669563612	36690382.89466573
0.7424152822175206	36792329.320987284
0.7425390180978901	36894292.73837982
0.7426627746009065	36714561.8365123
0.7427865517300065	36191374.71589313
0.7429103494886282	35668100.397419974
0.7430341678802096	35144738.86656081
0.7431580069081896	34621290.10877987
0.7432818665760077	34097754.109538555
0.7434057468871037	33574130.85429781
0.7435296478449182	33050420.32851482
0.7436535694528923	32658128.397998977
0.7437775117144678	32355790.89429019
0.7439014746330868	32053403.00099791
0.7440254582121922	31750964.709723152
0.7441494624552276	31448476.01206639
0.7442734873656368	31145936.899626754
0.7443975329468645	30843347.364001468
0.7445215992023557	30540707.396786947
0.7446456861355559	30407387.765986364
0.7447697937499119	30336437.612149138
0.7448939220488703	30265475.633286286
0.7450180710358784	30194501.827427022
0.7451422407143843	30123516.192600105
0.7452664310878367	30052518.726833988
0.7453906421596846	29981509.428156983
0.7455148739333779	29910488.29459684
0.7456391264123667	30101830.78407516
0.7457633996001021	30335157.54916253
0.7458876935000356	30568523.202044502
0.7460120081156189	30801927.749201506
0.7461363434503048	31035371.19711648
0.7462606995075466	31268853.552272987
0.7463850762907978	31502374.821154997
0.7465094738035127	31735300.76112429
0.7466338920491467	31802349.479571227
0.746758331031155	31869409.37280464
0.7468827907529935	31936480.442686845
0.7470072712181189	32003562.691080697
0.7471317724299886	32070656.1198493
0.7472562943920602	32137760.730855975
0.7473808371077922	32204876.52596455
0.7475054005806435	32286223.263992555
0.7476299848140736	32455171.686010193
0.7477545898115426	32624148.26609821
0.7478792155765113	32793153.00894961
0.7480038621124406	32962185.91925802
0.7481285294227926	33131247.00171811
0.7482532175110298	33300336.26102546
0.7483779263806148	33469453.701875784
0.7485026560350116	33620448.91037859
0.7486274064776842	33722345.85658463
0.748752177712097	33824259.78561485
0.7488769697417158	33926190.70030013
0.749001782570006	34028138.60347106
0.7491266162004343	34130103.49795916
0.7492514706364677	34232085.38659638
0.7493763458815739	34334084.27221515
0.7495012419392209	34330532.3926789
0.7496261588128773	34175213.67854915
0.7497510965060128	34019869.077966936
0.7498760550220971	33864498.58661801
0.7500010343646007	33709102.20018718
0.7501260345369949	33553679.91435852
0.750251055542751	33398231.724815737
0.7503760973853414	33242757.62724127
0.7505011600682389	33128479.681634434
0.750626243594917	33048602.17082213
0.7507513479688495	32968711.347091474
0.7508764731935109	32888807.208223503
0.7510016192723765	32808889.75199904
0.7511267862089218	32728958.976198606
0.7512519740066232	32649014.87860218
0.7513771826689577	32569057.456989445
0.7515024121994025	32643986.839037653
0.7516276626014359	32791151.854785275
0.751752933878536	32938341.39803526
0.7518782260341824	33085555.472875837
0.7520035390718548	33232794.08339562
0.7521288729950334	33380057.233683746
0.7522542278071992	33527344.927830268
0.7523796035118337	33674657.16992588
0.7525050001124189	33846228.38970499
0.7526304176124378	34023098.65027643
0.7527558560153731	34199998.3892244
0.752881315324709	34376927.61146238
0.7530067955439299	34553886.32190412
0.7531322966765205	34730874.525464036
0.7532578187259665	34907892.227057934
0.7533833616957542	35084939.43160209
0.75350892558937	35134120.93450739
0.7536345104103016	35177296.636050485
0.7537601161620366	35220479.53354381
0.7538857428480638	35263669.628186755
0.7540113904718717	35306866.92117876
0.7541370590369503	35350071.41371958
0.7542627485467898	35393283.10700919
0.7543884590048808	35431289.56352516
0.7545141904147151	35417323.32487594
0.7546399427797842	35403354.75852031
0.7547657161035808	35389383.86407029
0.754891510389598	35375410.64113785
0.7550173256413296	35361435.08933493
0.7551431618622698	35347457.208273366
0.7552690190559135	35333476.99756497
0.7553948972257561	35307809.787310325
0.7555207963752938	35242917.26270657
0.755646716508023	35178013.92268209
0.755772657627441	35113099.76543425
0.7558986197370455	35048174.78916019
0.756024602840335	34983238.99205677
0.7561506069408084	34918292.3723205
0.7562766320419653	34853334.928147554
0.7564026781473054	34694655.65245267
0.75652874526033	34371043.56226083
0.7566548333845401	34047377.53672046
0.7567809425234375	33723657.566842616
0.7569070726805247	33399883.64363664
0.7570332238593047	33076055.758110177
0.7571593960632813	32752173.901269145
0.7572855892959586	32428238.064118627
0.7574118035608413	32186836.58155398
0.7575380388614347	32026193.737541873
0.7576642952012449	31865524.119722366
0.7577905725837782	31704827.723633457
0.7579168710125422	31544104.544811577
0.7580431904910444	31383354.578793168
0.7581695310227928	31222577.82111396
0.7582958926112967	31061774.26730827
0.7584222752600652	30711230.008931305
0.7585486789726085	30251643.928951077
0.7586751037524372	29791981.25129068
0.7588015496030628	29332241.963183105
0.7589280165279966	28872426.051861756
0.7590545045307512	28412533.504555188
0.7591810136148396	27952564.308490746
0.7593075437837755	27492518.450892948
0.7594340950410726	27031368.67340066
0.7595606673902461	26569843.99609888
0.7596872608348112	26108242.398017082
0.7598138753782836	25646563.866336115
0.75994051102418	25184808.38823277
0.7600671677760173	24722975.950883433
0.7601938456373134	24261066.541460853
0.7603205446115863	23799080.147136964
0.7604472647023548	23139176.161571477
0.7605740059131385	22459496.860646293
0.7607007682474575	21779704.279836956
0.7608275517088319	21099798.40026566
0.7609543563007835	20419779.203046262
0.7610811820268336	19739646.669294402
0.7612080288905045	19059400.780121557
0.7613348968953197	18376589.872406095
0.7614617860448022	17643362.836699374
0.7615886963424764	16910013.5964857
0.7617156277918667	16176542.131399367
0.7618425803964988	15442948.42106825
0.7619695541598982	14709232.44511894
0.7620965490855914	13975394.183174178
0.7622235651771058	13241433.61485158
0.7623506024379685	12521475.4350376
0.7624776608717082	11863307.431053929
0.7626047404818536	11205029.732402898
0.7627318412719337	10546642.320803221
0.762858963245479	9888145.177967865
0.7629861064060198	9229538.285608646
0.7631132707570876	8570821.625433346
0.7632404563022137	7911995.17914861
0.7633676630449308	7301888.533755621
0.7634948909887717	6795622.22122597
0.7636221401372697	6289271.530978223
0.7637494104939593	5782836.448948291
0.7638767020623748	5276316.9610720845
0.7640040148460518	4769713.053280655
0.7641313488485262	4263024.711504613
0.7642587040733344	3756251.921671033
0.7643860805240132	3335938.5124776736
0.7645134782041005	3018827.798783087
0.7646408971171346	2701664.2333027525
0.764768337266654	2384447.8072282877
0.7648957986561985	2067178.511749375
0.7650232812893079	1749856.3380545909
0.7651507851695227	1432481.2773308547
0.7652783103003843	1115053.3207637034
0.7654058566854343	914996.2322034471
0.7655334243282153	794933.1721731824
0.7656610132322699	674850.101633069
