#wavelength	surface flux
0.8	882431.695558877
0.8002000000000001	893936.813925048
0.8004000500000003	906180.6746437497
0.8006001500125003	918435.0292994957
0.8008003000500035	930692.4475439066
0.8010005001250161	942952.9301428844
0.8012007502500472	955216.4778624941
0.8014010504376099	966601.1975629462
0.8016014007002193	977693.3559276183
0.8018018010503944	988788.2873318815
0.8020022515006572	999885.9924690007
0.8022027520635323	1010986.4720323947
0.8024033027515483	1022803.7331809197
0.8026039035772362	1035323.6471537347
0.8028045545531306	1047846.6911050435
0.8030052556917691	1060372.8658173461
0.803206007005692	1072902.1720733158
0.8034068085074435	1085396.7696319758
0.8036076602095705	1097788.416899404
0.8038085621246229	1110183.1620786395
0.8040095142651542	1122581.0059441775
0.8042105166437206	1134981.9492706775
0.8044115692728815	1147384.3993680035
0.8046126721651998	1159721.412340649
0.8048138253332411	1172061.5095665276
0.8050150287895745	1184404.6918167244
0.805216282546772	1196750.9598624802
0.8054175866174087	1209100.3144752411
0.8056189410140631	1221054.950952395
0.8058203457493168	1232899.971338404
0.8060218008357541	1244747.9529794946
0.8062233062859632	1256598.8966160011
0.8064248621125346	1268452.8029884086
0.806626468328063	1281174.272112516
0.8068281249451449	1294641.5077869864
0.8070298319763813	1308112.110270392
0.8072315894343755	1321586.080404408
0.8074333973317341	1335063.4190309627
0.8076352556810671	1347312.417731508
0.8078371644949874	1356599.5488186218
0.8080391237861113	1365889.0016885097
0.8082411335670578	1375180.7769216092
0.8084431938504498	1384474.875098527
0.8086453046489125	1393630.6563725402
0.8088474659750746	1400170.2538023167
0.8090496778415686	1406711.4861314595
0.809251940261029	1413254.35376868
0.8094542532460944	1419798.8571228152
0.8096566168094059	1426344.9966027813
0.8098590309636085	1435581.5863769047
0.8100614957213493	1445449.824113747
0.8102640110952797	1455320.5289100248
0.8104665770980536	1465193.7013825055
0.8106691937423283	1475069.3421481082
0.8108718610407639	1485128.0377367958
0.8110745790060241	1495327.3325686746
0.8112773476507757	1505529.1772242703
0.8114801669876885	1515733.5723410274
0.8116830370294355	1525940.5185565576
0.8118859577886929	1534913.5130936021
0.8120889292781401	1541320.4792166045
0.8122919515104597	1547729.047081137
0.8124950244983374	1554139.217087636
0.8126981482544621	1560550.9896366356
0.8129013227915257	1567561.981950696
0.8131045481222237	1581417.5309903133
0.8133078242592543	1595276.543917192
0.8135111512153191	1609139.0215972988
0.813714529003123	1623004.964896827
0.8139179576353739	1636874.3746821827
0.8141214371247829	1659812.1548389175
0.8143249674840641	1684513.5066060848
0.814528548725935	1709221.033711179
0.8147321808631167	1733934.7376980828
0.8149358639083326	1758654.6201109756
0.8151395978743097	1778884.6073642792
0.8153433827737784	1796081.9151174224
0.8155472186194719	1813283.5221974973
0.8157511054241268	1830489.4296793393
0.815955043200483	1847699.6386380633
0.8161590319612831	1868709.3620109232
0.8163630717192736	1896678.6009343006
0.8165671624872033	1924654.8321673782
0.8167713042778252	1952638.057458291
0.8169754971038948	1980628.2785555408
0.8171797409781707	2004325.3020142484
0.8173840359134155	1993698.4596864015
0.8175883819223938	1983068.9606479849
0.8177927790178745	1972436.8042348023
0.8179972272126291	1961801.9897825138
0.8182017265194322	1951164.516626623
0.8184062769510622	1968464.4457576731
0.8186108785203001	1990068.2618260903
0.8188155312399301	2011677.4788484955
0.8190202351227402	2033292.0981751806
0.819224990181521	2054912.1211566834
0.8194297964290664	2085492.7261974248
0.8196346538781738	2121478.6934736595
0.8198395625416434	2157473.6572416984
0.8200445224322789	2193477.619750695
0.820249533562887	2229490.583250308
0.8204545959462778	2260118.525708379
0.8206597095952644	2282072.5886890246
0.8208648745226633	2304032.140185432
0.8210700907412941	2325997.1815697104
0.8212753582639793	2347967.7142143124
0.8214806771035456	2367527.1061856598
0.8216860472728215	2372201.9825434936
0.8218914687846397	2376878.0276204175
0.822096941651836	2381555.2417086135
0.822302465887249	2386233.625100328
0.8225080415037209	2390913.1780878934
0.8227136685140968	2395906.8984429054
0.8229193469312254	2400937.3989835153
0.8231250767679583	2405969.157149262
0.8233308580371503	2411002.1732545467
0.8235366907516598	2416036.447613862
0.8237425749243477	2445649.9808941768
0.8239485105680789	2488297.689811438
0.824154497695721	2530956.060655901
0.824360536320145	2573625.0960930837
0.8245666264542252	2616304.798789123
0.8247727681108388	2650148.714238234
0.8249789613028664	2671331.2989789266
0.8251852060431922	2692519.179365823
0.825391502344703	2713712.3567228066
0.8255978502202894	2734910.8323741485
0.8258042496828445	2756523.6811837982
0.8260107007452654	2780128.6276584063
0.8262172034204517	2803739.4753696085
0.8264237577213068	2827356.225792745
0.8266303636607373	2850978.8804034977
0.8268370212516525	2874607.4406778915
0.8270437305069654	2884743.4515564605
0.8272504914395923	2893827.1797879213
0.8274573040624523	2902913.1789514422
0.8276641683884679	2912001.449614746
0.8278710844305652	2921091.9923457266
0.8280780522016729	2939924.1395736
0.8282850717147234	2963212.8253964093
0.8284921429826521	2986507.3333906503
0.8286992660183978	3009807.665011908
0.8289064408349024	3033113.821716055
0.8291136674451112	3053167.5018359
0.8293209458619727	3069117.6384085286
0.8295282760984382	3085071.7625152795
0.829735658167463	3101029.875153075
0.8299430920820048	3116991.97731901
0.8301505778550254	3133325.9773526867
0.8303581154994891	3151132.486826191
0.8305657050283641	3168943.447927082
0.8307733464546212	3186758.861768234
0.8309810397912352	3204578.7294628755
0.8311887850511829	3222403.0521244053
0.8313965822474458	3260597.514763323
0.8316044313930077	3299746.8051368752
0.8318123325008561	3338905.882833058
0.8320202855839813	3378074.7502986453
0.8322282906553774	3417253.4099811027
0.8324363477280413	3441798.168363609
0.8326444568149735	3460453.5626012306
0.8328526179291771	3479113.6206873897
0.8330608310836596	3497778.343788098
0.8332690962914304	3516447.7330695577
0.8334774135655034	3527140.482102602
0.833685782918895	3528920.5216381545
0.8338942043646247	3530701.00618359
0.834102677915716	3532481.935850163
0.834311203585195	3534263.3107491513
0.8345197813860912	3541458.1525684767
0.8347284113314379	3566875.529929494
0.8349370934342709	3592299.261634837
0.8351458277076294	3617729.3492730753
0.8353546141645565	3643165.794433266
0.8355634528180977	3668608.5987047357
0.8357723436813022	3679313.3237331365
0.8359812867672226	3689838.668678516
0.8361902820889144	3700366.6449601273
0.8363993296594368	3710897.2532358114
0.8366084294918518	3721430.4941635686
0.8368175815992247	3754244.3130952558
0.8370267859946247	3794739.088454386
0.8372360426911234	3835243.9875073438
0.8374453517017962	3875759.0127850603
0.8376547130397217	3916284.166819092
0.8378641267179816	3948534.8806954795
0.8380735927496613	3972573.208794333
0.8382831111478488	3996617.546475197
0.8384926819256358	4020667.895240469
0.8387023050961173	4044724.256592952
0.8389119806723914	4066999.9090431067
0.8391217086675596	4084252.708074982
0.8393314890947265	4101509.8203066015
0.8395413219670003	4118771.246816281
0.8397512072974922	4136036.9886826
0.8399611450993165	4153259.845850668
0.8401711353855914	4168143.0173023297
0.8403811781694378	4183029.9095468507
0.8405912734639802	4197920.523514437
0.8408014212823464	4212814.860135521
0.8410116216376671	4227712.920340759
0.8412218745430766	4244711.163548598
0.8414321800117124	4262323.644837562
0.8416425380567154	4279940.529246856
0.8418529486912297	4297561.817877258
0.8420634119284025	4315187.511829802
0.8422739277813847	4364729.553647985
0.8424844962633302	4442399.639689582
0.842695117387396	4520089.143252591
0.8429057911667428	4597798.069191493
0.8431165176145345	4675526.422361919
0.8433272967439382	4726026.924356988
0.8435381285681244	4710076.371921762
0.8437490131002665	4694121.83184843
0.8439599503535415	4678163.30314009
0.84417094034113	4662200.784799561
0.8443819830762154	4648606.086897956
0.8445930785719846	4682788.327056618
0.8448042268416277	4716979.112775302
0.8450154278983382	4751178.44619041
0.8452266817553128	4785386.32943887
0.8454379884257517	4819602.764658146
0.8456493479228583	4875834.027920453
0.845860760259839	4937378.724243144
0.846072225449904	4998938.806739914
0.8462837435062666	5060514.279257323
0.8464953144421433	5122105.145642895
0.8467069382707537	5167963.843439675
0.8469186150053215	5201559.261611806
0.847130344659073	5235163.078638489
0.8473421272452377	5268775.296619397
0.8475539627770492	5302395.917654833
0.8477658512677435	5333950.944218927
0.8479777927305605	5361109.99444123
0.8481897871787432	5388275.834426081
0.848401834625538	5415448.465870944
0.8486139350841944	5442627.890473651
0.8488260885679657	5466442.297656228
0.8490382950901076	5449161.463791189
0.8492505546638802	5431876.309717674
0.8494628673025462	5414586.834355647
0.8496752330193721	5397293.036624754
0.8498876518276269	5379994.915444451
0.8501001237405839	5201550.407279667
0.8503126487715191	4990894.502209903
0.850525226933712	4780185.933163988
0.8507378582404455	4569424.6869758135
0.8509505427050057	4358610.750475969
0.8511632803406821	4189544.7654873785
0.8513760711607672	4049062.308273308
0.8515889151785576	3908544.7304447154
0.8518018124073523	3767992.023221783
0.8520147628604541	3627404.177822128
0.8522277665511693	3589957.5481773084
0.8524408234928071	3743313.7680693455
0.8526539336986805	3896708.327016397
0.8528670971821053	4050141.2346031945
0.8530803139564007	4203612.500416708
0.8532935840348901	4375249.757085424
0.8535069074308987	4700026.962860468
0.8537202841577566	5024885.362937229
0.8539337142287962	5349824.977614045
0.8541471976573534	5674845.827194328
0.8543607344567677	5999947.931987065
0.8545743246403821	6122341.395640966
0.8547879682215422	6212560.101121386
0.8550016652135977	6302801.361278165
0.8552154156299011	6393065.181749987
0.8554292194838088	6483351.568176994
0.8556430767886797	6549342.400964079
0.855856987557877	6600584.408095566
0.8560709518047664	6651839.225728801
0.8562849695427177	6703106.857066465
0.8564990407851035	6754387.305311978
0.8567131655452999	6801092.942337047
0.8569273438366862	6840293.268730722
0.8571415756726455	6879503.3952060025
0.8573558610665638	6918723.324212917
0.8575702000318304	6957953.058202039
0.8577845925818384	6998224.180401805
0.857999038729984	7044949.003953647
0.8582135384896665	7091685.508711366
0.858428091874289	7138433.697595278
0.8586426988972576	7185193.573526397
0.8588573595719821	7231965.139426515
0.8590720739118751	7272576.841685336
0.8592868419303532	7312471.05191397
0.8595016636408359	7352375.235695162
0.8597165390567462	7392289.395522285
0.8599314681915105	7432213.533889376
0.8601464510585584	7450813.92516782
0.860361487671323	7458095.172579771
0.8605765780432408	7465378.240303572
0.8607917221877518	7472663.128794311
0.8610069201182988	7479949.838507169
0.8612221718483286	7459647.517332699
0.8614374773912907	7399564.1727328105
0.8616528367606385	7339465.807296787
0.8618682499698288	7279352.417269368
0.8620837170323213	7219223.998894451
0.8622992379615795	7175866.988277104
0.8625148127710699	7215568.7980879685
0.8627304414742627	7255280.533351288
0.8629461240846313	7295002.196548431
0.8631618606156526	7334733.790161377
0.8633776510808066	7374475.316672717
0.8635934954935769	7445375.415344198
0.8638093938674504	7518846.54913361
0.8640253462159173	7592336.050706468
0.8642413525524714	7665843.924654716
0.8644574128906095	7739370.175571436
0.8646735272438323	7796385.365690323
0.8648896956256433	7845728.16089995
0.8651059180495498	7895083.2918083845
0.8653221945290621	7944450.761499497
0.8655385250776946	7993830.573058102
0.8657549097089641	8051842.618740224
0.8659713484363913	8120904.520442523
0.8661878412735006	8189983.68762028
0.866404388233819	8259080.124589821
0.8666209893308775	8328193.835668574
0.8668376445782103	8388504.131910438
0.8670543539893549	8412827.77877235
0.8672711175778525	8437157.506545996
0.8674879353572469	8461493.316751558
0.8677048073410862	8485835.210909681
0.8679217335429217	8510183.190541359
0.8681387139763074	8560449.100638613
0.8683557486548015	8612014.811580783
0.8685728375919655	8663593.413950752
0.8687899808013633	8715184.910971202
0.8690071782965637	8766789.305865973
0.869224430091138	8808023.184799924
0.8694417361986609	8845042.372928198
0.8696590966327107	8882070.815853497
0.869876511406869	8919108.51588953
0.8700939805347206	8956155.475350551
0.8703115040298544	8997542.328529561
0.870529081905862	9043890.693578051
0.8707467141763385	9090250.645717788
0.8709644008548827	9136622.187845558
0.8711821419550964	9183005.32285883
0.8713999374905854	9227708.62827833
0.871617787474958	9266585.413687242
0.8718356919218269	9305471.918292541
0.8720536508448075	9344368.144523995
0.8722716642575187	9383274.094811983
0.8724897321735832	9422189.771587562
0.8727078546066265	9466977.631998155
0.8729260315702784	9511865.876541276
0.873144263078171	9556765.343145482
0.8733625491439405	9601676.034616346
0.8735808897812266	9646597.953760095
0.8737992850036719	9671093.804155497
0.874017734824923	9688357.223172761
0.8742362392586293	9705624.958044773
0.874454798318444	9722897.009850502
0.8746734120180236	9740173.37966918
0.8748920803710283	9766405.148652561
0.875110803391121	9801638.45813163
0.8753295810919689	9836880.575938089
0.875548413487242	9872131.504274
0.8757673005906139	9907391.245341994
0.8759862424157616	9956984.920532107
0.8762052389763657	10048041.402549472
0.8764242902861098	10139120.648687275
0.8766433963586814	10230222.664636638
0.8768625572077712	10321347.456090016
0.8770817728470732	10411721.52140356
0.8773010432902849	10441724.679047758
0.8775203685511077	10471735.33748141
0.8777397486432454	10501753.49857963
0.8779591835804065	10531779.164218163
0.8781786733763015	10561812.336273065
0.8783982180446457	10566057.870997317
0.878617817599157	10562630.89343042
0.8788374720535569	10559203.059119131
0.8790571814215703	10555774.367849268
0.8792769457169257	10552344.819406586
0.879496764953355	10563328.406534523
0.8797166391445934	10587273.865956306
0.8799365683043796	10611225.311742948
0.8801565524464557	10635182.745391037
0.8803765915845676	10659146.16839756
0.8805966857324639	10693079.324317466
0.880816834903897	10752046.896567604
0.881037039112623	10811029.21071083
0.8812572983724012	10870026.270432582
0.8814776126969944	10929038.079419294
0.8816979821001687	10986720.133850085
0.8819184065956938	11012766.67574673
0.8821388861973429	11038819.729278876
0.8823594209188923	11064879.29607438
0.882580010774122	11090945.37776157
0.8828006557768155	11117017.975969197
0.8830213559407598	11167105.52125178
0.8832421112797452	11223243.951998206
0.8834629218075651	11279396.417352283
0.8836837875380171	11335562.920822715
0.8839047084849018	11391743.465919025
0.884125684662023	11425139.480128072
0.8843467160831886	11440273.696371071
0.8845678027622095	11455411.69616813
0.8847889447129001	11470553.480465142
0.8850101419490785	11485699.050208226
0.8852313944845657	11538246.045718875
0.885452702333187	11672665.023725212
0.8856740655087704	11807117.606476031
0.8858954840251476	11941603.802372502
0.8861169578961539	12076123.619817885
0.886338487135628	12195016.988781774
0.886560071757412	12105545.046413293
0.8867817117753515	12016050.73605922
0.8870034072032955	11926534.052127521
0.8872251580550963	11836994.989024943
0.8874469643446101	11747433.541156534
0.8876688260856963	11744065.128242431
0.8878907432922178	11758539.260409491
0.8881127159780409	11773017.011109585
0.8883347441570356	11787498.38124737
0.8885568278430749	11801983.371727673
0.8887789670500358	11784207.609923325
0.8890011617917983	11743539.907934569
0.8892234120822464	11702862.039020296
0.8894457179352669	11662174.00063883
0.8896680793647509	11621475.790247735
0.8898904963845921	11577851.929283883
0.8901129690086883	11528654.357364478
0.8903354972509405	11479444.486052103
0.8905580811252535	11430222.312271863
0.8907807206455347	11380987.832948245
0.8910034158256963	11318550.038439563
0.8912261666796527	11138209.08543593
0.8914489732213227	10957823.047194
0.8916718354646282	10777391.91244233
0.8918947534234944	10596915.669907147
0.8921177271118502	10416394.308311442
0.8923407565436284	9940681.997516956
0.8925638417327644	9416704.450196741
0.8927869826931977	8892595.908489522
0.8930101794388711	8368356.33964691
0.8932334319837308	7843985.710912172
0.8934567403417267	7518864.577733041
0.8936801045268123	7317553.7297503855
0.8939035245529441	7116192.554055871
0.8941270004340824	6914781.038067355
0.894350532184191	6713319.169199893
0.8945741198172371	6795060.160388251
0.8947977633471915	7346563.273855764
0.8950214627880284	7898204.2631016215
0.8952452181537254	8449983.162594462
0.8954690294582639	9001900.00681251
0.8956928967156286	9540950.319305021
0.8959168199398075	9995740.750972474
0.8961407991447926	10450644.880247962
0.8963648343445789	10905662.735555755
0.896588925553165	11360794.345327118
0.8968130727845534	11816039.738000982
0.8970372760527496	11930221.473543651
0.8972615353717629	12001743.58252947
0.8974858507556059	12073283.572042545
0.8977102222182949	12144841.44655298
0.8979346497738496	12216417.21053208
0.8981591334362931	12479037.764857605
0.8983836732196523	12846192.092246389
0.8986082691379572	13213438.20821678
0.8988329212052417	13580776.135716164
0.8990576294355432	13948205.89769774
0.8992823938429022	14182303.927997155
0.8995072144413631	14218076.561319867
0.8997320912449734	14253858.137800898
0.8999570242677847	14289648.659676043
0.9001820135238516	14325448.129181657
0.9004070590272328	14361114.104139913
0.9006321607919896	14396042.253372833
0.9008573188321878	14430979.134643096
0.9010825331618959	14465924.750133662
0.9013078037951865	14500879.102028105
0.9015331307461353	14535842.192510504
0.9017585140288219	14866444.775176674
0.9019839536573292	15222593.451381586
0.9022094496457435	15578831.164755292
0.9024350020081551	15935157.937557748
0.9026606107586572	16291573.792053286
0.902886275911347	16491918.08584255
0.9031119974803249	16617032.155546634
0.9033377754796951	16742177.503768146
0.903563609923565	16867354.138326656
0.903789500826046	16992562.06704389
0.9040154482012526	17050929.9219296
0.904241452063303	17022686.34026669
0.9044675124263188	16994435.69770837
0.9046936293044254	16966177.992489412
0.9049198027117517	16937913.22284414
0.9051460326624297	16931306.838603877
0.9053723191705955	17016955.335832633
0.9055986622503881	17102625.245185614
0.9058250619159507	17188316.572015937
0.9060515181814298	17274029.321678024
0.9062780310609752	17359763.499527466
0.9065046005687405	17231448.80056274
0.906731226718883	17091159.67321092
0.9069579095255627	16950835.473577447
0.907184649002944	16810476.192894053
0.907411445165195	16670081.822390346
0.9076382980264862	16913473.45762787
0.907865207600993	17316326.134534016
0.9080921739028933	17719279.52460927
0.9083191969463691	18122333.65303198
0.9085462767456058	18525488.54498699
0.9087734133147922	18686092.17422004
0.9090006066681211	18566469.827212542
0.909227856819788	18446817.57461845
0.9094551637839932	18327135.408961046
0.9096825275749393	18207423.322762266
0.9099099482068329	18080678.77139016
0.9101374256938848	17929015.395420864
0.9103649600503083	17777314.103607647
0.9105925512903209	17625574.886471506
0.9108201994281437	17473797.734530922
0.9110479044780008	17321982.638302524
0.9112756664541204	17711640.647718403
0.911503485370734	18113791.164320707
0.9117313612420768	18516042.218552165
0.9119592940823873	18918393.835547056
0.912187283905908	19320846.040446322
0.9124153307268845	19307711.77372006
0.9126434345595664	19143704.10925188
0.9128715954182063	18979655.442867737
0.9130998133170609	18815565.76431692
0.9133280882703902	18651435.06334647
0.913556420292458	18624616.392588504
0.9137848093975312	18739445.25899153
0.9140132555998806	18854302.832611144
0.9142417589137806	18969189.12062417
0.9144703193535092	19084104.13020927
