#wavelength	surface flux
0.8	83286.15068755932
0.8002000000000001	84729.54243859442
0.8004000500000003	86268.93628328867
0.8006001500125003	87809.68104719352
0.8008003000500035	89350.81099728946
0.8010005001250161	90892.32622987365
0.8012007502500472	92434.22684126376
0.8014010504376099	93970.16606629216
0.8016014007002193	95504.36327142153
0.8018018010503944	97038.94402585216
0.8020022515006572	98573.9084254721
0.8022027520635323	100109.25656619061
0.8024033027515483	101736.46993640989
0.8026039035772362	103453.73830928898
0.8028045545531306	105171.43599926139
0.8030052556917691	106889.56311365712
0.803206007005692	108608.11975982992
0.8034068085074435	110336.00538773302
0.8036076602095705	112089.26914965827
0.8038085621246229	113842.97122752263
0.8040095142651542	115597.11173090753
0.8042105166437206	117351.69076941769
0.8044115692728815	119108.57441899019
0.8046126721651998	120946.1557877793
0.8048138253332411	122784.19655190912
0.8050150287895745	124622.69682623168
0.805216282546772	126461.65672562234
0.8054175866174087	128301.07636498686
0.8056189410140631	130180.7213018279
0.8058203457493168	132072.09234927822
0.8060218008357541	133963.93623948796
0.8062233062859632	135856.2530906712
0.8064248621125346	137749.04302106594
0.806626468328063	139716.3553745262
0.8068281249451449	141747.75888280003
0.8070298319763813	143779.67024195343
0.8072315894343755	145812.0895789451
0.8074333973317341	147845.01702077177
0.8076352556810671	149857.7895049255
0.8078371644949874	151821.32543462477
0.8080391237861113	153785.35224830697
0.8082411335670578	155749.87006869132
0.8084431938504498	157714.87901853287
0.8086453046489125	159677.67016909417
0.8088474659750746	161590.51433171105
0.8090496778415686	163503.83670537113
0.809251940261029	165417.63740962325
0.8094542532460944	167331.91656405304
0.8096566168094059	169246.67428826928
0.8098590309636085	171300.72153188247
0.8100614957213493	173387.77209548737
0.8102640110952797	175475.34442173346
0.8104665770980536	177563.43864106192
0.8106691937423283	179652.054883946
0.8108718610407639	181804.5618719353
0.8110745790060241	184006.06162225734
0.8112773476507757	186208.11174751888
0.8114801669876885	188410.71238531117
0.8116830370294355	190613.86367326163
0.8118859577886929	192772.45274159175
0.8120889292781401	194837.87976803485
0.8122919515104597	196903.8231512344
0.8124950244983374	198970.28302027987
0.8126981482544621	201037.25950429228
0.8129013227915257	203138.5055130498
0.8131045481222237	205626.7513317412
0.8133078242592543	208115.61921188753
0.8135111512153191	210605.10930900322
0.813714529003123	213095.2217786435
0.8139179576353739	215585.9567764016
0.8141214371247829	218763.16047496704
0.8143249674840641	222074.1555529689
0.814528548725935	225385.97837973826
0.8147321808631167	228698.6291622188
0.8149358639083326	232012.10810739393
0.8151395978743097	235159.91251611678
0.8153433827737784	238196.00752666531
0.8155472186194719	241232.86156096536
0.8157511054241268	244270.47480877343
0.815955043200483	247308.84745989554
0.8161590319612831	250612.12084240466
0.8163630717192736	254400.22648158018
0.8165671624872033	258189.2791471613
0.8167713042778252	261979.2790759125
0.8169754971038948	265770.2265046478
0.8171797409781707	269361.19982514787
0.8173840359134155	271349.04957228666
0.8175883819223938	273337.39628185995
0.8177927790178745	275326.24007811176
0.8179972272126291	277315.5810853131
0.8182017265194322	279305.4194277643
0.8184062769510622	283108.18544181995
0.8186108785203001	287190.80833169754
0.8188155312399301	291274.45187729213
0.8190202351227402	295359.1163337776
0.819224990181521	299444.80195637466
0.8194297964290664	303493.10056674405
0.8196346538781738	307519.2606365214
0.8198395625416434	311546.4272463146
0.8200445224322789	315574.6006477619
0.820249533562887	319603.7810925584
0.8204545959462778	323592.6443845568
0.8206597095952644	327515.99430907913
0.8208648745226633	331440.3250710856
0.8210700907412941	335365.63691578194
0.8212753582639793	339291.9300884355
0.8214806771035456	343047.2550005069
0.8216860472728215	345744.0982728289
0.8218914687846397	348441.6157559691
0.822096941651836	351139.8076184815
0.822302465887249	353838.67402895796
0.8225080415037209	356538.21515603847
0.8227136685140968	359466.2579825871
0.8229193469312254	362420.8959248122
0.8231250767679583	365376.27252652386
0.8233308580371503	368332.3879723843
0.8235366907516598	371289.2424471084
0.8237425749243477	376176.6956063356
0.8239485105680789	382088.23007422517
0.824154497695721	388001.2424257279
0.824360536320145	393915.7330303197
0.8245666264542252	399831.7022575623
0.8247727681108388	405061.41735125217
0.8249789613028664	409307.4765973352
0.8251852060431922	413554.5973582334
0.825391502344703	417802.7798993199
0.8255978502202894	422052.0244860456
0.8258042496828445	426404.5226604129
0.8260107007452654	431254.4080903569
0.8262172034204517	436105.50599165354
0.8264237577213068	440957.8166674267
0.8266303636607373	445811.340420871
0.8268370212516525	450666.07755525125
0.8270437305069654	454579.1718141449
0.8272504914395923	458419.56623422116
0.8274573040624523	462260.9207529034
0.8276641683884679	466103.23561021185
0.8278710844305652	469946.5110462393
0.8280780522016729	474426.93598970317
0.8282850717147234	479199.28171083983
0.8284921429826521	483972.8205184019
0.8286992660183978	488747.55271066964
0.8289064408349024	493523.47858598205
0.8291136674451112	498231.0775421448
0.8293209458619727	502852.19102601556
0.8295282760984382	507474.4597882512
0.829735658167463	512097.88411768276
0.8299430920820048	516722.4643031907
0.8301505778550254	521412.246481885
0.8303581154994891	526358.8268410728
0.8305657050283641	531306.6438453553
0.8307733464546212	536255.697803885
0.8309810397912352	541205.9890259124
0.8311887850511829	546157.5178207355
0.8313965822474458	552674.6591982826
0.8316044313930077	559266.0407661693
0.8318123325008561	565859.0701794542
0.8320202855839813	572453.7478500891
0.8322282906553774	579050.0741901422
0.8324363477280413	584651.8824674373
0.8326444568149735	589854.0378188331
0.8328526179291771	595057.4937090607
0.8330608310836596	600262.2504632687
0.8332690962914304	605468.3084066585
0.8334774135655034	610177.5644293202
0.833685782918895	614331.5998714959
0.8338942043646247	618486.6738225296
0.834102677915716	622642.7865420541
0.834311203585195	626799.9382897551
0.8345197813860912	631471.1482891558
0.8347284113314379	637870.3958985962
0.8349370934342709	644271.2433199352
0.8351458277076294	650673.6909531218
0.8353546141645565	657077.7391982273
0.8355634528180977	663483.3884553914
0.8357723436813022	668860.5075036887
0.8359812867672226	674226.2513310212
0.8361902820889144	679593.3365943078
0.8363993296594368	684961.7636289118
0.8366084294918518	690331.5327702763
0.8368175815992247	697226.2804730947
0.8370267859946247	704647.5077917872
0.8372360426911234	712070.5904173069
0.8374453517017962	719495.5288134823
0.8376547130397217	726922.3234442559
0.8378641267179816	733921.1243118207
0.8380735927496613	740495.1514814452
0.8382831111478488	747070.8221578582
0.8384926819256358	753648.1367519369
0.8387023050961173	760227.0956746696
0.8389119806723914	766757.0894716486
0.8391217086675596	773146.2830683271
0.8393314890947265	779537.0739634
0.8395413219670003	785929.4625561972
0.8397512072974922	792323.4492461471
0.8399611450993165	798724.6467703577
0.8401711353855914	805406.1512732018
0.8403811781694378	812089.3261521697
0.8405912734639802	818774.1718248591
0.8408014212823464	825460.6887089699
0.8410116216376671	832148.8772223006
0.8412218745430766	838807.0668904106
0.8414321800117124	845457.7060983971
0.8416425380567154	852110.0079661888
0.8418529486912297	858763.9729094491
0.8420634119284025	865419.6013439395
0.8422739277813847	874208.9202297493
0.8424844962633302	884878.8345613192
0.842695117387396	895551.4163714584
0.8429057911667428	906226.6663270505
0.8431165176145345	916904.5850951368
0.8433272967439382	926117.7473199437
0.8435381285681244	931753.7538478235
0.8437490131002665	937391.1693773341
0.8439599503535415	943029.9942607235
0.84417094034113	948670.2288503378
0.8443819830762154	954432.5193525752
0.8445930785719846	962626.6714695161
0.8448042268416277	970822.8721244817
0.8450154278983382	979021.1218296101
0.8452266817553128	987221.4210971642
0.8454379884257517	995423.770439536
0.8456493479228583	1004811.262979436
0.845860760259839	1014486.0053119347
0.846072225449904	1024163.1663300165
0.8462837435062666	1033842.7466383548
0.8464953144421433	1043524.7468417758
0.8467069382707537	1052272.6334035366
0.8469186150053215	1060292.7073361282
0.847130344659073	1068314.7862872053
0.8473421272452377	1076338.8707580122
0.8475539627770492	1084364.961249945
0.8477658512677435	1091862.0354087306
0.8479777927305605	1098233.4267280386
0.8481897871787432	1104606.4108951746
0.848401834625538	1110980.9883083564
0.8486139350841944	1117357.1593658873
0.8488260885679657	1123146.1531629977
0.8490382950901076	1121759.6810374032
0.8492505546638802	1120372.8622937766
0.8494628673025462	1118985.6968454649
0.8496752330193721	1117598.1846057887
0.8498876518276269	1116210.3254880547
0.8501001237405839	1081758.3914255716
0.8503126487715191	1040697.7435818441
0.850525226933712	999626.8305761784
0.8507378582404455	958545.6498422617
0.8509505427050057	917454.1988131376
0.8511632803406821	884068.2884473301
0.8513760711607672	855957.9509744182
0.8515889151785576	827840.5859170944
0.8518018124073523	799716.1915185297
0.8520147628604541	771584.7660213821
0.8522277665511693	765835.7723541555
0.8524408234928071	801491.9500044638
0.8526539336986805	837157.0416991941
0.8528670971821053	872831.0496668505
0.8530803139564007	908513.9761364567
0.8532935840348901	947857.0205917491
0.8535069074308987	1018046.1273834186
0.8537202841577566	1088252.781451845
0.8539337142287962	1158476.9871837962
0.8541471976573534	1228718.7489671367
0.8543607344567677	1298978.071190936
0.8545743246403821	1328757.0706794276
0.8547879682215422	1352111.9875045933
0.8550016652135977	1375472.7430589623
0.8552154156299011	1398839.338802221
0.8554292194838088	1422211.7761944325
0.8556430767886797	1440569.1512109258
0.855856987557877	1455882.5543706364
0.8560709518047664	1471199.7858811272
0.8562849695427177	1486520.8466995014
0.8564990407851035	1501845.7377830846
0.8567131655452999	1516372.206693078
0.8569273438366862	1529587.7882568808
0.8571415756726455	1542806.6737160773
0.8573558610665638	1556028.8638966435
0.8575702000318304	1569254.3596247404
0.8577845925818384	1582506.2254507937
0.857999038729984	1595905.4687602734
0.8582135384896665	1609308.0618805774
0.858428091874289	1622714.0056491625
0.8586426988972576	1636123.3009036859
0.8588573595719821	1649535.9484820275
0.8590720739118751	1662263.6906444745
0.8592868419303532	1674913.4669996342
0.8595016636408359	1687566.405798883
0.8597165390567462	1700222.5078328273
0.8599314681915105	1712881.7738922832
0.8601464510585584	1724980.158130247
0.860361487671323	1736782.174946236
0.8605765780432408	1748587.1422664258
0.8607917221877518	1760395.0608284553
0.8610069201182988	1772205.931370122
0.8612221718483286	1783531.632557735
0.8614374773912907	1794156.4711466744
0.8616528367606385	1804783.9659452583
0.8618682499698288	1815414.1176175482
0.8620837170323213	1826046.9268277546
0.8622992379615795	1837230.2236313792
0.8625148127710699	1851127.3140322217
0.8627304414742627	1865027.8787056655
0.8629461240846313	1878931.9185202797
0.8631618606156526	1892839.434344849
0.8633776510808066	1906750.4270483719
0.8635934954935769	1921190.0615514175
0.8638093938674504	1935676.3546102045
0.8640253462159173	1950166.2692422557
0.8642413525524714	1964659.8063529648
0.8644574128906095	1979156.9668479485
0.8646735272438323	1993866.6216889876
0.8648896956256433	2008677.0843072543
0.8651059180495498	2023491.2495411765
0.8653221945290621	2038309.1183163929
0.8655385250776946	2053130.691558824
0.8657549097089641	2068289.7528590986
0.8659713484363913	2083879.919109206
0.8661878412735006	2099473.982900883
0.866404388233819	2115071.9452085057
0.8666209893308775	2130673.8070066986
0.8668376445782103	2146111.146832391
0.8670543539893549	2160864.928525687
0.8672711175778525	2175622.3986644163
0.8674879353572469	2190383.558170664
0.8677048073410862	2205148.407966794
0.8679217335429217	2219916.948975382
0.8681387139763074	2236371.4269752232
0.8683557486548015	2252913.5882331193
0.8685728375919655	2269459.88503135
0.8687899808013633	2286010.318403744
0.8690071782965637	2302564.889384503
0.869224430091138	2319075.2613606397
0.8694417361986609	2335570.0924021555
0.8696590966327107	2352069.047151428
0.869876511406869	2368572.126639389
0.8700939805347206	2385079.3318972136
0.8703115040298544	2401755.2417883435
0.870529081905862	2418623.480729512
0.8707467141763385	2435495.9367304095
0.8709644008548827	2452372.610845307
0.8711821419550964	2469253.5041287225
0.8713999374905854	2486174.1780666816
0.871617787474958	2503221.81355924
0.8718356919218269	2520273.710960687
0.8720536508448075	2537329.8713364857
0.8722716642575187	2554390.295752368
0.8724897321735832	2571454.9852743624
0.8727078546066265	2588648.0933094905
0.8729260315702784	2605847.388386024
0.873144263078171	2623050.9832863086
0.8733625491439405	2640258.8790853196
0.8735808897812266	2657471.076858287
0.8737992850036719	2674733.9648798467
0.874017734824923	2692017.598206636
0.8742362392586293	2709305.55244175
0.874454798318444	2726597.828665422
0.8746734120180236	2743894.427958148
0.8748920803710283	2761689.8167730025
0.875110803391121	2779986.5450182166
0.8753295810919689	2798287.8474455024
0.875548413487242	2816593.725198395
0.8757673005906139	2834904.179420727
0.8759862424157616	2853466.4157190826
0.8762052389763657	2872748.5903549404
0.8764242902861098	2892035.5855344436
0.8766433963586814	2911327.402462747
0.8768625572077712	2930624.042345288
0.8770817728470732	2949917.041415818
0.8773010432902849	2968553.940082991
0.8775203685511077	2987195.497974857
0.8777397486432454	3005841.7162561733
0.8779591835804065	3024492.596092082
0.8781786733763015	3043148.1386479256
0.8783982180446457	3061652.802563623
0.878617817599157	3080115.821651194
0.8788374720535569	3098583.456493528
0.8790571814215703	3117055.7082445677
0.8792769457169257	3135532.578058546
0.879496764953355	3153195.135934129
0.8797166391445934	3170125.836551697
0.8799365683043796	3187060.7698444203
0.8801565524464557	3203999.9368704665
0.8803765915845676	3220943.338688285
0.8805966857324639	3237693.4573343145
0.880816834903897	3253951.6549399216
0.881037039112623	3270213.917094936
0.8812572983724012	3286480.2448154883
0.8814776126969944	3302750.639117978
0.8816979821001687	3318904.7290639193
0.8819184065956938	3332229.2814480383
0.8821388861973429	3345557.1649702676
0.8823594209188923	3358888.3804633645
0.882580010774122	3372222.9287603283
0.8828006557768155	3385560.810694374
0.8830213559407598	3403181.8511058916
0.8832421112797452	3421883.715958558
0.8834629218075651	3440590.2562774266
0.8836837875380171	3459301.4732313803
0.8839047084849018	3478017.3679895755
0.884125684662023	3501691.5284745856
0.8843467160831886	3529341.2746365285
0.8845678027622095	3556997.9332350125
0.8847889447129001	3584661.505998151
0.8850101419490785	3612331.994654475
0.8852313944845657	3636817.199255691
0.885452702333187	3654321.187212232
0.8856740655087704	3671829.55116576
0.8858954840251476	3689342.2922102716
0.8861169578961539	3706859.4114400363
0.886338487135628	3723517.9695863654
0.886560071757412	3728697.1938917916
0.8867817117753515	3733877.7130032936
0.8870034072032955	3739059.527244576
0.8872251580550963	3744242.6369394124
0.8874469643446101	3749427.042411676
0.8876688260856963	3768909.4691289435
0.8878907432922178	3791355.656944605
0.8881127159780409	3813807.4563072054
0.8883347441570356	3836264.868619674
0.8885568278430749	3858727.895285197
0.8887789670500358	3878378.333006491
0.8890011617917983	3896034.523197239
0.8892234120822464	3913695.1274355426
0.8894457179352669	3931360.1468248917
0.8896680793647509	3949029.582469102
0.8898904963845921	3959140.6308987485
0.8901129690086883	3954824.176889428
0.8903354972509405	3950506.6437666067
0.8905580811252535	3946188.031260501
0.8907807206455347	3941868.339101275
0.8910034158256963	3934210.1681365864
0.8912261666796527	3896723.869406197
0.8914489732213227	3859228.1991011146
0.8916718354646282	3821723.154878419
0.8918947534234944	3784208.734394704
0.8921177271118502	3746684.9353058916
0.8923407565436284	3587426.4154859586
0.8925638417327644	3408271.368250046
0.8927869826931977	3229071.532252264
0.8930101794388711	3049826.8962954953
0.8932334319837308	2870537.4491797653
0.8934567403417267	2754503.650430246
0.8936801045268123	2677774.634370845
0.8939035245529441	2601026.4360574814
0.8941270004340824	2524259.0506945094
0.894350532184191	2447472.473485216
0.8945741198172371	2459354.7771242727
0.8947977633471915	2618318.6488169436
0.8950214627880284	2777322.261477531
0.8952452181537254	2936365.6250411887
0.8954690294582639	3095448.7494458333
0.8956928967156286	3257453.0615903563
0.8959168199398075	3438197.2444328307
0.8961407991447926	3618986.6133210617
0.8963648343445789	3799821.17955151
0.896588925553165	3980700.9544234136
0.8968130727845534	4161625.9492390584
0.8970372760527496	4238783.726622048
0.8972615353717629	4302971.765528384
0.8974858507556059	4367175.851444454
0.8977102222182949	4431395.988381986
0.8979346497738496	4495632.180353787
0.8981591334362931	4573237.054468046
0.8983836732196523	4658163.565403778
0.8986082691379572	4743111.307967188
0.8988329212052417	4828080.287466239
0.8990576294355432	4913070.509210237
0.8992823938429022	4980123.98108014
0.8995072144413631	5020492.956252255
0.8997320912449734	5060872.023668148
0.8999570242677847	5101261.185850886
0.9001820135238516	5141660.445324172
0.9004070590272328	5179499.5583398035
0.9006321607919896	5203874.023299429
0.9008573188321878	5228254.581875318
0.9010825331618959	5252641.235590839
0.9013078037951865	5277033.985969794
0.9015331307461353	5301432.83453633
0.9017585140288219	5363340.254387065
0.9019839536573292	5428493.336175559
0.9022094496457435	5493662.706234453
0.9024350020081551	5558848.368635936
0.9026606107586572	5624050.327452999
0.902886275911347	5678601.65977282
0.9031119974803249	5728024.428631223
0.9033377754796951	5777459.553181841
0.903563609923565	5826907.036513574
0.903789500826046	5876366.881716174
0.9040154482012526	5917818.885001329
0.904241452063303	5948891.773557904
0.9044675124263188	5979972.430336611
0.9046936293044254	6011060.857279507
0.9049198027117517	6042157.056329156
0.9051460326624297	6073241.158496872
0.9053723191705955	6104248.416640328
0.9055986622503881	6135263.426598292
0.9058250619159507	6166286.190308746
0.9060515181814298	6197316.709710147
0.9062780310609752	6228354.986741378
0.9065046005687405	6215566.1717575295
0.906731226718883	6200328.742798548
0.9069579095255627	6185087.5044823475
0.907184649002944	6169842.455856566
0.907411445165195	6154593.5959686125
0.9076382980264862	6198808.829810531
0.907865207600993	6267732.028660086
0.9080921739028933	6336672.458309333
0.9083191969463691	6405630.123065981
0.9085462767456058	6474605.027238852
0.9087734133147922	6526115.074423513
0.9090006066681211	6557445.956100354
0.909227856819788	6588784.670497572
0.9094551637839932	6620131.219573433
0.9096825275749393	6651485.605286553
0.9099099482068329	6675969.390541893
0.9101374256938848	6676013.205075504
0.9103649600503083	6676057.030562747
0.9105925512903209	6676100.867006363
0.9108201994281437	6676144.71440909
0.9110479044780008	6676188.572773667
0.9112756664541204	6748072.816497864
0.911503485370734	6821619.444787749
0.9117313612420768	6895184.459734708
0.9119592940823873	6968767.86593538
0.912187283905908	7042369.667987626
0.9124153307268845	7058232.897658959
0.9126434345595664	7053137.68798561
0.9128715954182063	7048041.204509849
0.9130998133170609	7042943.446913215
0.9133280882703902	7037844.414877183
0.913556420292458	7060194.670621442
0.9137848093975312	7110860.684393837
0.9140132555998806	7161539.364669669
0.9142417589137806	7212230.714615573
0.9144703193535092	7262934.737398996
