#wavelength	surface flux
0.7	19463.07775360638
0.7001166666666666	19495.91823645155
0.7002333527777778	19506.640746863573
0.700350058336574	19517.365044360657
0.7004667833462966	19528.091129240645
0.7005835278101878	19538.81900180148
0.7007002917314895	19549.54866234105
0.7008170751134447	19560.280111157383
0.7009338779592968	19571.01334854851
0.7010507002722901	19583.3960426749
0.7011675420556689	19597.785902830386
0.701284403312678	19612.17816129588
0.7014012840465635	19626.572818471137
0.7015181842605713	19640.96987475592
0.701635103957948	19655.36933055007
0.701752043141941	19669.77118625352
0.701869001815798	19684.175442266274
0.7019859799827672	19718.757534498352
0.7021029776460976	19767.38635749436
0.7022199948090387	19816.02328529426
0.7023370314748403	19864.668319248773
0.7024540876467528	19913.32146070894
0.702571163328027	19961.982711025932
0.7026882585219152	20010.65207155144
0.7028053732316688	20059.32954363697
0.7029225074605406	20118.89949296132
0.7030396612117841	20182.682322846926
0.7031568344886527	20246.475783204187
0.7032740272944008	20310.279875804797
0.7033912396322832	20374.09460242088
0.7035084715055552	20437.919964824665
0.7036257229174727	20501.755964788877
0.7037429938712924	20565.602604086474
0.7038602843702709	20586.837750240913
0.7039775944176659	20600.847409715847
0.7040949240167356	20614.859404134033
0.7042122731707383	20628.873733884615
0.7043296418829335	20642.89039935683
0.7044470301565806	20656.909400939956
0.70456443799494	20670.930739023333
0.7046818654012724	20684.954413996402
0.7047993123788394	20733.24441902949
0.7049167789309024	20781.581791848912
0.7050342650607243	20829.927220897214
0.7051517707715678	20878.280707517002
0.7052692960666963	20926.642253051203
0.705386840949374	20975.011858842972
0.7055044054228656	21023.389526235784
0.7056219894904361	21066.52138101435
0.7057395931553511	21076.272604559625
0.705857216420877	21086.02545330883
0.7059748592902804	21095.779927532818
0.7060925217668288	21105.536027502523
0.70621020385379	21115.293753488888
0.7063279055544321	21125.053105762905
0.7064456268720246	21134.814084595648
0.7065633678098366	21151.122977328705
0.7066811283711383	21185.463182845186
0.7067989085592001	21219.80911172925
0.7069167083772933	21254.16076493477
0.7070345278286895	21288.51814341585
0.707152366916661	21322.881248126687
0.7072702256444803	21357.2500800216
0.7073881040154211	21391.624640055208
0.7075060020327569	21430.649965615223
0.7076239196997625	21476.44658196487
0.7077418570197124	21522.250831083864
0.7078598139958823	21568.062714244374
0.7079777906315483	21613.882232718785
0.7080957869299869	21659.709387779578
0.7082138028944751	21705.544180699522
0.7083318385282908	21751.386612751652
0.7084498938347124	21768.801592636162
0.708567968817018	21762.111622515607
0.7086860634784875	21755.420537400023
0.7088041778224007	21748.72833710358
0.7089223118520377	21742.03502144043
0.7090404655706796	21735.340590224678
0.709158638981608	21728.64504327038
0.709276832088105	21721.948380391583
0.7093950448934531	21742.082928432057
0.7095132774009353	21775.017458458686
0.7096315296138355	21807.95747757367
0.7097498015354378	21840.902986691828
0.7098680931690269	21873.85398672814
0.7099864045178884	21906.810478597836
0.7101047355853081	21939.77246321617
0.7102230863745722	21972.73994149858
0.7103414568889679	22006.164040097214
0.7104598471317828	22039.696215774853
0.7105782571063047	22073.233980148412
0.7106966868158224	22106.777334149367
0.710815136263625	22140.326278709315
0.7109336054530023	22173.880814760047
0.7110520943872445	22207.44094323344
0.7111706030696424	22241.006665061595
0.7112891315034873	22246.820280092234
0.7114076796920712	22251.310464198796
0.7115262476386865	22255.80139666938
0.7116448353466263	22260.293077628707
0.711763442819184	22264.785507201526
0.711882070059654	22269.278685512614
0.7120007170713306	22273.77261268675
0.7121193838575091	22278.492370527965
0.7122380704214853	22285.560459294757
0.7123567767665555	22292.629726076335
0.7124755028960166	22299.700171069046
0.7125942488131658	22306.771794469252
0.7127130145213015	22313.84459647338
0.7128318000237216	22320.918577277815
0.7129506053237256	22327.993737079065
0.7130694304246129	22334.832715208722
0.7131882753296837	22340.842935966644
0.7133071400422386	22346.85415842803
0.7134260245655789	22352.866382759817
0.7135449289030065	22358.879609128995
0.7136638530578235	22364.893837702566
0.7137827970333332	22370.909068647576
0.7139017608328388	22376.925302131072
0.7140207444596443	22380.464400811765
0.7141397479170543	22379.5833379783
0.7142587712083737	22378.702128301033
0.7143778143369084	22377.820771755483
0.7144968773059646	22376.93926831718
0.7146159601188489	22376.057617961633
0.7147350627788687	22375.17582066436
0.7148541852893318	22374.293876400876
0.7149733276535467	22360.29200573033
0.7150924898748222	22333.058109095287
0.715211671956468	22305.819673477465
0.7153308739017941	22278.576698120352
0.715450095714111	22251.32918226736
0.71556933739673	22224.077125161723
0.7156885989529628	22196.82052604657
0.7158078803861218	22169.55938416486
0.7159271816995193	22095.303613696964
0.7160465028964692	21993.45521897456
0.7161658439802853	21891.589849519703
0.7162852049542819	21789.707502503294
0.7164045858217744	21687.80817509565
0.716523986586078	21585.891864466816
0.7166434072505089	21483.95856778626
0.716762847818384	21382.00828222289
0.7168823082930204	21305.120146564514
0.7170017886777359	21235.59737295452
0.7171212889758488	21166.06301221563
0.7172408091906781	21096.517062416602
0.7173603493255433	21026.959521625915
0.7174799093837642	20957.390387911804
0.7175994893686615	20887.809659342045
0.7177190892835562	20818.217333984223
0.7178387091317702	20853.69032668093
0.7179583489166254	20899.717154265425
0.7180780086414448	20945.75165298788
0.7181976883095517	20991.793824126795
0.7183173879242699	21037.843668960897
0.718437107488924	21083.901188769152
0.7185568470068389	21129.96638483073
0.7186766064813399	21173.916112776198
0.7187963859157535	21164.789845440057
0.7189161853134061	21155.66205705936
0.719036004677625	21146.532747380596
0.7191558440117378	21137.40191615023
0.7192757033190732	21128.26956311464
0.7193955826029597	21119.135688020226
0.7195154818667269	21110.000290613287
0.7196354011137046	21103.417654390305
0.7197553403472235	21108.59430002736
0.7198752995706147	21113.771808438683
0.7199952787872098	21118.950179768075
0.720115278000341	21124.12941415936
0.7202352972133411	21129.309511756375
0.7203553364295432	21134.490472702983
0.7204753956522815	21139.67229714309
0.7205954748848902	21163.918198141073
0.7207155741307044	21230.19539982052
0.7208356933930594	21296.48364770013
0.7209558326752915	21362.78294362107
0.7210759919807375	21429.093289424753
0.7211961713127342	21495.414686952645
0.7213163706746197	21561.747138046903
0.7214365900697322	21628.090644549608
0.7215568295014103	21654.251115748826
0.721677088972994	21632.45762339304
0.7217973684878227	21610.66049878856
0.7219176680492374	21588.859741329954
0.7220379876605789	21567.055350411785
0.722158327325189	21545.247325428456
0.7222786870464099	21523.43566577431
0.7223990668275843	21501.62037084354
0.7225194666720555	21444.688666313257
0.7226398865831676	21362.86217138772
0.7227603265642646	21281.02203871322
0.722880786618692	21199.168266016433
0.7230012667497951	21117.300851024254
0.7231217669609201	21035.4197914629
0.7232422872554135	20953.525085058354
0.7233628276366229	20871.616729535937
0.7234833881078956	20856.741827457226
0.7236039686725803	20867.319644466676
0.7237245693340255	20877.89922444561
0.7238451900955812	20888.480567687893
0.7239658309605971	20899.063674487374
0.7240864919324239	20909.648545138
0.7242071730144127	20920.235179933734
0.724327874209915	20930.823579168577
0.7244485955222832	20827.366516818634
0.7245693369548704	20705.035466280468
0.7246900985110294	20582.68402723406
0.7248108801941148	20460.312196280815
0.7249316820074803	20337.919970022824
0.7250525039544815	20215.507345060258
0.7251733460384739	20093.07431799351
0.7252942082628137	19970.834642001377
0.7254150906308574	19972.43192493357
0.7255359931459625	19974.029474079587
0.7256569158114868	19975.627289483793
0.7257778586307888	19977.225371190565
0.7258988216072273	19978.82371924429
0.7260198047441617	19980.422333689356
0.7261408080449525	19982.021214570166
0.72626183151296	19982.971637819363
0.7263828751515454	19979.61107554066
0.7265039389640706	19976.24995316824
0.726625022953898	19972.88827060876
0.7267461271243904	19969.52602776885
0.7268672514789111	19966.163224555137
0.7269883960208241	19962.799860874224
0.7271095607534942	19959.435936632697
0.7272307456802866	19952.78624854367
0.7273519508045666	19937.26132538812
0.7274731761297006	19921.73381474539
0.7275944216590555	19906.203716184216
0.7277156873959987	19890.67102927328
0.7278369733438982	19875.135753581166
0.727958279506122	19859.597888676475
0.7280796058860397	19844.05743412762
0.7282009524870207	19795.03638722483
0.7283223193124353	19696.489476672094
0.7284437063656539	19597.926141634467
0.7285651136500483	19499.346379374172
0.7286865411689898	19400.750187153706
0.7288079889258514	19302.137562234293
0.7289294569240056	19203.508501877626
0.7290509451668262	19104.863003344115
0.7291724536576875	19020.716815462107
0.7292939823999636	18948.58446597739
0.7294155313970303	18876.44009443428
0.7295371006522632	18804.28369882927
0.7296586901690385	18732.115277158377
0.7297802999507332	18659.93482741724
0.7299019300007252	18587.74234760096
0.7300235803223919	18515.537835704905
0.7301452509191123	18486.097313901497
0.7302669417942654	18476.39599126721
0.7303886529512311	18466.693051745817
0.7305103843933897	18456.98849506783
0.7306321361241218	18447.28232096374
0.7307539081468093	18437.57452916395
0.7308757004648336	18427.865119398877
0.7309975130815778	18418.154091398836
0.7311193460004248	18426.03864048509
0.7312411992247582	18437.90828409828
0.7313630727579622	18449.7799059854
0.7314849666034219	18461.65350647618
0.7316068807645224	18473.52908590037
0.7317288152446498	18485.4066445878
0.7318507700471907	18497.286182868353
0.7319727451755319	18509.167701071947
0.732094740633061	18458.734431235203
0.7322167564231665	18405.487235209122
0.7323387925492371	18352.23116465037
0.7324608490146619	18298.96621807987
0.732582925822831	18245.69239401826
0.7327050229771347	18192.40969098604
0.7328271404809642	18139.118107503255
0.7329492783377112	18085.57560603882
0.7330714365507675	18029.64471029488
0.7331936151235259	17973.704492735
0.7333158140593796	17917.75495180559
0.7334380333617229	17861.796085952607
0.7335602730339499	17805.827893621954
0.7336825330794556	17749.850373259236
0.7338048135016354	17693.863523309898
0.7339271143038857	17648.313611308073
0.734049435489603	17637.75827215414
0.7341717770621846	17627.20117377701
0.7342941390250283	17616.64231588349
0.7344165213815324	17606.08169818033
0.734538924135096	17595.519320374202
0.7346613472891185	17584.955182171783
0.734783790847	17574.389283279663
0.7349062548121412	17538.69259706221
0.7350287391879431	17458.573381049384
0.7351512439778078	17378.440811833723
0.7352737691851374	17298.294887189957
0.735396314813335	17218.135604892013
0.7355188808658037	17137.96296271382
0.7356414673459482	17057.776958428432
0.7357640742571725	16977.57758980905
0.7358867016028818	16905.713359253365
0.7360093493864824	16842.082052513993
0.7361320176113801	16778.44014055692
0.736254706280982	16714.787621614516
0.7363774153986956	16651.124493918873
0.7365001449679286	16587.45075570208
0.7366228949920899	16523.766405195533
0.7367456654745885	16460.071440630567
0.7368684564188344	16397.843281385154
0.7369912678282374	16336.4397580764
0.7371140997062088	16275.026000847067
0.7372369520561599	16213.602007991472
0.7373598248815024	16152.167777803872
0.7374827181856494	16090.723308577804
0.7376056319720137	16029.26859860686
0.7377285662440091	15967.803646184246
0.7378515210050496	15877.33129308572
0.7379744962585505	15778.119499001954
0.738097492007927	15678.8911696192
0.7382205082565949	15579.646302181613
0.738343545007971	15480.384893932804
0.7384666022654723	15381.106942115854
0.7385896800325165	15281.812443973751
0.7387127783125219	15182.501396748497
0.7388358971089073	15171.297091766468
0.7389590364250921	15168.929904524746
0.7390821962644963	15166.562322751819
0.7392053766305403	15164.19434638193
0.7393285775266454	15161.825975349313
0.7394517989562333	15159.457209588189
0.7395750409227259	15157.088049032773
0.7396983034295463	15152.150730009067
0.739821586480118	15090.090775680317
0.7399448900778645	15028.02047802597
0.7400682142262109	14965.939835321826
0.740191558928582	14903.848845843962
0.7403149241884034	14841.747507867902
0.7404383100091014	14779.63581966883
0.7405617163941028	14717.513779521763
0.7406851433468352	14651.531418478356
0.7408085908707264	14567.925386211973
0.7409320589692048	14484.30541960692
0.7410555476456997	14400.671516340697
0.7411790569036406	14317.023674090658
0.7413025867464579	14233.361890533555
0.7414261371775823	14149.686163345836
0.7415497082004452	14065.996490203648
0.7416732998184786	13981.416130934787
0.741796912035115	13894.940899639316
0.7419205448537874	13808.451255805316
0.7420441982779297	13721.947197030679
0.742167872310976	13635.428720912832
0.7422915669563612	13548.89582504897
0.7424152822175206	13462.34850703582
0.7425390180978901	13375.78676446972
0.7426627746009065	13305.77050623888
0.7427865517300065	13255.930296323539
0.7429103494886282	13206.081779706496
0.7430341678802096	13156.224955003387
0.7431580069081896	13106.359820829497
0.7432818665760077	13056.486375799841
0.7434057468871037	13006.604618529389
0.7435296478449182	12956.714547632753
0.7436535694528923	12894.422103541183
0.7437775117144678	12823.635164385089
0.7439014746330868	12752.83642740591
0.7440254582121922	12682.025890637171
0.7441494624552276	12611.203552112278
0.7442734873656368	12540.369409864312
0.7443975329468645	12469.523461925914
0.7445215992023557	12398.665706329533
0.7446456861355559	12323.160988587044
0.7447697937499119	12245.936219608682
0.7448939220488703	12168.69857983551
0.7450180710358784	12091.448067122443
0.7451422407143843	12014.184679323915
0.7452664310878367	11936.908414294016
0.7453906421596846	11859.619269886693
0.7455148739333779	11782.317243955276
0.7456391264123667	11711.87797170991
0.7457633996001021	11642.526335979397
0.7458876935000356	11573.163141642804
0.7460120081156189	11503.788386773955
0.7461363434503048	11434.402069445929
0.7462606995075466	11365.004187731618
0.7463850762907978	11295.59473970379
0.7465094738035127	11226.16418962166
0.7466338920491467	11154.228075336368
0.746758331031155	11082.279971698625
0.7468827907529935	11010.319876710359
0.7470072712181189	10938.347788372928
0.7471317724299886	10866.363704687426
0.7472562943920602	10794.367623654694
0.7473808371077922	10722.359543275059
0.7475054005806435	10649.800724432755
0.7476299848140736	10573.911403098906
0.7477545898115426	10498.009433544818
0.7478792155765113	10422.09481366245
0.7480038621124406	10346.167541343499
0.7481285294227926	10270.227614479176
0.7482532175110298	10194.275030960296
0.7483779263806148	10118.309788677603
0.7485026560350116	10042.600655111677
0.7486274064776842	9967.606318188142
0.748752177712097	9892.599482208587
0.7488769697417158	9817.580145089543
0.749001782570006	9742.548304747737
0.7491266162004343	9667.503959099231
0.7492514706364677	9592.447106059748
0.7493763458815739	9517.377743544683
0.7495012419392209	9441.121082902642
0.7496261588128773	9363.162817128909
0.7497510965060128	9285.191558310826
0.7498760550220971	9207.207304282969
0.7500010343646007	9129.210052879429
0.7501260345369949	9051.199801933948
0.750251055542751	8973.176549280066
0.7503760973853414	8895.140292750693
0.7505011600682389	8817.696976843199
0.750626243594917	8740.746705325579
0.7507513479688495	8663.783608762822
0.7508764731935109	8586.807685017278
0.7510016192723765	8509.818931951091
0.7511267862089218	8432.817347426131
0.7512519740066232	8355.802929303723
0.7513771826689577	8278.775675444916
0.7515024121994025	8204.608248613667
0.7516276626014359	8131.767858357304
0.751752933878536	8058.915328036026
0.7518782260341824	7986.050655626336
0.7520035390718548	7913.173839104546
0.7521288729950334	7840.284876446706
0.7522542278071992	7767.383765628419
0.7523796035118337	7694.470504624958
0.7525050001124189	7619.572648432172
0.7526304176124378	7544.233347027776
0.7527558560153731	7468.881489073243
0.752881315324709	7393.517072475644
0.7530067955439299	7318.140095141919
0.7531322966765205	7242.750554978738
0.7532578187259665	7167.348449892175
0.7533833616957542	7091.933777788099
0.75350892558937	7015.770734474688
0.7536345104103016	6939.56039780306
0.7537601161620366	6863.337359408693
0.7538857428480638	6787.1016171745205
0.7540113904718717	6710.853168983406
0.7541370590369503	6634.592012717611
0.7542627485467898	6558.318146259056
0.7543884590048808	6482.463208526207
0.7545141904147151	6410.900001632296
0.7546399427797842	6339.324867537352
0.7547657161035808	6267.73780425338
0.754891510389598	6196.138809792198
0.7550173256413296	6124.527882165244
0.7551431618622698	6052.905019383702
0.7552690190559135	5981.270219458379
0.7553948972257561	5909.484786094155
0.7555207963752938	5837.221843923233
0.755646716508023	5764.946857928656
0.755772657627441	5692.659826103055
0.7558986197370455	5620.360746438806
0.756024602840335	5548.049616927965
0.7561506069408084	5475.726435562206
0.7562766320419653	5403.3912003328205
0.7564026781473054	5330.5946776695755
0.75652874526033	5256.995494555671
0.7566548333845401	5183.38404491121
0.7567809425234375	5109.760326691834
0.7569070726805247	5036.124337852798
0.7570332238593047	4962.476076348964
0.7571593960632813	4888.815540134809
0.7572855892959586	4815.142727164615
0.7574118035608413	4743.886533477183
0.7575380388614347	4674.994734022033
0.7576642952012449	4606.091452600282
0.7577905725837782	4537.176687298393
0.7579168710125422	4468.250436202164
0.7580431904910444	4399.312697397393
0.7581695310227928	4330.3634689695755
0.7582958926112967	4261.402749003599
0.7584222752600652	4193.274437647925
0.7585486789726085	4125.6195611024195
0.7586751037524372	4057.9534087441316
0.7588015496030628	3990.2759786936517
0.7589280165279966	3922.5872690716305
0.7590545045307512	3854.8872779980056
0.7591810136148396	3787.1760035925367
0.7593075437837755	3719.453443974567
0.7594340950410726	3653.132028615365
0.7595606673902461	3587.209357677193
0.7596872608348112	3521.2756996271323
0.7598138753782836	3455.331052634136
0.75994051102418	3389.3754148665794
0.7600671677760173	3323.408784492779
0.7601938456373134	3257.431159680533
0.7603205446115863	3191.442538597522
0.7604472647023548	3125.3610164275033
0.7605740059131385	3059.2603395236506
0.7607007682474575	2993.148645840249
0.7608275517088319	2927.0259335413807
0.7609543563007835	2860.8922007903157
0.7610811820268336	2794.747445750499
0.7612080288905045	2728.591666584969
0.7613348968953197	2662.288117531825
0.7614617860448022	2593.1678344985926
0.7615886963424764	2524.0360314180934
0.7617156277918667	2454.8927063704814
0.7618425803964988	2385.7378574353042
0.7619695541598982	2316.57148269199
0.7620965490855914	2247.3935802196024
0.7622235651771058	2178.2041480967227
0.7623506024379685	2109.561383996427
0.7624776608717082	2043.3538291904515
0.7626047404818536	1977.1352397920054
0.7627318412719337	1910.9056139621068
0.762858963245479	1844.6649498611948
0.7629861064060198	1778.4132456495934
0.7631132707570876	1712.1504994872212
0.7632404563022137	1645.8767095338815
0.7633676630449308	1579.7168288209307
0.7634948909887717	1513.8119088963563
0.7636221401372697	1447.8960048185468
0.7637494104939593	1381.9691147566623
0.7638767020623748	1316.0312368798627
0.7640040148460518	1250.082369356675
0.7641313488485262	1184.1225103555694
0.7642587040733344	1118.1516580445552
0.7643860805240132	1051.8104580012546
0.7645134782041005	985.0293857276371
0.7646408971171346	918.2371832752797
0.764768337266654	851.4338487892046
0.7648957986561985	784.619380414027
0.7650232812893079	717.793776294129
