#wavelength	surface flux
0.7	27161410.185315907
0.7001166666666666	27404002.3891781
0.7002333527777778	27701474.621403992
0.700350058336574	27998996.432335112
0.7004667833462966	28296567.830234334
0.7005835278101878	28594188.82336736
0.7007002917314895	28891859.419998765
0.7008170751134447	29189579.628396228
0.7009338779592968	29487349.45682829
0.7010507002722901	29610611.4216796
0.7011675420556689	29521469.067655444
0.701284403312678	29432311.856572423
0.7014012840465635	29343139.7859541
0.7015181842605713	29253952.85332402
0.701635103957948	29164751.05620523
0.701752043141941	29075534.392120272
0.701869001815798	28986302.858591173
0.7019859799827672	28803430.899993163
0.7021029776460976	28555370.34958806
0.7022199948090387	28307268.455757573
0.7023370314748403	28059125.211611558
0.7024540876467528	27810940.610258225
0.702571163328027	27562714.644805077
0.7026882585219152	27314447.308357023
0.7028053732316688	27066138.59401992
0.7029225074605406	26956963.315743852
0.7030396612117841	26901511.622637182
0.7031568344886527	26846050.687581655
0.7032740272944008	26790580.509036984
0.7033912396322832	26735101.085462525
0.7035084715055552	26679612.415317528
0.7036257229174727	26624114.497060817
0.7037429938712924	26568607.329151016
0.7038602843702709	26885251.966603942
0.7039775944176659	27265070.616768513
0.7040949240167356	27644952.570041597
0.7042122731707383	28024897.83697336
0.7043296418829335	28404906.428116493
0.7044470301565806	28784978.354024753
0.70456443799494	29165113.625253707
0.7046818654012724	29545312.252361424
0.7047993123788394	28484119.91965765
0.7049167789309024	27421096.588759962
0.7050342650607243	26357896.087305482
0.7051517707715678	25294518.38576792
0.7052692960666963	24230963.45461397
0.705386840949374	23167231.26430527
0.7055044054228656	22103321.785296455
0.7056219894904361	21211616.36234463
0.7057395931553511	21415227.604692362
0.705857216420877	21618872.782247312
0.7059748592902804	21822551.900665075
0.7060925217668288	22026264.965602778
0.70621020385379	22230011.982717935
0.7063279055544321	22433792.957669023
0.7064456268720246	22637607.896116246
0.7065633678098366	22825096.92514868
0.7066811283711383	22967561.79676864
0.7067989085592001	23110050.41253387
0.7069167083772933	23252562.77640164
0.7070345278286895	23395098.892330144
0.707152366916661	23537658.764278
0.7072702256444803	23680242.396204345
0.7073881040154211	23822849.79206954
0.7075060020327569	23895525.259078115
0.7076239196997625	23866333.044042617
0.7077418570197124	23837135.963637978
0.7078598139958823	23807934.01705327
0.7079777906315483	23778727.20347744
0.7080957869299869	23749515.522099365
0.7082138028944751	23720298.972107746
0.7083318385282908	23691077.552691106
0.7084498938347124	23620437.129510514
0.708567968817018	23514673.18430087
0.7086860634784875	23408891.6117669
0.7088041778224007	23303092.40897076
0.7089223118520377	23197275.572974287
0.7090404655706796	23091441.10083855
0.709158638981608	22985588.989623994
0.709276832088105	22879719.236390885
0.7093950448934531	22902611.137120526
0.7095132774009353	22986923.090096325
0.7096315296138355	23071249.095064323
0.7097498015354378	23155589.154366456
0.7098680931690269	23239943.27034506
0.7099864045178884	23324311.4453431
0.7101047355853081	23408693.68170362
0.7102230863745722	23493089.981770147
0.7103414568889679	23412991.15980322
0.7104598471317828	23295498.624661893
0.7105782571063047	23177986.507431462
0.7106966868158224	23060454.804848164
0.710815136263625	22942903.5136478
0.7109336054530023	22825332.630565487
0.7110520943872445	22707742.15233604
0.7111706030696424	22590132.07569348
0.7112891315034873	22705067.533668477
0.7114076796920712	22831118.499985125
0.7115262476386865	22957190.47479616
0.7116448353466263	23083283.46160291
0.711763442819184	23209397.463907532
0.711882070059654	23335532.485212643
0.7120007170713306	23461688.52902123
0.7121193838575091	23587648.697642386
0.7122380704214853	23711367.635686565
0.7123567767665555	23835107.193553627
0.7124755028960166	23958867.37468039
0.7125942488131658	24082648.182503916
0.7127130145213015	24206449.620462418
0.7128318000237216	24330271.69199353
0.7129506053237256	24454114.400536742
0.7130694304246129	24523998.71669895
0.7131882753296837	24405164.965669204
0.7133071400422386	24286311.409014255
0.7134260245655789	24167438.04343328
0.7135449289030065	24048544.86562467
0.7136638530578235	23929631.872286487
0.7137827970333332	23810699.06011591
0.7139017608328388	23691746.42581
0.7140207444596443	23639948.118813396
0.7141397479170543	23707973.200345926
0.7142587712083737	23776009.61939195
0.7143778143369084	23844057.377841204
0.7144968773059646	23912116.477583546
0.7146159601188489	23980186.92050916
0.7147350627788687	24048268.708508596
0.7148541852893318	24116361.843472674
0.7149733276535467	24249555.077578206
0.7150924898748222	24448404.55152613
0.715211671956468	24647287.16705308
0.7153308739017941	24846202.92968278
0.715450095714111	25045151.844939485
0.71556933739673	25244133.918348763
0.7156885989529628	25443149.15543692
0.7158078803861218	25642197.56173155
0.7159271816995193	25702193.3463888
0.7160465028964692	25680564.44522232
0.7161658439802853	25658931.93923898
0.7162852049542819	25637295.82783798
0.7164045858217744	25615656.1104184
0.716523986586078	25594012.786379263
0.7166434072505089	25572365.855119463
0.716762847818384	25550715.316037774
0.7168823082930204	25670732.481972888
0.7170017886777359	25832448.748287078
0.7171212889758488	25994191.967312213
0.7172408091906781	26155962.14354057
0.7173603493255433	26317759.281465013
0.7174799093837642	26479583.38557902
0.7175994893686615	26641434.460377112
0.7177190892835562	26803312.51035427
0.7178387091317702	27034227.20909143
0.7179583489166254	27272107.782413296
0.7180780086414448	27510028.002497572
0.7181976883095517	27747987.875951853
0.7183173879242699	27985987.409385063
0.718437107488924	28224026.60940724
0.7185568470068389	28462105.482629508
0.7186766064813399	28696506.19435381
0.7187963859157535	28837991.746686198
0.7189161853134061	28979500.879943963
0.719036004677625	29121033.59805729
0.7191558440117378	29262589.904956877
0.7192757033190732	29404169.804574482
0.7193955826029597	29545773.300841853
0.7195154818667269	29687400.39769206
0.7196354011137046	29787661.329249017
0.7197553403472235	29697373.072305523
0.7198752995706147	29607069.767319243
0.7199952787872098	29516751.41178207
0.720115278000341	29426418.003185645
0.7202352972133411	29336069.53902111
0.7203553364295432	29245706.01677935
0.7204753956522815	29155327.43395042
0.7205954748848902	29069263.70619278
0.7207155741307044	28992731.485753972
0.7208356933930594	28916186.509945225
0.7209558326752915	28839628.77664049
0.7210759919807375	28763058.283713438
0.7211961713127342	28686475.02903766
0.7213163706746197	28609879.010485984
0.7214365900697322	28533270.225931298
0.7215568295014103	28666730.226821393
0.721677088972994	29050875.15542251
0.7217973684878227	29435084.10817775
0.7219176680492374	29819357.095758904
0.7220379876605789	30203694.128837757
0.722158327325189	30588095.218088932
0.7222786870464099	30972560.374188114
0.7223990668275843	31357089.607813474
0.7225194666720555	31543385.046464458
0.7226398865831676	31589172.860179886
0.7227603265642646	31634968.30519749
0.722880786618692	31680771.382789362
0.7230012667497951	31726582.094227467
0.7231217669609201	31772400.440784153
0.7232422872554135	31818226.42373189
0.7233628276366229	31864060.04434353
0.7234833881078956	31786232.212835815
0.7236039686725803	31661439.02876041
0.7237245693340255	31536625.045821194
0.7238451900955812	31411790.260551255
0.7239658309605971	31286934.66948392
0.7240864919324239	31162058.269151237
0.7242071730144127	31037161.056085162
0.724327874209915	30912243.02681717
0.7244485955222832	31232914.518323053
0.7245693369548704	31627317.360134326
0.7246900985110294	32021785.935751986
0.7248108801941148	32416320.2561333
0.7249316820074803	32810920.332233354
0.7250525039544815	33205586.175013404
0.7251733460384739	33600317.795433976
0.7252942082628137	33994465.01050574
0.7254150906308574	34011934.94744873
0.7255359931459625	34029407.79604788
0.7256569158114868	34046883.556788474
0.7257778586307888	34064362.230155855
0.7258988216072273	34081843.81663547
0.7260198047441617	34099328.316712804
0.7261408080449525	34116815.73087352
0.72626183151296	34114198.70806359
0.7263828751515454	33977956.361394964
0.7265039389640706	33841691.3076686
0.726625022953898	33705403.54309985
0.7267461271243904	33569093.063903615
0.7268672514789111	33432759.866294265
0.7269883960208241	33296403.946485437
0.7271095607534942	33160025.30068988
0.7272307456802866	32999423.47560463
0.7273519508045666	32773423.628070697
0.7274731761297006	32547386.11389561
0.7275944216590555	32321310.926801503
0.7277156873959987	32095198.060509466
0.7278369733438982	31869047.50873935
0.727958279506122	31642859.265211206
0.7280796058860397	31416633.323642198
0.7282009524870207	31249060.385617003
0.7283223193124353	31168269.61149386
0.7284437063656539	31087465.372241862
0.7285651136500483	31006647.665616527
0.7286865411689898	30925816.489373583
0.7288079889258514	30844971.84126774
0.7289294569240056	30764113.719054062
0.7290509451668262	30683242.12048659
0.7291724536576875	30879560.925546598
0.7292939823999636	31305605.707200103
0.7294155313970303	31731721.49631807
0.7295371006522632	32157908.304734107
0.7296586901690385	32584166.144284546
0.7297802999507332	33010495.026808057
0.7299019300007252	33436894.964146424
0.7300235803223919	33863365.968139865
0.7301452509191123	34129231.22793875
0.7302669417942654	34320977.28604857
0.7303886529512311	34512755.3018348
0.7305103843933897	34704565.28062371
0.7306321361241218	34896407.22774227
0.7307539081468093	35088281.148519024
0.7308757004648336	35280187.04828217
0.7309975130815778	35472124.93236216
0.7311193460004248	35722424.55103423
0.7312411992247582	35985970.99592507
0.7313630727579622	36249561.36522333
0.7314849666034219	36513195.66625008
0.7316068807645224	36776873.90632684
0.7317288152446498	37040596.09277706
0.7318507700471907	37304362.23292516
0.7319727451755319	37568172.33409652
0.732094740633061	37958675.015843
0.7322167564231665	38354944.54200226
0.7323387925492371	38751280.11308257
0.7324608490146619	39147681.740091294
0.732582925822831	39544149.43403794
0.7327050229771347	39940683.205933124
0.7328271404809642	40337283.0667907
0.7329492783377112	40685629.85889628
0.7330714365507675	40559006.14377353
0.7331936151235259	40432361.32469829
0.7333158140593796	40305695.39815336
0.7334380333617229	40179008.36062047
0.7335602730339499	40052300.20858127
0.7336825330794556	39925570.9385167
0.7338048135016354	39798820.54690736
0.7339271143038857	39488739.837057665
0.734049435489603	38564395.95406432
0.7341717770621846	37639898.01375698
0.7342941390250283	36715245.99046007
0.7344165213815324	35790439.858492956
0.734538924135096	34865479.59216916
0.7346613472891185	33940365.16580219
0.734783790847	33015096.55369716
0.7349062548121412	32048615.57784877
0.7350287391879431	31009401.56079176
0.7351512439778078	29970014.34139645
0.7352737691851374	28930453.890799154
0.735396314813335	27890720.18012584
0.7355188808658037	26850813.18050247
0.7356414673459482	25810732.863043703
0.7357640742571725	24770479.198866084
0.7358867016028818	24256872.497806773
0.7360093493864824	24263462.788965665
0.7361320176113801	24270054.178506408
0.736254706280982	24276646.666612074
0.7363774153986956	24283240.253465764
0.7365001449679286	24289834.939250585
0.7366228949920899	24296430.72414971
0.7367456654745885	24303027.608346317
0.7368684564188344	24078505.854989816
0.7369912678282374	23723322.67669235
0.7371140997062088	23368080.30119836
0.7372369520561599	23012778.718641452
0.7373598248815024	22657417.919154916
0.7374827181856494	22301997.892867867
0.7376056319720137	21946518.629909746
0.7377285662440091	21590980.120407738
0.7378515210050496	21553636.429062705
0.7379744962585505	21612039.483047772
0.738097492007927	21670452.270875156
0.7382205082565949	21728874.794167142
0.738343545007971	21787307.054546334
0.7384666022654723	21845749.053635646
0.7385896800325165	21904200.79305805
0.7387127783125219	21962662.274437096
0.7388358971089073	21804278.221693747
0.7389590364250921	21624116.649005607
0.7390821962644963	21443925.049388554
0.7392053766305403	21263703.41783849
0.7393285775266454	21083451.749349706
0.7394517989562333	20903170.038916003
0.7395750409227259	20722858.28153085
0.7396983034295463	20570087.629078194
0.739821586480118	21030632.418637
0.7399448900778645	21491253.965659816
0.7400682142262109	21951952.28294187
0.740191558928582	22412727.383276317
0.7403149241884034	22873579.279460452
0.7404383100091014	23334507.98429407
0.7405617163941028	23795513.5105782
0.7406851433468352	24086228.62112713
0.7408085908707264	23597602.987261657
0.7409320589692048	23108895.915790774
0.7410555476456997	22620107.393140916
0.7411790569036406	22131237.405737642
0.7413025867464579	21642285.940002993
0.7414261371775823	21153252.982357256
0.7415497082004452	20664138.519218955
0.7416732998184786	20314724.503325194
0.741796912035115	20265112.090519316
0.7419205448537874	20215491.408977985
0.7420441982779297	20165862.457323067
0.742167872310976	20116225.23417616
0.7422915669563612	20066579.738158725
0.7424152822175206	20016925.967891973
0.7425390180978901	19967263.92199687
0.7426627746009065	19835731.69573186
0.7427865517300065	19604382.025242582
0.7429103494886282	19372993.79647465
0.7430341678802096	19141567.0030021
0.7431580069081896	18910101.63839732
0.7432818665760077	18678597.696231443
0.7434057468871037	18447055.1700754
0.7435296478449182	18215474.053498466
0.7436535694528923	18045782.006102607
0.7437775117144678	17918453.063612327
0.7439014746330868	17791102.899631824
0.7440254582121922	17663731.51062388
0.7441494624552276	17536338.89305105
0.7442734873656368	17408925.04337532
0.7443975329468645	17281489.958057877
0.7445215992023557	17154033.633559562
0.7446456861355559	17039365.639406633
0.7447697937499119	16929397.240519267
0.7448939220488703	16819410.513565447
0.7450180710358784	16709405.455490563
0.7451422407143843	16599382.063239321
0.7452664310878367	16489340.333755935
0.7453906421596846	16379280.26398442
0.7455148739333779	16269201.850867907
0.7456391264123667	16239840.3195457
0.7457633996001021	16223383.011186477
0.7458876935000356	16206922.959942497
0.7460120081156189	16190460.165356675
0.7461363434503048	16173994.62697175
0.7462606995075466	16157526.34433041
0.7463850762907978	16141055.316975322
0.7465094738035127	16124228.84533774
0.7466338920491467	16015135.443854071
0.746758331031155	15906023.860136714
0.7468827907529935	15796894.091155533
0.7470072712181189	15687746.13387952
0.7471317724299886	15578579.985277273
0.7472562943920602	15469395.642317
0.7473808371077922	15360193.10196614
0.7475054005806435	15252481.71905725
0.7476299848140736	15154049.436769092
0.7477545898115426	15055600.74910053
0.7478792155765113	14957135.653317334
0.7480038621124406	14858654.146684917
0.7481285294227926	14760156.226468084
0.7482532175110298	14661641.88993111
0.7483779263806148	14563111.134338187
0.7485026560350116	14467054.12433668
0.7486274064776842	14377720.649600526
0.748752177712097	14288372.285952078
0.7488769697417158	14199009.030909497
0.749001782570006	14109630.881991185
0.7491266162004343	14020237.836714746
0.7492514706364677	13930829.892597387
0.7493763458815739	13841407.047155919
0.7495012419392209	13738976.94296893
0.7496261588128773	13617851.708580684
0.7497510965060128	13496706.286653291
0.7498760550220971	13375540.673822287
0.7500010343646007	13254354.86672246
0.7501260345369949	13133148.861988058
0.750251055542751	13011922.656253003
0.7503760973853414	12890676.24615025
0.7505011600682389	12761071.175589124
0.750626243594917	12624482.086826108
0.7507513479688495	12487870.233215174
0.7508764731935109	12351235.610961922
0.7510016192723765	12214578.216271596
0.7511267862089218	12077898.045348946
0.7512519740066232	11941195.094397763
0.7513771826689577	11804469.359621342
0.7515024121994025	11676721.842719115
0.7516276626014359	11553149.809155237
0.751752933878536	11429557.180252647
0.7518782260341824	11305943.952578533
0.7520035390718548	11182310.12269975
0.7521288729950334	11058655.68718272
0.7522542278071992	10934980.642593093
0.7523796035118337	10811284.985495973
0.7525050001124189	10683872.912863206
0.7526304176124378	10555635.851127714
0.7527558560153731	10427377.416548766
0.752881315324709	10299097.60556393
0.7530067955439299	10170796.414610548
0.7531322966765205	10042473.840125512
0.7532578187259665	9914129.878544692
0.7533833616957542	9785764.526303612
0.75350892558937	9632719.147712454
0.7536345104103016	9478488.742200358
0.7537601161620366	9324232.631620757
0.7538857428480638	9169950.811689243
0.7540113904718717	9015643.278121272
0.7541370590369503	8861310.026631074
0.7542627485467898	8706951.0529322
0.7543884590048808	8552897.157870583
0.7545141904147151	8402116.41342814
0.7546399427797842	8251310.538861869
0.7547657161035808	8100479.529983144
0.754891510389598	7949623.382602949
0.7550173256413296	7798742.092531462
0.7551431618622698	7647835.655578334
0.7552690190559135	7496904.067552412
0.7553948972257561	7346084.828946503
0.7555207963752938	7195702.005259495
0.755646716508023	7045294.117768625
0.755772657627441	6894861.162296455
0.7558986197370455	6744403.134665018
0.756024602840335	6593920.03069568
0.7561506069408084	6443411.846209016
0.7562766320419653	6292878.577024801
0.7564026781473054	6145695.195780769
0.75652874526033	6004426.342756122
0.7566548333845401	5863133.944922565
0.7567809425234375	5721817.998356085
0.7569070726805247	5580478.499131925
0.7570332238593047	5439115.44332458
0.7571593960632813	5297728.8270077985
0.7572855892959586	5156318.646254958
0.7574118035608413	5022698.906132194
0.7575380388614347	4896701.596064457
0.7576642952012449	4770683.286444994
0.7577905725837782	4644643.973774109
0.7579168710125422	4518583.654550889
0.7580431904910444	4392502.325274417
0.7581695310227928	4266399.982443225
0.7582958926112967	4140276.6225547357
0.7584222752600652	4022169.92312552
0.7585486789726085	3908660.88024046
0.7586751037524372	3795132.9191815425
0.7588015496030628	3681586.0367955603
0.7589280165279966	3568020.229929405
0.7590545045307512	3454435.4954287717
0.7591810136148396	3340831.830139058
0.7593075437837755	3227209.230904962
0.7594340950410726	3125604.406327388
0.7595606673902461	3027474.9378969134
0.7596872608348112	2929329.1145549356
0.7598138753782836	2831166.9335758425
0.75994051102418	2732988.392233161
0.7600671677760173	2634793.4878003323
0.7601938456373134	2536582.217550023
0.7603205446115863	2438354.5787547273
0.7604472647023548	2352657.578822348
0.7605740059131385	2268193.4673653296
0.7607007682474575	2183715.2785563194
0.7608275517088319	2099223.010049362
0.7609543563007835	2014716.659497466
0.7610811820268336	1930196.2245538621
0.7612080288905045	1845661.7028712635
0.7613348968953197	1761616.8187980712
0.7614617860448022	1687893.2868065997
0.7615886963424764	1614157.4675596957
0.7617156277918667	1540409.3590096554
0.7618425803964988	1466648.9591081291
0.7619695541598982	1392876.2658066389
0.7620965490855914	1319091.2770563196
0.7622235651771058	1245293.9908077898
0.7623506024379685	1174503.5223469413
0.7624776608717082	1116934.3763185223
0.7626047404818536	1059355.6354324294
0.7627318412719337	1001767.298089621
0.762858963245479	944169.3626905526
0.7629861064060198	886561.8276355793
0.7631132707570876	828944.6913247035
0.7632404563022137	771317.9521578278
0.7633676630449308	717570.0325781504
0.7634948909887717	672090.318768589
0.7636221401372697	626603.0250067852
0.7637494104939593	581108.1500293115
0.7638767020623748	535605.6925727406
0.7640040148460518	490095.65137320844
0.7641313488485262	444578.02516681136
0.7642587040733344	399052.8126893283
0.7643860805240132	359235.31207411806
0.7645134782041005	326231.24066942383
0.7646408971171346	293221.66858614853
0.764768337266654	260206.594907538
0.7648957986561985	227186.0187166371
0.7650232812893079	194159.9390963754
0.7651507851695227	161128.35512951002
