#wavelength	surface flux
0.7	2766616.1140292743
0.7001166666666666	2770792.6724070436
0.7002333527777778	2772365.8040467007
0.700350058336574	2773939.1978749637
0.7004667833462966	2775512.853935529
0.7005835278101878	2777086.772272109
0.7007002917314895	2778660.9529284094
0.7008170751134447	2780235.395948152
0.7009338779592968	2781810.101375064
0.7010507002722901	2782858.681564441
0.7011675420556689	2783266.857696131
0.701284403312678	2783675.101857176
0.7014012840465635	2784083.414058915
0.7015181842605713	2784491.794312687
0.701635103957948	2784900.242629835
0.701752043141941	2785308.759021702
0.701869001815798	2785717.3434996353
0.7019859799827672	2785858.449024549
0.7021029776460976	2785813.3803849183
0.7022199948090387	2785768.3042338477
0.7023370314748403	2785723.2205700856
0.7024540876467528	2785678.129392379
0.702571163328027	2785633.030699476
0.7026882585219152	2785587.924490125
0.7028053732316688	2785542.8107630718
0.7029225074605406	2787585.340936459
0.7030396612117841	2790434.3494867138
0.7031568344886527	2793283.8328717267
0.7032740272944008	2796133.7911706353
0.7033912396322832	2798984.224462596
0.7035084715055552	2801835.1328267683
0.7036257229174727	2804686.516342336
0.7037429938712924	2807538.375088492
0.7038602843702709	2811075.5821690816
0.7039775944176659	2814729.5382609507
0.7040949240167356	2818384.1033455036
0.7042122731707383	2822039.2775242347
0.7043296418829335	2825695.060898665
0.7044470301565806	2829351.453570323
0.70456443799494	2833008.455640757
0.7046818654012724	2836666.0672115386
0.7047993123788394	2836927.688817302
0.7049167789309024	2837185.4562779316
0.7050342650607243	2837443.266699804
0.7051517707715678	2837701.1200900804
0.7052692960666963	2837959.016455922
0.705386840949374	2838216.955804491
0.7055044054228656	2838474.9381429516
0.7056219894904361	2838707.269500646
0.7057395931553511	2838776.3570864163
0.705857216420877	2838845.4561867844
0.7059748592902804	2838914.5668036696
0.7060925217668288	2838983.6889389907
0.70621020385379	2839052.822594668
0.7063279055544321	2839121.9677726207
0.7064456268720246	2839191.12447477
0.7065633678098366	2839746.3991158586
0.7066811283711383	2841640.512277602
0.7067989085592001	2843534.9411248732
0.7069167083772933	2845429.685710284
0.7070345278286895	2847324.74608646
0.707152366916661	2849220.122306033
0.7072702256444803	2851115.81442164
0.7073881040154211	2853011.8224859354
0.7075060020327569	2853656.9684884935
0.7076239196997625	2852480.072140344
0.7077418570197124	2851302.9796428042
0.7078598139958823	2850125.690963181
0.7079777906315483	2848948.2060687775
0.7080957869299869	2847770.524926892
0.7082138028944751	2846592.647504817
0.7083318385282908	2845414.5737698376
0.7084498938347124	2844154.85442624
0.708567968817018	2842825.8707799907
0.7086860634784875	2841496.665636465
0.7088041778224007	2840167.238958748
0.7089223118520377	2838837.5907099196
0.7090404655706796	2837507.7208530502
0.709158638981608	2836177.629351204
0.709276832088105	2834847.31616744
0.7093950448934531	2834691.516685912
0.7095132774009353	2835095.9352331962
0.7096315296138355	2835500.4211835717
0.7097498015354378	2835904.9745482723
0.7098680931690269	2836309.595338533
0.7099864045178884	2836714.283565593
0.7101047355853081	2837119.0392406904
0.7102230863745722	2837523.862375067
0.7103414568889679	2833795.882210732
0.7104598471317828	2829128.1951071187
0.7105782571063047	2824459.730055658
0.7106966868158224	2819790.4869266893
0.710815136263625	2815120.4655905333
0.7109336054530023	2810449.665917485
0.7110520943872445	2805778.0877778265
0.7111706030696424	2801105.731041808
0.7112891315034873	2798978.87645484
0.7114076796920712	2796973.157785856
0.7115262476386865	2794967.104830428
0.7116448353466263	2792960.7175328415
0.711763442819184	2790953.9958373713
0.711882070059654	2788946.9396882835
0.7120007170713306	2786939.5490298383
0.7121193838575091	2785022.0983305634
0.7122380704214853	2784045.868236469
0.7123567767665555	2783069.47543736
0.7124755028960166	2782092.919906117
0.7125942488131658	2781116.20161562
0.7127130145213015	2780139.3205387383
0.7128318000237216	2779162.276648347
0.7129506053237256	2778185.0699173054
0.7130694304246129	2776424.7849491867
0.7131882753296837	2771926.858662884
0.7133071400422386	2767428.1827221992
0.7134260245655789	2762928.7570021944
0.7135449289030065	2758428.581377901
0.7136638530578235	2753927.6557243397
0.7137827970333332	2749425.9799164957
0.7139017608328388	2744923.553829352
0.7140207444596443	2740663.2750012726
0.7141397479170543	2736835.5914510493
0.7142587712083737	2733007.269953573
0.7143778143369084	2729178.3104025107
0.7144968773059646	2725348.7126915227
0.7146159601188489	2721518.47671425
0.7147350627788687	2717687.602364315
0.7148541852893318	2713856.089535323
0.7149733276535467	2709897.650290368
0.7150924898748222	2705811.2054799767
0.715211671956468	2701724.0795954494
0.7153308739017941	2697636.2725232714
0.715450095714111	2693547.784149917
0.71556933739673	2689458.6143618324
0.7156885989529628	2685368.7630454507
0.7158078803861218	2681278.230087177
0.7159271816995193	2674688.045951669
0.7160465028964692	2666630.024308419
0.7161658439802853	2658570.6596615613
0.7162852049542819	2650509.951787264
0.7164045858217744	2642447.90046165
0.716523986586078	2634384.505460818
0.7166434072505089	2626319.766560823
0.716762847818384	2618253.6835376755
0.7168823082930204	2612118.1793495966
0.7170017886777359	2606550.016156214
0.7171212889758488	2600980.924935635
0.7172408091906781	2595410.905533185
0.7173603493255433	2589839.9577941666
0.7174799093837642	2584268.081563861
0.7175994893686615	2578695.276687515
0.7177190892835562	2573121.5430103582
0.7178387091317702	2570154.539867944
0.7179583489166254	2567448.806574732
0.7180780086414448	2564742.622325969
0.7181976883095517	2562035.987046498
0.7183173879242699	2559328.9006611463
0.718437107488924	2556621.3630947303
0.7185568470068389	2553913.374272052
0.7186766064813399	2551082.3782298155
0.7187963859157535	2545186.7430622247
0.7189161853134061	2539290.1252887733
0.719036004677625	2533392.524745692
0.7191558440117378	2527493.941269191
0.7192757033190732	2521594.3746954356
0.7193955826029597	2515693.8248605914
0.7195154818667269	2509792.2916007694
0.7196354011137046	2503597.765322262
0.7197553403472235	2496057.743010928
0.7198752995706147	2488516.464029212
0.7199952787872098	2480973.9281676603
0.720115278000341	2473430.135216799
0.7202352972133411	2465885.0849671112
0.7203553364295432	2458338.7772090603
0.7204753956522815	2450791.2117330385
0.7205954748848902	2444038.271726202
0.7207155741307044	2439038.8316613133
0.7208356933930594	2434038.5583564225
0.7209558326752915	2429037.4516726467
0.7210759919807375	2424035.511471083
0.7211961713127342	2419032.737612826
0.7213163706746197	2414029.129958918
0.7214365900697322	2409024.6883704057
0.7215568295014103	2403581.9447708842
0.721677088972994	2397616.321100935
0.7217973684878227	2391649.703160384
0.7219176680492374	2385682.090783503
0.7220379876605789	2379713.483804562
0.722158327325189	2373743.8820577897
0.7222786870464099	2367773.285377396
0.7223990668275843	2361801.693597553
0.7225194666720555	2353947.1033044797
0.7226398865831676	2344757.3810954546
0.7227603265642646	2335566.127266083
0.722880786618692	2326373.3415610534
0.7230012667497951	2317179.0237250794
0.7231217669609201	2307983.1735027977
0.7232422872554135	2298785.7906388207
0.7233628276366229	2289586.8748776843
0.7234833881078956	2281553.232128046
0.7236039686725803	2273961.2417093213
0.7237245693340255	2266367.9859588724
0.7238451900955812	2258773.4646657845
0.7239658309605971	2251177.6776191564
0.7240864919324239	2243580.624608011
0.7242071730144127	2235982.3054213626
0.724327874209915	2228382.7198481993
0.7244485955222832	2218760.7294652355
0.7245693369548704	2208802.9572893875
0.7246900985110294	2198843.5254848576
0.7248108801941148	2188882.4337750007
0.7249316820074803	2178919.681883225
0.7250525039544815	2168955.2695327853
0.7251733460384739	2158989.1964469515
0.7252942082628137	2149024.8177438825
0.7254150906308574	2141003.0004149545
0.7255359931459625	2132979.84611647
0.7256569158114868	2124955.354625601
0.7257778586307888	2116929.5257194787
0.7258988216072273	2108902.359175208
0.7260198047441617	2100873.8547698553
0.7261408080449525	2092844.0122804213
0.72626183151296	2084711.0780412448
0.7263828751515454	2075900.5783048752
0.7265039389640706	2067088.6101518846
0.726625022953898	2058275.1733375296
0.7267461271243904	2049460.2676170347
0.7268672514789111	2040643.8927455922
0.7269883960208241	2031826.0484783456
0.7271095607534942	2023006.7345703817
0.7272307456802866	2014073.4452376044
0.7273519508045666	2004834.7624062225
0.7274731761297006	1995594.5397943733
0.7275944216590555	1986352.7771454223
0.7277156873959987	1977109.4742026932
0.7278369733438982	1967864.6307094586
0.727958279506122	1958618.246409
0.7280796058860397	1949370.32104448
0.7282009524870207	1939599.7603300407
0.7283223193124353	1929056.8150909038
0.7284437063656539	1918512.1126942483
0.7285651136500483	1907965.6528471764
0.7286865411689898	1897417.4352568185
0.7288079889258514	1886867.45963017
0.7289294569240056	1876315.7256742744
0.7290509451668262	1865762.2330960408
0.7291724536576875	1855578.0298015657
0.7292939823999636	1845699.5825154271
0.7294155313970303	1835819.488821388
0.7295371006522632	1825937.748445069
0.7296586901690385	1816054.3611120286
0.7297802999507332	1806169.32654777
0.7299019300007252	1796282.6444777255
0.7300235803223919	1786394.3146273624
0.7301452509191123	1777258.1586603457
0.7302669417942654	1768468.4211776135
0.7303886529512311	1759677.2187386313
0.7305103843933897	1750884.5510992405
0.7306321361241218	1742090.41801525
0.7307539081468093	1733294.8192423964
0.7308757004648336	1724497.7545364327
0.7309975130815778	1715699.2236530075
0.7311193460004248	1706904.4513639193
0.7312411992247582	1698109.396156418
0.7313630727579622	1689312.875106384
0.7314849666034219	1680514.8879694997
0.7316068807645224	1671715.434501431
0.7317288152446498	1662914.5144577804
0.7318507700471907	1654112.127594118
0.7319727451755319	1645308.2736659816
0.732094740633061	1635198.6605985092
0.7322167564231665	1625028.6429642413
0.7323387925492371	1614856.9303270339
0.7324608490146619	1604683.5224043897
0.732582925822831	1594508.418913756
0.7327050229771347	1584331.6195725522
0.7328271404809642	1574153.1240981142
0.7329492783377112	1563964.2443231544
0.7330714365507675	1553688.2553015647
0.7331936151235259	1543410.5536151407
0.7333158140593796	1533131.138978447
0.7334380333617229	1522850.0111059651
0.7335602730339499	1512567.1697121665
0.7336825330794556	1502282.6145114666
0.7338048135016354	1491996.345218253
0.7339271143038857	1481848.4586204474
0.734049435489603	1472168.3019700488
0.7341717770621846	1462486.5319602068
0.7342941390250283	1452803.1483220346
0.7344165213815324	1443118.1507865933
0.734538924135096	1433431.5390848818
0.7346613472891185	1423743.3129478993
0.734783790847	1414053.4721065573
0.7349062548121412	1403888.9273646951
0.7350287391879431	1392886.4845322254
0.7351512439778078	1381882.2079592613
0.7352737691851374	1370876.097340215
0.735396314813335	1359868.1523693888
0.7355188808658037	1348858.372741086
0.7356414673459482	1337846.7581494893
0.7357640742571725	1326833.3082888015
0.7358867016028818	1316203.2770813222
0.7360093493864824	1305951.9474946235
0.7361320176113801	1295698.9093530076
0.736254706280982	1285444.162371701
0.7363774153986956	1275187.7062658847
0.7365001449679286	1264929.5407507382
0.7366228949920899	1254669.6655413308
0.7367456654745885	1244408.0803527222
0.7368684564188344	1234415.094808187
0.7369912678282374	1224573.2172295984
0.7371140997062088	1214729.699338076
0.7372369520561599	1204884.540860229
0.7373598248815024	1195037.7415226577
0.7374827181856494	1185189.301051847
0.7376056319720137	1175339.2191742905
0.7377285662440091	1165487.4956164195
0.7378515210050496	1155007.4162713261
0.7379744962585505	1144337.0311194435
0.738097492007927	1133664.8675700382
0.7382205082565949	1122990.9253267145
0.738343545007971	1112315.204093019
0.7384666022654723	1101637.7035724407
0.7385896800325165	1090958.4234684582
0.7387127783125219	1080277.363484445
0.7388358971089073	1071066.8131007869
0.7389590364250921	1062002.4019443511
0.7390821962644963	1052936.4800527159
0.7392053766305403	1043869.0471741119
0.7393285775266454	1034800.1030566884
0.7394517989562333	1025729.6474485699
0.7395750409227259	1016657.6800978646
0.7396983034295463	1007572.9796729023
0.739821586480118	998237.143862691
0.7399448900778645	988899.7520798633
0.7400682142262109	979560.8040650433
0.740191558928582	970220.2995588975
0.7403149241884034	960878.2383020081
0.7404383100091014	951534.6200349068
0.7405617163941028	942189.4444981003
0.7406851433468352	932736.7788880285
0.7408085908707264	922797.9219207041
0.7409320589692048	912857.4084772232
0.7410555476456997	902915.2382814938
0.7411790569036406	892971.4110574056
0.7413025867464579	883025.9265287772
0.7414261371775823	873078.7844193914
0.7415497082004452	863129.984452995
0.7416732998184786	853255.1753843214
0.741796912035115	843541.0025799333
0.7419205448537874	833825.2107467467
0.7420441982779297	824107.7996149217
0.742167872310976	814388.7689145656
0.7422915669563612	804668.1183757598
0.7424152822175206	794945.8477285334
0.7425390180978901	785221.9567028718
0.7426627746009065	775991.4939618871
0.7427865517300065	767362.9929095997
0.7429103494886282	758733.0537737946
0.7430341678802096	750101.6763148068
0.7431580069081896	741468.8602929098
0.7432818665760077	732834.6054683302
0.7434057468871037	724198.9116012871
0.7435296478449182	715561.7784519377
0.7436535694528923	706799.7560339107
0.7437775117144678	697951.768140757
0.7439014746330868	689102.3055829677
0.7440254582121922	680251.3681147445
0.7441494624552276	671398.9554902731
0.7442734873656368	662545.0674636995
0.7443975329468645	653689.7037891144
0.7445215992023557	644832.8642205845
0.7446456861355559	636421.0553813481
0.7447697937499119	628172.3258489352
0.7448939220488703	619922.2215282688
0.7450180710358784	611670.7421902228
0.7451422407143843	603417.8876056196
0.7452664310878367	595163.6575452446
0.7453906421596846	586908.0517798683
0.7455148739333779	578651.0700801951
0.7456391264123667	570546.2389936177
0.7457633996001021	562464.6051845071
0.7458876935000356	554381.6244364138
0.7460120081156189	546297.2965248779
0.7461363434503048	538211.621225353
0.7462606995075466	530124.5983132708
0.7463850762907978	522036.22756404884
0.7465094738035127	513948.72379023593
0.7466338920491467	506439.31350740406
0.746758331031155	498928.65165618435
0.7468827907529935	491416.7380279983
0.7470072712181189	483903.57241420733
0.7471317724299886	476389.154606146
0.7472562943920602	468873.484395122
0.7473808371077922	461356.5615723893
0.7475054005806435	453879.1376558137
0.7476299848140736	446651.48215611634
0.7477545898115426	439422.6220471674
0.7478792155765113	432192.55712819844
0.7480038621124406	424961.28719841543
0.7481285294227926	417728.81205697916
0.7482532175110298	410495.1315030116
0.7483779263806148	403260.24533562857
0.7485026560350116	396176.85317185003
0.7486274064776842	389505.5567813663
0.748752177712097	382833.14850816294
0.7488769697417158	376159.6281668998
0.749001782570006	369484.9955722545
0.7491266162004343	362809.25053884543
0.7492514706364677	356132.3928812611
0.7493763458815739	349454.42241406045
0.7495012419392209	342942.8904743793
0.7496261588128773	336671.1485601631
0.7497510965060128	330398.36135562346
0.7498760550220971	324124.528686552
0.7500010343646007	317849.65037870145
0.7501260345369949	311573.7262577965
0.750251055542751	305296.7561495451
0.7503760973853414	299018.7398796052
0.7505011600682389	293033.80254463135
0.750626243594917	287293.45559589943
0.7507513479688495	281552.15192268474
0.7508764731935109	275809.8913655226
0.7510016192723765	270066.6737649327
0.7511267862089218	264322.49896141485
0.7512519740066232	258577.3667954276
0.7513771826689577	252831.27710740946
0.7515024121994025	247534.1171450665
0.7516276626014359	242445.83711428847
0.751752933878536	237356.70903684755
0.7518782260341824	232266.73277139204
0.7520035390718548	227175.90817655664
0.7521288729950334	222084.2351109581
0.7522542278071992	216991.71343318155
0.7523796035118337	211898.34300178956
0.7525050001124189	207133.67154850272
0.7526304176124378	202439.8752755704
0.7527558560153731	197745.2967032653
0.752881315324709	193049.9357011936
0.7530067955439299	188353.7921389532
0.7531322966765205	183656.86588612534
0.7532578187259665	178959.15681225393
0.7533833616957542	174260.66478687036
0.75350892558937	170015.07380255853
0.7536345104103016	165790.10874385378
0.7537601161620366	161564.43952430808
0.7538857428480638	157338.06602655503
0.7540113904718717	153110.98813322448
0.7541370590369503	148883.20572691265
0.7542627485467898	144654.71869019713
0.7543884590048808	140485.2356803859
0.7545141904147151	136910.48042420085
0.7546399427797842	133335.1293754789
0.7547657161035808	129759.18243491491
0.754891510389598	126182.63950319435
0.7550173256413296	122605.50048098376
0.7551431618622698	119027.76526893696
0.7552690190559135	115449.43376768894
0.7553948972257561	111973.76409337153
0.7555207963752938	108844.1140953988
0.755646716508023	105713.94248909489
0.755772657627441	102583.24918752216
0.7558986197370455	99452.03410373205
0.756024602840335	96320.2971507621
0.7561506069408084	93188.03824163335
0.7562766320419653	90055.25728935027
0.7564026781473054	87070.41954588464
0.75652874526033	84346.34371668438
0.7566548333845401	81621.8138748445
0.7567809425234375	78896.82994469862
0.7569070726805247	76171.39185056594
0.7570332238593047	73445.49951675127
0.7571593960632813	70719.15286754504
0.7572855892959586	67992.35182723045
0.7574118035608413	65554.66883513232
0.7575380388614347	63399.877804329975
0.7576642952012449	61244.72764168834
0.7577905725837782	59089.21828735604
0.7579168710125422	56933.34968146085
0.7580431904910444	54777.12176413053
0.7581695310227928	52620.53447548338
0.7582958926112967	50463.58775561874
0.7584222752600652	48570.726933324135
0.7585486789726085	46829.46441768677
0.7586751037524372	45087.91169162948
0.7588015496030628	43346.06870678111
0.7589280165279966	41603.935414772044
0.7590545045307512	39861.51176721431
0.7591810136148396	38118.79771571536
0.7593075437837755	36375.79321187192
0.7594340950410726	34923.642581621214
0.7595606673902461	33555.721556932935
0.7596872608348112	32187.57254540584
0.7598138753782836	30819.195509045
0.75994051102418	29450.590409843488
0.7600671677760173	28081.757209793177
0.7601938456373134	26712.69587087514
0.7603205446115863	25343.40635506806
0.7604472647023548	24261.558255621836
0.7605740059131385	23208.12417514427
0.7607007682474575	22154.514522318925
0.7608275517088319	21100.729267887116
0.7609543563007835	20046.768382577236
0.7610811820268336	18992.631837120436
0.7612080288905045	17938.319602241416
0.7613348968953197	16895.366271466843
0.7614617860448022	16088.904106289696
0.7615886963424764	15282.307530750586
0.7617156277918667	14475.576522449666
0.7618425803964988	13668.711058980032
0.7619695541598982	12861.711117933368
0.7620965490855914	12054.576676897124
0.7622235651771058	11247.307713453109
0.7623506024379685	10488.89259127776
0.7624776608717082	9945.072510350732
0.7626047404818536	9401.161792743527
0.7627318412719337	8857.160423350988
0.762858963245479	8313.06838706321
0.7629861064060198	7768.8856687693315
0.7631132707570876	7224.612253355175
0.7632404563022137	6680.248125705603
0.7633676630449308	6189.998834262935
0.7634948909887717	5815.05348212645
0.7636221401372697	5440.045639098431
0.7637494104939593	5064.975294762887
0.7638767020623748	4689.842438703828
0.7640040148460518	4314.647060501665
0.7641313488485262	3939.3891497364825
0.7642587040733344	3564.0686959857467
0.7643860805240132	3243.6737118524543
0.7645134782041005	2988.842523822733
0.7646408971171346	2733.968863928233
0.764768337266654	2479.0527250905116
0.7648957986561985	2224.0941002295676
0.7650232812893079	1969.0929822645144
0.7651507851695227	1714.0493641131309
