#wavelength	surface flux
0.8	981008.1387986926
0.8002000000000001	997396.1637126564
0.8004000500000003	1014354.105673692
0.8006001500125003	1031322.0024597292
0.8008003000500035	1048294.1412199643
0.8010005001250161	1065270.5230148972
0.8012007502500472	1082251.1489052544
0.8014010504376099	1098951.766225047
0.8016014007002193	1115561.3423848639
0.8018018010503944	1132175.0709387204
0.8020022515006572	1148792.952924723
0.8022027520635323	1165414.9893812079
0.8024033027515483	1182859.099322657
0.8026039035772362	1201109.0980312543
0.8028045545531306	1219363.6592395292
0.8030052556917691	1237622.7840881152
0.803206007005692	1255886.4737178972
0.8034068085074435	1274157.1042581315
0.8036076602095705	1292438.9598958532
0.8038085621246229	1310725.3859974698
0.8040095142651542	1329016.3837056232
0.8042105166437206	1347311.9541631974
0.8044115692728815	1365618.7103429593
0.8046126721651998	1384214.429651205
0.8048138253332411	1402814.7978892627
0.8050150287895745	1421419.8162193971
0.805216282546772	1440029.4858041091
0.8054175866174087	1458643.8078062076
0.8056189410140631	1477372.1291553425
0.8058203457493168	1496136.0845287666
0.8060218008357541	1514904.7308910103
0.8062233062859632	1533678.0694148538
0.8064248621125346	1552456.1012733155
0.806626468328063	1571961.384277114
0.8068281249451449	1592092.1323424089
0.8070298319763813	1612227.9130947446
0.8072315894343755	1632368.7277922535
0.8074333973317341	1652514.5776934442
0.8076352556810671	1672007.0874836694
0.8078371644949874	1689919.6480523662
0.8080391237861113	1707836.6867612095
0.8082411335670578	1725758.204729719
0.8084431938504498	1743684.2030777393
0.8086453046489125	1761545.993106574
0.8088474659750746	1778133.3672213384
0.8090496778415686	1794724.8881796536
0.809251940261029	1811320.5570181964
0.8094542532460944	1827920.3747739631
0.8096566168094059	1844524.3424841498
0.8098590309636085	1863100.1147801375
0.8100614957213493	1882141.076409272
0.8102640110952797	1901186.798278816
0.8104665770980536	1920237.2815788349
0.8106691937423283	1939292.5274996862
0.8108718610407639	1958782.1995667971
0.8110745790060241	1978605.2842879228
0.8112773476507757	1998433.324780246
0.8114801669876885	2018266.322282687
0.8116830370294355	2038104.2780344924
0.8118859577886929	2057194.791573562
0.8120889292781401	2074727.3065057178
0.8122919515104597	2092264.2045666054
0.8124950244983374	2109805.4868520093
0.8126981482544621	2127351.1544579817
0.8129013227915257	2145310.6114462
0.8131045481222237	2167962.2848433172
0.8133078242592543	2190619.621158786
0.8135111512153191	2213282.621808328
0.813714529003123	2235951.288208035
0.8139179576353739	2258625.6217743456
0.8141214371247829	2288651.2520672358
0.8143249674840641	2320108.8296167846
0.814528548725935	2351574.271560702
0.8147321808631167	2383047.5798651483
0.8149358639083326	2414528.756496661
0.8151395978743097	2443032.7035699966
0.8153433827737784	2469526.9179259115
0.8155472186194719	2496027.755835406
0.8157511054241268	2522535.218954373
0.815955043200483	2549049.308939138
0.8161590319612831	2577786.6304067634
0.8163630717192736	2610592.790936881
0.8165671624872033	2643407.153007095
0.8167713042778252	2676229.7186678587
0.8169754971038948	2709060.489970054
0.8171797409781707	2738469.159679643
0.8173840359134155	2740499.9601327176
0.8175883819223938	2742531.2682859027
0.8177927790178745	2744563.0842661276
0.8179972272126291	2746595.408200348
0.8182017265194322	2748628.2402155497
0.8184062769510622	2770247.1979522575
0.8186108785203001	2794885.4970820528
0.8188155312399301	2819529.955786597
0.8190202351227402	2844180.5756058446
0.819224990181521	2868837.358080032
0.8194297964290664	2910574.363192029
0.8196346538781738	2962613.1609952464
0.8198395625416434	3014664.968497894
0.8200445224322789	3066729.788952439
0.820249533562887	3118807.625612083
0.8204545959462778	3164625.685795577
0.8206597095952644	3200359.3047794458
0.8208648745226633	3236101.857168088
0.8210700907412941	3271853.345194822
0.8212753582639793	3307613.771093527
0.8214806771035456	3341246.967198612
0.8216860472728215	3361727.162425293
0.8218914687846397	3382212.4777007815
0.822096941651836	3402702.9143050998
0.822302465887249	3423198.473518557
0.8225080415037209	3443699.1566218287
0.8227136685140968	3464574.526816999
0.8229193469312254	3485497.06885659
0.8231250767679583	3506424.8415316977
0.8233308580371503	3527357.846149963
0.8235366907516598	3548296.084019398
0.8237425749243477	3588004.6809212994
0.8239485105680789	3637669.0508230436
0.824154497695721	3687345.836817232
0.824360536320145	3737035.042007928
0.8245666264542252	3786736.6694999193
0.8247727681108388	3830377.5173165156
0.8249789613028664	3865331.302612572
0.8251852060431922	3900293.8263549823
0.825391502344703	3935265.0907283123
0.8255978502202894	3970245.0979177677
0.8258042496828445	4005400.237420945
0.8260107007452654	4041372.237407202
0.8262172034204517	4077353.230393419
0.8264237577213068	4113343.218627892
0.8266303636607373	4149342.2043594397
0.8268370212516525	4185350.189837402
0.8270437305069654	4212263.671821604
0.8272504914395923	4238472.50238727
0.8274573040624523	4264687.885160585
0.8276641683884679	4290909.82177957
0.8278710844305652	4317138.31388274
0.8280780522016729	4350086.8047733
0.8282850717147234	4386112.234539207
0.8284921429826521	4422146.670662519
0.8286992660183978	4458190.115394889
0.8289064408349024	4494242.570988418
0.8291136674451112	4528856.559358175
0.8293209458619727	4561654.001051534
0.8295282760984382	4594459.642105273
0.829735658167463	4627273.484569313
0.8299430920820048	4660095.530493927
0.8301505778550254	4693423.367730311
0.8303581154994891	4728745.547566722
0.8305657050283641	4764076.557948126
0.8307733464546212	4799416.401082099
0.8309810397912352	4834765.079176914
0.8311887850511829	4870122.594441181
0.8313965822474458	4919610.396760605
0.8316044313930077	4969766.0221161395
0.8318123325008561	5019934.186378059
0.8320202855839813	5070114.892681019
0.8322282906553774	5120308.144160559
0.8324363477280413	5160103.355704843
0.8326444568149735	5195717.249950469
0.8328526179291771	5231340.047669615
0.8330608310836596	5266971.751088243
0.8332690962914304	5302612.36243268
0.8334774135655034	5332756.444837706
0.833685782918895	5356758.307002667
0.8338942043646247	5380766.169633157
0.834102677915716	5404780.03422932
0.834311203585195	5428799.902291613
0.8345197813860912	5456959.948213247
0.8347284113314379	5499043.046713484
0.8349370934342709	5541136.665988322
0.8351458277076294	5583240.808667928
0.8353546141645565	5625355.477383275
0.8355634528180977	5667480.6747657815
0.8357723436813022	5698911.861012542
0.8359812867672226	5730218.731232136
0.8361902820889144	5761533.428169269
0.8363993296594368	5792855.953780646
0.8366084294918518	5824186.310023437
0.8368175815992247	5872822.990921531
0.8370267859946247	5927429.609332964
0.8372360426911234	5982049.879398984
0.8374453517017962	6036683.804532514
0.8376547130397217	6091331.3881473215
0.8378641267179816	6139734.973380734
0.8380735927496613	6181941.433831283
0.8382831111478488	6224158.44589692
0.8384926819256358	6266386.012215551
0.8387023050961173	6308624.135425798
0.8389119806723914	6350172.839950518
0.8391217086675596	6389761.9642256545
0.8393314890947265	6429360.98578183
0.8395413219670003	6468969.907093398
0.8397512072974922	6508588.730635322
0.8399611450993165	6548173.4284193665
0.8401711353855914	6585581.485285151
0.8403811781694378	6622998.894165141
0.8405912734639802	6660425.657397361
0.8408014212823464	6697861.7773204055
0.8410116216376671	6735307.256273427
0.8412218745430766	6773390.652267607
0.8414321800117124	6811666.454556016
0.8416425380567154	6849951.825795017
0.8418529486912297	6888246.768376836
0.8420634119284025	6926551.284694268
0.8422739277813847	6990359.335967606
0.8424844962633302	7076644.506240953
0.842695117387396	7162951.247806758
0.8429057911667428	7249279.566057958
0.8431165176145345	7335629.466388762
0.8433272967439382	7401867.40644857
0.8435381285681244	7419010.600004885
0.8437490131002665	7436158.079359585
0.8439599503535415	7453309.845584114
0.84417094034113	7470465.89975021
0.8443819830762154	7489255.621131366
0.8445930785719846	7540874.0031037545
0.8448042268416277	7592505.289671607
0.8450154278983382	7644149.484061096
0.8452266817553128	7695806.589499178
0.8454379884257517	7747476.609213625
0.8456493479228583	7815275.816913455
0.845860760259839	7886972.966039402
0.846072225449904	7958688.03945263
0.8462837435062666	8030421.041634227
0.8464953144421433	8102171.977066411
0.8467069382707537	8161612.091197144
0.8469186150053215	8211457.176326704
0.847130344659073	8261314.72272756
0.8473421272452377	8311184.733514968
0.8475539627770492	8361067.211805124
0.8477658512677435	8406058.877203437
0.8479777927305605	8440650.313656304
0.8481897871787432	8475250.397968277
0.848401834625538	8509859.132301347
0.8486139350841944	8544476.518817978
0.8488260885679657	8573632.888743859
0.8490382950901076	8536123.200777154
0.8492505546638802	8498604.135388441
0.8494628673025462	8461075.690233393
0.8496752330193721	8423537.862967001
0.8498876518276269	8385990.651243843
0.8501001237405839	8046661.996793261
0.8503126487715191	7647009.507842529
0.850525226933712	7247257.105769781
0.8507378582404455	6847404.76559652
0.8509505427050057	6447452.462337983
0.8511632803406821	6131063.893239762
0.8513760711607672	5871890.556500124
0.8515889151785576	5612652.426425898
0.8518018124073523	5353349.486819372
0.8520147628604541	5093981.721478095
0.8522277665511693	5020486.611418676
0.8524408234928071	5290842.053128972
0.8526539336986805	5561265.083699768
0.8528670971821053	5831755.7200282235
0.8530803139564007	6102313.9790154435
0.8532935840348901	6407758.609716843
0.8535069074308987	7007341.586978371
0.8537202841577566	7607074.459984718
0.8539337142287962	8206957.266209384
0.8541471976573534	8806990.043135231
0.8543607344567677	9407172.828255419
0.8545743246403821	9633126.424105572
0.8547879682215422	9799680.806901094
0.8550016652135977	9966276.828292292
0.8552154156299011	10132914.498688847
0.8554292194838088	10299593.828503123
0.8556430767886797	10421327.135863623
0.855856987557877	10515775.537990266
0.8560709518047664	10610247.552217381
0.8562849695427177	10704743.18444809
0.8564990407851035	10799262.440586882
0.8567131655452999	10885939.088592377
0.8569273438366862	10959748.31236438
0.8571415756726455	11033575.98844234
0.8573558610665638	11107422.121439349
0.8575702000318304	11181286.715969525
0.8577845925818384	11255437.45113297
0.857999038729984	11331278.717423165
0.8582135384896665	11407138.944029916
0.858428091874289	11483018.135693323
0.8586426988972576	11558916.297154624
0.8588573595719821	11634833.433156317
0.8590720739118751	11686661.552115919
0.8592868419303532	11735660.223303985
0.8595016636408359	11784671.144159848
0.8597165390567462	11833694.31774591
0.8599314681915105	11882729.74712538
0.8601464510585584	11880343.893941736
0.860361487671323	11850656.87954887
0.8605765780432408	11820962.443402415
0.8607917221877518	11791260.5836469
0.8610069201182988	11761551.298426451
0.8612221718483286	11679357.54675396
0.8614374773912907	11521490.493013341
0.8616528367606385	11363583.972509332
0.8618682499698288	11205637.975375095
0.8620837170323213	11047652.491741601
0.8622992379615795	10924297.616032142
0.8625148127710699	10972480.964998346
0.8627304414742627	11020676.359801793
0.8629461240846313	11068883.80345395
0.8631618606156526	11117103.298967024
0.8633776510808066	11165334.849353967
0.8635934954935769	11280573.526382182
0.8638093938674504	11401332.720035056
0.8640253462159173	11522122.10348634
0.8642413525524714	11642941.684283486
0.8644574128906095	11763791.469975805
0.8646735272438323	11887005.334438626
0.8648896956256433	12011335.31487658
0.8651059180495498	12135696.377809651
0.8653221945290621	12260088.531008337
0.8655385250776946	12384511.782245496
0.8657549097089641	12499291.861146357
0.8659713484363913	12601715.432384375
0.8661878412735006	12704164.609515252
0.866404388233819	12806639.398940396
0.8666209893308775	12909139.80706285
0.8668376445782103	13004169.594838679
0.8670543539893549	13068627.156987768
0.8672711175778525	13133100.83352744
0.8674879353572469	13197590.628486173
0.8677048073410862	13262096.545893673
0.8679217335429217	13326618.589780563
0.8681387139763074	13412895.225176364
0.8683557486548015	13500273.341089804
0.8685728375919655	13587673.301532328
0.8687899808013633	13675095.111964772
0.8690071782965637	13762538.777849939
0.869224430091138	13819599.414368032
0.8694417361986609	13864302.60462502
0.8696590966327107	13909016.970679563
0.869876511406869	13953742.51532562
0.8700939805347206	13998479.24135782
0.8703115040298544	14051228.02101739
0.870529081905862	14113137.296213849
0.8707467141763385	14175062.048729086
0.8709644008548827	14237002.28243245
0.8711821419550964	14298958.001194201
0.8713999374905854	14361973.532567058
0.871617787474958	14428609.141186543
0.8718356919218269	14495261.408708245
0.8720536508448075	14561930.33929683
0.8722716642575187	14628615.937118024
0.8724897321735832	14695318.206338704
0.8727078546066265	14781393.903884847
0.8729260315702784	14867785.600062631
0.873144263078171	14954198.894164365
0.8733625491439405	15040633.791589634
0.8735808897812266	15127090.297739293
0.8737992850036719	15189708.101431431
0.874017734824923	15243890.627770225
0.8742362392586293	15298086.69974058
0.874454798318444	15352296.320728924
0.8746734120180236	15406519.494122513
0.8748920803710283	15467891.651534323
0.875110803391121	15536449.5774398
0.8753295810919689	15605024.64282679
0.875548413487242	15673616.851980127
0.8757673005906139	15742226.209185757
0.8759862424157616	15831057.934841951
0.8762052389763657	15978376.614786586
0.8764242902861098	16125732.124401102
0.8766433963586814	16273124.472893063
0.8768625572077712	16420553.669472191
0.8770817728470732	16567086.054471819
0.8773010432902849	16640756.562390255
0.8775203685511077	16714445.487935776
0.8777397486432454	16788152.835712593
0.8779591835804065	16861878.610326443
0.8781786733763015	16935622.816383846
0.8783982180446457	16962026.75321433
0.878617817599157	16974348.9614107
0.8788374720535569	16986674.250159122
0.8790571814215703	16999002.620229725
0.8792769457169257	17011334.072392844
0.879496764953355	17067805.2442016
0.8797166391445934	17163972.26921724
0.8799365683043796	17260163.33598914
0.8801565524464557	17356378.45052773
0.8803765915845676	17452617.618845046
0.8805966857324639	17541414.32104657
0.880816834903897	17611479.547715943
0.881037039112623	17681562.290692013
0.8812572983724012	17751662.55435382
0.8814776126969944	17821780.34308157
0.8816979821001687	17890325.07594722
0.8819184065956938	17921444.299090534
0.8821388861973429	17952571.302039664
0.8823594209188923	17983706.086739503
0.882580010774122	18014848.655135497
0.8828006557768155	18045999.009173613
0.8830213559407598	18165480.89218128
0.8832421112797452	18307206.96316636
0.8834629218075651	18448968.465669096
0.8836837875380171	18590765.4085475
0.8839047084849018	18732597.800661646
0.884125684662023	18810523.739726376
0.8843467160831886	18837227.88481308
0.8845678027622095	18863938.705936063
0.8847889447129001	18890656.204764325
0.8850101419490785	18917380.382967293
0.8852313944845657	19012947.03239547
0.885452702333187	19259210.675436
0.8856740655087704	19505535.88438726
0.8858954840251476	19751922.674640685
0.8861169578961539	19998371.061591562
0.886338487135628	20219216.52628199
0.886560071757412	20098588.802644767
0.8867817117753515	19977930.92207664
0.8870034072032955	19857242.87703831
0.8872251580550963	19736524.65998887
0.8874469643446101	19615776.263385087
0.8876688260856963	19671264.87177433
0.8878907432922178	19763248.10671513
0.8881127159780409	19855254.33746461
0.8883347441570356	19947283.569771886
0.8885568278430749	20039335.80938714
0.8887789670500358	20071842.735191427
0.8890011617917983	20062101.586590827
0.8892234120822464	20052358.002703074
0.8894457179352669	20042611.982919354
0.8896680793647509	20032863.52663068
0.8898904963845921	20006398.84838305
0.8901129690086883	19948037.212526564
0.8903354972509405	19889660.98626113
0.8905580811252535	19831270.16593908
0.8907807206455347	19772864.747912034
0.8910034158256963	19698616.110127486
0.8912261666796527	19482889.11944724
0.8914489732213227	19267108.197019264
0.8916718354646282	19051273.329360466
0.8918947534234944	18835384.502984963
0.8921177271118502	18619441.704403
0.8923407565436284	17743756.286261152
0.8925638417327644	16760238.792804416
0.8927869826931977	15776475.419973988
0.8930101794388711	14792466.106300415
0.8932334319837308	13808210.790298583
0.8934567403417267	13174709.04556249
0.8936801045268123	12759153.880664442
0.8939035245529441	12343494.826975448
0.8941270004340824	11927731.85852287
0.894350532184191	11511864.949328285
0.8945741198172371	11608173.792532546
0.8947977633471915	12554061.520487431
0.8950214627880284	13500185.720374268
0.8952452181537254	14446546.451310512
0.8954690294582639	15393143.772430059
0.8956928967156286	16349882.903524352
0.8959168199398075	17371142.18348422
0.8961407991447926	18392656.77826434
0.8963648343445789	19414426.751693126
0.896588925553165	20436452.167614695
0.8968130727845534	21458733.089890372
0.8970372760527496	21746422.780372065
0.8972615353717629	21942240.259885967
0.8974858507556059	22138106.693769768
0.8977102222182949	22334022.09426199
0.8979346497738496	22529986.47360444
0.8981591334362931	22850957.321570124
0.8983836732196523	23240344.718515053
0.8986082691379572	23629829.462308962
0.8988329212052417	24019411.577288825
0.8990576294355432	24409091.087797765
0.8992823938429022	24687343.02624476
0.8995072144413631	24799841.037317973
0.8997320912449734	24912367.17289391
0.8999570242677847	25024921.440003723
0.9001820135238516	25137503.845680315
0.9004070590272328	25265451.38500666
0.9006321607919896	25473832.63498222
0.9008573188321878	25682265.980270486
0.9010825331618959	25890751.433894973
0.9013078037951865	26099289.0088829
0.9015331307461353	26307878.718264464
0.9017585140288219	26731154.68123122
0.9019839536573292	27173023.455083057
0.9022094496457435	27615002.696128037
0.9024350020081551	28057092.431983776
0.9026606107586572	28499292.69027334
0.902886275911347	28728858.229480196
0.9031119974803249	28855923.131902315
0.9033377754796951	28983019.800550044
0.903563609923565	29110148.243364874
0.903789500826046	29237308.468290493
0.9040154482012526	29300092.680423267
0.904241452063303	29279457.903766263
0.9044675124263188	29258817.9684151
0.9046936293044254	29238172.873080105
0.9049198027117517	29217522.616471265
0.9051460326624297	29226953.175285913
0.9053723191705955	29364499.18509219
0.9055986622503881	29502079.581400786
0.9058250619159507	29639694.372808464
0.9060515181814298	29777343.56791408
0.9062780310609752	29915027.17531838
0.9065046005687405	29969955.567030802
0.906731226718883	30020279.101784654
0.9069579095255627	30070615.217422128
0.907184649002944	30120963.917088512
0.907411445165195	30171325.203929868
0.9076382980264862	30479351.05151817
0.907865207600993	30894456.291692372
0.9080921739028933	31309665.308176503
0.9083191969463691	31724978.12691468
0.9085462767456058	32140394.77385775
0.9087734133147922	32335874.998278636
0.9090006066681211	32277254.84573509
0.909227856819788	32218620.03815349
0.9094551637839932	32159970.571869913
0.9096825275749393	32101306.44321978
0.9099099482068329	32045645.924092643
0.9101374256938848	32000698.49349423
0.9103649600503083	31955739.82603819
0.9105925512903209	31910769.918915294
0.9108201994281437	31865788.76931557
0.9110479044780008	31820796.374428496
0.9112756664541204	32300299.43393062
0.911503485370734	32791928.235149328
0.9117313612420768	33283679.94356834
0.9119592940823873	33775554.589914314
0.912187283905908	34267552.20492202
0.9124153307268845	34303368.72286521
0.9126434345595664	34173582.479610436
0.9128715954182063	34043763.78979497
0.9130998133170609	33913912.645306975
0.9133280882703902	33784029.038032874
0.913556420292458	33802699.94804078
0.9137848093975312	33974615.48063609
0.9140132555998806	34146573.99211453
0.9142417589137806	34318575.49322085
