#wavelength	surface flux
0.8	65472061.636142775
0.8002000000000001	66202674.044471025
0.8004000500000003	67106581.84302514
0.8006001500125003	68012464.2276201
0.8008003000500035	68918573.08281128
0.8010005001250161	69824908.46521668
0.8012007502500472	70731470.43146637
0.8014010504376099	72050220.83915687
0.8016014007002193	73507295.55187139
0.8018018010503944	74964734.53326407
0.8020022515006572	76422537.87440276
0.8022027520635323	77880705.66637549
0.8024033027515483	79239385.94339181
0.8026039035772362	80500554.76623818
0.8028045545531306	81762038.88129035
0.8030052556917691	83023838.36737187
0.803206007005692	84285953.30332379
0.8034068085074435	85330826.7448047
0.8036076602095705	85766117.15634571
0.8038085621246229	86201516.39048925
0.8040095142651542	86637024.4744416
0.8042105166437206	87072641.4354148
0.8044115692728815	87520939.95308205
0.8046126721651998	88510122.47885902
0.8048138253332411	89499552.30026664
0.8050150287895745	90489229.47913054
0.805216282546772	91479154.07728887
0.8054175866174087	92469326.15659623
0.8056189410140631	93713381.85039559
0.8058203457493168	95029544.01679903
0.8060218008357541	96346035.22374238
0.8062233062859632	97662855.55348812
0.8064248621125346	98980005.0883154
0.806626468328063	100249250.78658968
0.8068281249451449	101477387.37778719
0.8070298319763813	102705831.003134
0.8072315894343755	103934581.73938625
0.8074333973317341	105163639.663323
0.8076352556810671	106415833.28251238
0.8078371644949874	107723291.79490176
0.8080391237861113	109031077.17191952
0.8082411335670578	110339189.49528074
0.8084431938504498	111647628.84672418
0.8086453046489125	112972728.69196163
0.8088474659750746	114602258.15878342
0.8090496778415686	116232195.00797409
0.809251940261029	117862539.34137589
0.8094542532460944	119493291.26086241
0.8096566168094059	121124450.86832695
0.8098590309636085	122669493.23895253
0.8100614957213493	124194669.98115894
0.8102640110952797	125720228.0175511
0.8104665770980536	127246167.44345295
0.8106691937423283	128772488.35421187
0.8108718610407639	130082364.96222326
0.8110745790060241	131226773.66707344
0.8112773476507757	132371468.47410083
0.8114801669876885	133516449.45482966
0.8116830370294355	134661716.68080303
0.8118859577886929	135797971.48943758
0.8120889292781401	136915196.48433998
0.8122919515104597	138032700.78549102
0.8124950244983374	139150484.4627174
0.8126981482544621	140268547.58586293
0.8129013227915257	141410484.27758253
0.8131045481222237	142822861.96512854
0.8133078242592543	144235592.7470966
0.8135111512153191	145648676.71175978
0.813714529003123	147062113.94741428
0.8139179576353739	148475904.54237795
0.8141214371247829	149880974.71795443
0.8143249674840641	151284636.58563456
0.814528548725935	152688649.36878076
0.8147321808631167	154093013.15512466
0.8149358639083326	155497728.03241473
0.8151395978743097	156649141.33324474
0.8153433827737784	157629464.04365057
0.8155472186194719	158610031.83473364
0.8157511054241268	159590844.7677643
0.815955043200483	160571902.9040289
0.8161590319612831	161682893.1672149
0.8163630717192736	163031796.54511523
0.8165671624872033	164381037.14885858
0.8167713042778252	165730615.06275415
0.8169754971038948	167080530.3711289
0.8171797409781707	168186451.07476172
0.8173840359134155	167342069.56353226
0.8175883819223938	166497476.956926
0.8177927790178745	165652673.20216757
0.8179972272126291	164807658.24647024
0.8182017265194322	163962432.03703484
0.8184062769510622	164272175.225231
0.8186108785203001	164759761.06206584
0.8188155312399301	165247468.79535925
0.8190202351227402	165735298.45558652
0.819224990181521	166223250.07322854
0.8194297964290664	165786682.35101745
0.8196346538781738	164792679.56670484
0.8198395625416434	163798428.2816966
0.8200445224322789	162803928.43386665
0.820249533562887	161809179.96107507
0.8204545959462778	160684532.70485178
0.8206597095952644	159350935.95689154
0.8208648745226633	158017005.80974326
0.8210700907412941	156682742.1800584
0.8212753582639793	155348144.98446748
0.8214806771035456	154267747.56701028
0.8216860472728215	154755316.07279506
0.8218914687846397	155243006.4707063
0.822096941651836	155730818.7912173
0.822302465887249	156218753.06480813
0.8225080415037209	156706809.32196763
0.8227136685140968	157740670.0869548
0.8229193469312254	158836735.6848847
0.8231250767679583	159933075.29921445
0.8233308580371503	161029688.99844715
0.8235366907516598	162126576.8511055
0.8237425749243477	163520398.73640737
0.8239485105680789	165071803.9919488
0.824154497695721	166623597.09880313
0.824360536320145	168175778.15393445
0.8245666264542252	169728347.25432947
0.8247727681108388	170682428.9586113
0.8249789613028664	170779046.69632986
0.8251852060431922	170875688.58848295
0.825391502344703	170972354.64110902
0.8255978502202894	171069044.86024836
0.8258042496828445	170873545.3112089
0.8260107007452654	169258839.3052556
0.8262172034204517	167643729.62280244
0.8264237577213068	166028216.16292822
0.8266303636607373	164412298.82468835
0.8268370212516525	162795977.50711468
0.8270437305069654	162531609.47044426
0.8272504914395923	162372853.280376
0.8274573040624523	162214057.40126014
0.8276641683884679	162055221.8231747
0.8278710844305652	161896346.53619447
0.8280780522016729	161826379.03550678
0.8282850717147234	161797051.78281528
0.8284921429826521	161767717.1983106
0.8286992660183978	161738375.2801598
0.8289064408349024	161709026.0265295
0.8291136674451112	161607985.59912607
0.8293209458619727	161416530.1858706
0.8295282760984382	161225026.90876204
0.829735658167463	161033475.75583395
0.8299430920820048	160841876.71511793
0.8301505778550254	160751956.69500297
0.8303581154994891	161068036.12353408
0.8305657050283641	161384194.57192263
0.8307733464546212	161700432.05992305
0.8309810397912352	162016748.607296
0.8311887850511829	162333144.23380512
0.8313965822474458	163070477.77946296
0.8316044313930077	163827529.94259167
0.8318123325008561	164584771.36876187
0.8320202855839813	165342202.1052882
0.8322282906553774	166099822.19949877
0.8324363477280413	166722886.1799162
0.8326444568149735	167291857.85581723
0.8328526179291771	167860971.77463654
0.8330608310836596	168430227.9719364
0.8332690962914304	168999626.48328486
0.8334774135655034	169282935.20916802
0.833685782918895	169246584.0676794
0.8338942043646247	169210223.83840543
0.834102677915716	169173854.51907414
0.834311203585195	169137476.10741302
0.8345197813860912	169121421.26875535
0.8347284113314379	169173804.07698146
0.8349370934342709	169226199.9809096
0.8351458277076294	169278608.9838136
0.8353546141645565	169331031.0889685
0.8355634528180977	169383466.2996496
0.8357723436813022	169836772.5602501
0.8359812867672226	170295141.72159794
0.8361902820889144	170753625.47523588
0.8363993296594368	171212223.84981236
0.8366084294918518	171670936.87398264
0.8368175815992247	171797796.224822
0.8370267859946247	171810353.98051518
0.8372360426911234	171822914.8756473
0.8374453517017962	171835478.91100317
0.8376547130397217	171848046.0873679
0.8378641267179816	172153697.25380751
0.8380735927496613	172750237.22115237
0.8382831111478488	173346926.32348868
0.8384926819256358	173943764.59810027
0.8387023050961173	174540752.08228102
0.8389119806723914	174911882.14383224
0.8391217086675596	174647048.36992532
0.8393314890947265	174382148.38757512
0.8395413219670003	174117182.1802293
0.8397512072974922	173852149.73133147
0.8399611450993165	173602351.34633255
0.8401711353855914	174112299.03476253
0.8403811781694378	174622374.21011445
0.8405912734639802	175132576.90426034
0.8408014212823464	175642907.14908
0.8410116216376671	176153364.9764608
0.8412218745430766	175664007.73849928
0.8414321800117124	174883583.42786404
0.8416425380567154	174102964.01115075
0.8418529486912297	173322149.4395831
0.8420634119284025	172541139.66437322
0.8422739277813847	172648942.82747284
0.8424844962633302	173540023.65425193
0.842695117387396	174431327.25123662
0.8429057911667428	175322853.67412055
0.8431165176145345	176214602.97861066
0.8433272967439382	175710889.72696322
0.8435381285681244	171802586.6046466
0.8437490131002665	167893306.40655023
0.8439599503535415	163983048.8884068
0.84417094034113	160071813.80588102
0.8443819830762154	156274261.87250298
0.8445930785719846	154785615.35043237
0.8448042268416277	153296596.66673207
0.8450154278983382	151807205.728361
0.8452266817553128	150317442.4422555
0.8454379884257517	148827306.71532828
0.8456493479228583	148757894.09969273
0.845860760259839	149030681.0416366
0.846072225449904	149303536.18031588
0.8462837435062666	149576459.53277993
0.8464953144421433	149849451.11608225
0.8467069382707537	150345544.54876727
0.8469186150053215	151015609.84741098
0.847130344659073	151685842.66237953
0.8473421272452377	152356243.03555116
0.8475539627770492	153026811.00881678
0.8477658512677435	153750458.24013257
0.8479777927305605	154586637.23244137
0.8481897871787432	155423025.26949802
0.848401834625538	156259622.40356445
0.8486139350841944	157096428.68691385
0.8488260885679657	157901279.04425374
0.8490382950901076	158314249.12763622
0.8492505546638802	158727322.45353976
0.8494628673025462	159140499.04777464
0.8496752330193721	159553778.93615866
0.8498876518276269	159967162.14451423
0.8501001237405839	160203535.77309915
0.8503126487715191	160404613.6445413
0.850525226933712	160605741.7854512
0.8507378582404455	160806920.20839635
0.8509505427050057	161008148.9259473
0.8511632803406821	160878333.0135231
0.8513760711607672	160521745.24420846
0.8515889151785576	160165068.32795092
0.8518018124073523	159808302.2424646
0.8520147628604541	159451446.96545714
0.8522277665511693	159257229.95758152
0.8524408234928071	159363909.20516196
0.8526539336986805	159470615.12255433
0.8528670971821053	159577347.71642604
0.8530803139564007	159684106.9934461
0.8532935840348901	159761758.5120516
0.8535069074308987	159593374.14047006
0.8537202841577566	159424947.67279544
0.8539337142287962	159256479.0985039
0.8541471976573534	159087968.40706888
0.8543607344567677	158919415.587961
0.8545743246403821	157158105.40165523
0.8547879682215422	155143413.50561404
0.8550016652135977	153128217.9365991
0.8552154156299011	151112518.56869182
0.8554292194838088	149096315.2759411
0.8556430767886797	147863397.41136444
0.855856987557877	147106067.5878609
0.8560709518047664	146348548.431902
0.8562849695427177	145590839.8961538
0.8564990407851035	144832941.93327147
0.8567131655452999	143866902.99320158
0.8569273438366862	142559887.06629157
0.8571415756726455	141252544.38539955
0.8573558610665638	139944874.86883682
0.8575702000318304	138636878.4348964
0.8577845925818384	137881279.8241105
0.857999038729984	140578015.1790821
0.8582135384896665	143275424.71789184
0.858428091874289	145973508.60908642
0.8586426988972576	148672267.0212531
0.8588573595719821	151371700.12302375
0.8590720739118751	150886680.0419428
0.8592868419303532	150026002.59266332
0.8595016636408359	149165109.97402146
0.8597165390567462	148304002.13222528
0.8599314681915105	147442679.01346838
0.8601464510585584	146249594.67277956
0.860361487671323	144880229.81639072
0.8605765780432408	143510522.6187882
0.8607917221877518	142140472.99438518
0.8610069201182988	140770080.8575764
0.8612221718483286	140654174.7832762
0.8614374773912907	142347245.06272835
0.8616528367606385	144040738.60974985
0.8618682499698288	145734655.53015924
0.8620837170323213	147428995.92979842
0.8622992379615795	148758396.3399804
0.8625148127710699	148280084.74735525
0.8627304414742627	147801653.57683194
0.8629461240846313	147323102.7985159
0.8631618606156526	146844432.3825052
0.8633776510808066	146365642.29889062
0.8635934954935769	145993958.55443162
0.8638093938674504	145630971.40119582
0.8640253462159173	145267893.5011717
0.8642413525524714	144904724.83167264
0.8644574128906095	144541465.37000626
0.8646735272438323	142985308.2024202
0.8648896956256433	140874073.7400927
0.8651059180495498	138762311.4691495
0.8653221945290621	136650021.25764057
0.8655385250776946	134537202.97357583
0.8657549097089641	134053761.79567942
0.8659713484363913	135656836.8497722
0.8661878412735006	137260312.67262927
0.866404388233819	138864189.36444184
0.8666209893308775	140468467.0254266
0.8668376445782103	141886449.63357946
0.8670543539893549	142542785.0879846
0.8672711175778525	143199284.6262538
0.8674879353572469	143855948.28940684
0.8677048073410862	144512776.1184759
0.8679217335429217	145169768.1545027
0.8681387139763074	143528253.12334067
0.8683557486548015	141772135.5788633
0.8685728375919655	140015579.00499764
0.8687899808013633	138258583.29199234
0.8690071782965637	136501148.33005652
0.869224430091138	136377149.78918454
0.8694417361986609	136917942.23802528
0.8696590966327107	137458869.88497812
0.869876511406869	137999932.7638427
0.8700939805347206	138541130.90842676
0.8703115040298544	139474719.22359344
0.870529081905862	140857001.72855383
0.8707467141763385	142239629.80413997
0.8709644008548827	143622603.53674492
0.8711821419550964	145005923.0127822
0.8713999374905854	146311542.37066373
0.871617787474958	147348124.48783574
0.8718356919218269	148384965.750538
0.8720536508448075	149422066.22355598
0.8722716642575187	150459425.9716916
0.8724897321735832	151497045.05976474
0.8727078546066265	152813714.85191146
0.8729260315702784	154134955.14171436
0.873144263078171	155456525.7415883
0.8733625491439405	156778426.73411235
0.8735808897812266	158100658.20188504
0.8737992850036719	158625330.4872259
0.874017734824923	158867534.51414344
0.8742362392586293	159109799.09206763
0.874454798318444	159352124.2361363
0.8746734120180236	159594509.96149096
0.8748920803710283	159732538.71491846
0.875110803391121	159765672.2689423
0.8753295810919689	159798814.10635468
0.875548413487242	159831964.22922638
0.8757673005906139	159865122.63962883
0.8759862424157616	160199085.64210847
0.8762052389763657	161403500.43194297
0.8764242902861098	162608216.3254741
0.8766433963586814	163813233.39797893
0.8768625572077712	165018551.72475228
0.8770817728470732	166220210.18743446
0.8773010432902849	167112889.05778885
0.8775203685511077	168005791.0978621
0.8777397486432454	168898916.36344427
0.8779591835804065	169792264.9103439
0.8781786733763015	170685836.7943791
0.8783982180446457	171623381.99995047
0.878617817599157	172574176.37782276
0.8788374720535569	173525208.45428905
0.8790571814215703	174476478.28877422
0.8792769457169257	175427985.94071802
0.879496764953355	176158692.15309817
0.8797166391445934	176690852.17839515
0.8799365683043796	177223145.2436985
0.8801565524464557	177755571.3822682
0.8803765915845676	178288130.627373
0.8805966857324639	178588916.4738201
0.880816834903897	178307297.814828
0.881037039112623	178025608.7511711
0.8812572983724012	177743849.2652483
0.8814776126969944	177462019.3394539
0.8816979821001687	177249848.5699556
0.8819184065956938	178679071.60290918
0.8821388861973429	180108651.94162247
0.8823594209188923	181538589.67541906
0.882580010774122	182968884.89364845
0.8828006557768155	184399537.6856832
0.8830213559407598	186152919.93073368
0.8832421112797452	187987820.2987901
0.8834629218075651	189823179.3919374
0.8836837875380171	191658997.32485855
0.8839047084849018	193495274.21226323
0.884125684662023	194343127.4095619
0.8843467160831886	194398729.33342168
0.8845678027622095	194454345.1577624
0.8847889447129001	194509974.88605925
0.8850101419490785	194565618.52178815
0.8852313944845657	192805962.45815417
0.885452702333187	187072367.6370431
0.8856740655087704	181337339.41722757
0.8858954840251476	175600877.44035864
0.8861169578961539	169862981.34799817
0.886338487135628	164407527.8681823
0.886560071757412	162728378.40459597
0.8867817117753515	161048809.15364376
0.8870034072032955	159368820.01037806
0.8872251580550963	157688410.8698285
0.8874469643446101	156007581.6269928
0.8876688260856963	156341887.98837838
0.8878907432922178	157093423.03240696
0.8881127159780409	157845145.96019605
0.8883347441570356	158597056.818718
0.8885568278430749	159349155.65495378
0.8887789670500358	160111185.6171573
0.8890011617917983	160880317.58610052
0.8892234120822464	161649641.8380363
0.8894457179352669	162419158.42103446
0.8896680793647509	163188867.38317895
0.8898904963845921	164286978.68233475
0.8901129690086883	166011597.65659484
0.8903354972509405	167736647.78559804
0.8905580811252535	169462129.17713484
0.8907807206455347	171188041.9390172
0.8910034158256963	172850114.01204568
0.8912261666796527	173938203.5685204
0.8914489732213227	175026565.14738455
0.8916718354646282	176115198.8166445
0.8918947534234944	177204104.64432067
0.8921177271118502	178293282.6984531
0.8923407565436284	178438673.55535004
0.8925638417327644	178430098.98667017
0.8927869826931977	178421522.2743481
0.8930101794388711	178412943.41784796
0.8932334319837308	178404362.4166337
0.8934567403417267	178542330.72766063
0.8936801045268123	178771398.0102857
0.8939035245529441	179000522.55973127
0.8941270004340824	179229704.39031428
0.894350532184191	179458943.5163549
0.8945741198172371	180072258.08290458
0.8947977633471915	181322574.24079645
0.8950214627880284	182573202.9777277
0.8952452181537254	183824144.3718425
0.8954690294582639	185075398.50130656
0.8956928967156286	186317944.99253553
0.8959168199398075	187502262.6017565
0.8961407991447926	188686876.29038012
0.8963648343445789	189871786.13242587
0.896588925553165	191056992.20193145
0.8968130727845534	192242494.57295454
0.8970372760527496	193413464.97444057
0.8972615353717629	194582872.79393536
0.8974858507556059	195752572.96538517
0.8977102222182949	196922565.5618775
0.8979346497738496	198092850.65651962
0.8981591334362931	199483229.95797884
0.8983836732196523	200994161.20042807
0.8986082691379572	202505470.1756869
0.8988329212052417	204017156.97818956
0.8990576294355432	205529221.70239416
0.8992823938429022	206970223.44488508
0.8995072144413631	208305361.75270382
0.8997320912449734	209640833.845099
0.8999570242677847	210976639.805517
0.9001820135238516	212312779.71742517
0.9004070590272328	213638661.72027245
0.9006321607919896	214909348.60937834
0.9008573188321878	216180353.1702078
0.9010825331618959	217451675.48217687
0.9013078037951865	218723315.62472412
0.9015331307461353	219995273.67730635
0.9017585140288219	220659565.45862922
0.9019839536573292	221271656.0526237
0.9022094496457435	221883899.6692662
0.9024350020081551	222496296.34681356
0.9026606107586572	223108846.1235301
0.902886275911347	223705839.83705646
0.9031119974803249	224295409.87084404
0.9033377754796951	224885127.29714006
0.903563609923565	225474992.1527924
0.903789500826046	226065004.47465903
0.9040154482012526	226824296.314352
0.904241452063303	227802873.73439747
0.9044675124263188	228781695.79879773
0.9046936293044254	229760762.56871393
0.9049198027117517	230740074.1053231
0.9051460326624297	231681459.84759134
0.9053723191705955	232460541.54700276
0.9055986622503881	233239818.0168383
0.9058250619159507	234019289.30579135
0.9060515181814298	234798955.4625671
0.9062780310609752	235578816.53588152
0.9065046005687405	236290680.08008987
0.906731226718883	236998917.33253595
0.9069579095255627	237707331.64429423
0.907184649002944	238415923.0596305
0.907411445165195	239124691.62282136
0.9076382980264862	240527299.38741422
0.907865207600993	242218334.35167372
0.9080921739028933	243909792.0746738
0.9083191969463691	245601672.66210434
0.9085462767456058	247293976.21968257
0.9087734133147922	248458704.96005493
0.9090006066681211	249013880.77143145
0.909227856819788	249569195.37676007
0.9094551637839932	250124648.8107408
0.9096825275749393	250680241.10807982
0.9099099482068329	251318602.7323113
0.9101374256938848	252250793.92375162
0.9103649600503083	253183218.16298935
0.9105925512903209	254115875.50828668
0.9108201994281437	255048766.01792133
0.9110479044780008	255981889.75018233
0.9112756664541204	257342683.86054277
0.911503485370734	258713602.12922946
0.9117313612420768	260084863.1274833
0.9119592940823873	261456466.9409863
0.912187283905908	262828413.65544313
0.9124153307268845	263726798.96988428
0.9126434345595664	264453409.28873956
0.9128715954182063	265180201.2601739
0.9130998133170609	265907174.92960143
0.9133280882703902	266634330.34244627
0.913556420292458	267918084.2811469
0.9137848093975312	269775999.9549164
