#wavelength	surface flux
0.8	476109.68371121975
0.8002000000000001	484757.2909443212
0.8004000500000003	493954.742443085
0.8006001500125003	503160.02543584217
0.8008003000500035	512367.6097493482
0.8010005001250161	521577.495958937
0.8012007502500472	530789.6846400647
0.8014010504376099	539656.1076918214
0.8016014007002193	548408.154976578
0.8018018010503944	557162.3902731556
0.8020022515006572	565918.8141285614
0.8022027520635323	574677.4270899235
0.8024033027515483	584008.9401379164
0.8026039035772362	593902.0600466296
0.8028045545531306	603797.6532353205
0.8030052556917691	613695.7203223133
0.803206007005692	623596.261926069
0.8034068085074435	633515.7931305869
0.8036076602095705	643484.0966867231
0.8038085621246229	653454.8923187405
0.8040095142651542	663428.1806496719
0.8042105166437206	673403.9623026829
0.8044115692728815	683386.0322360502
0.8046126721651998	693533.7987180976
0.8048138253332411	703684.1021417575
0.8050150287895745	713836.9431412825
0.805216282546772	723992.3223510549
0.8054175866174087	734150.2404056243
0.8056189410140631	744309.239880372
0.8058203457493168	754470.3663796405
0.8060218008357541	764634.033160521
0.8062233062859632	774800.2408581016
0.8064248621125346	784968.9901075998
0.806626468328063	795701.3222672452
0.8068281249451449	806918.2036193679
0.8070298319763813	818137.8891918424
0.8072315894343755	829360.3796857017
0.8074333973317341	840585.6758021886
0.8076352556810671	851174.2673369684
0.8078371644949874	860226.096483028
0.8080391237861113	869280.1885863763
0.8082411335670578	878336.5442127448
0.8084431938504498	887395.1639280294
0.8086453046489125	896378.6320342018
0.8088474659750746	903922.9938689738
0.8090496778415686	911469.2417942146
0.809251940261029	919017.3762814313
0.8094542532460944	926567.3978022762
0.8096566168094059	934119.3068284927
0.8098590309636085	943275.9852885398
0.8100614957213493	952810.1204110829
0.8102640110952797	962346.6390674079
0.8104665770980536	971885.5418534008
0.8106691937423283	981426.8293650937
0.8108718610407639	991180.7473494024
0.8110745790060241	1001097.8672449758
0.8112773476507757	1011017.4664205316
0.8114801669876885	1020939.5454958788
0.8116830370294355	1030864.105090989
0.8118859577886929	1039996.6448835768
0.8120889292781401	1047481.2546118803
0.8122919515104597	1054967.7354926155
0.8124950244983374	1062456.087993571
0.8126981482544621	1069946.312582651
0.8129013227915257	1077823.7590513108
0.8131045481222237	1090115.483548908
0.8133078242592543	1102410.280977631
0.8135111512153191	1114708.1521057077
0.813714529003123	1127009.0977015682
0.8139179576353739	1139313.1185338295
0.8141214371247829	1158137.2667696313
0.8143249674840641	1178229.8869242477
0.814528548725935	1198327.5302338905
0.8147321808631167	1218430.197954388
0.8149358639083326	1238537.8913418094
0.8151395978743097	1255818.3507115326
0.8153433827737784	1271189.5358729304
0.8155472186194719	1286564.5638306132
0.8157511054241268	1301943.4355452822
0.815955043200483	1317326.1519778906
0.8161590319612831	1335534.1533444005
0.8163630717192736	1358916.6502263995
0.8165671624872033	1382304.992732593
0.8167713042778252	1405699.1823244363
0.8169754971038948	1429099.2204636892
0.8171797409781707	1449499.624844258
0.8173840359134155	1445911.4215781891
0.8175883819223938	1442322.3212613082
0.8177927790178745	1438732.3236693458
0.8179972272126291	1435141.4285779847
0.8182017265194322	1431549.6357628542
0.8184062769510622	1447911.312689425
0.8186108785203001	1467347.7618832495
0.8188155312399301	1486789.0701893463
0.8190202351227402	1506235.2388225417
0.819224990181521	1525686.2689978827
0.8194297964290664	1551393.3441010176
0.8196346538781738	1580874.7349376515
0.8198395625416434	1610363.4961219828
0.8200445224322789	1639859.6294966226
0.820249533562887	1669363.1369045975
0.8204545959462778	1695411.4796722159
0.8206597095952644	1715893.4690393785
0.8208648745226633	1736380.5789038988
0.8210700907412941	1756872.810545882
0.8212753582639793	1777370.1652457549
0.8214806771035456	1796064.1901775778
0.8216860472728215	1803620.6079964938
0.8218914687846397	1811178.914919865
0.822096941651836	1818739.111419971
0.822302465887249	1826301.1979691978
0.8225080415037209	1833865.1750400655
0.8227136685140968	1841551.9924551642
0.8229193469312254	1849254.461853673
0.8231250767679583	1856958.856869534
0.8233308580371503	1864665.1779841445
0.8235366907516598	1872373.4256790394
0.8237425749243477	1899066.5313430205
0.8239485105680789	1935827.5973730264
0.824154497695721	1972597.853669516
0.824360536320145	2009377.3025300868
0.8245666264542252	2046165.946252871
0.8247727681108388	2076204.6231228933
0.8249789613028664	2096570.414633616
0.8251852060431922	2116941.2975922343
0.825391502344703	2137317.273271583
0.8255978502202894	2157698.3429448702
0.8258042496828445	2178611.2447357792
0.8260107007452654	2202087.509360145
0.8262172034204517	2225569.643050642
0.8264237577213068	2249057.6472745687
0.8266303636607373	2272551.5234995615
0.8268370212516525	2296051.2731935987
0.8270437305069654	2308443.0777130066
0.8272504914395923	2319969.507372138
0.8274573040624523	2331498.818638687
0.8276641683884679	2343031.0122330426
0.8278710844305652	2354566.0888758106
0.8280780522016729	2373694.4321784233
0.8282850717147234	2396297.1075300667
0.8284921429826521	2418905.433550525
0.8286992660183978	2441519.4116525054
0.8289064408349024	2464139.043248996
0.8291136674451112	2484582.3593531833
0.8293209458619727	2502279.4309488665
0.8295282760984382	2519980.9268124253
0.829735658167463	2537686.8480499703
0.8299430920820048	2555397.195767802
0.8301505778550254	2573437.8564984677
0.8303581154994891	2592783.7315605846
0.8305657050283641	2612134.443091486
0.8307733464546212	2631489.9923002557
0.8309810397912352	2650850.3803963587
0.8311887850511829	2670215.6085894476
0.8313965822474458	2705827.5227221027
0.8316044313930077	2742202.20975794
0.8318123325008561	2778585.9904655707
0.8320202855839813	2814978.86711836
0.8322282906553774	2851380.841990316
0.8324363477280413	2876177.9887119844
0.8326444568149735	2896305.608020626
0.8328526179291771	2916438.2592340712
0.8330608310836596	2936575.9436103506
0.8332690962914304	2956718.662407697
0.8334774135655034	2970683.305995169
0.833685782918895	2977744.702831031
0.8338942043646247	2984807.8650160977
0.834102677915716	2991872.7929917155
0.834311203585195	2998939.487199322
0.8345197813860912	3010481.1613749512
0.8347284113314379	3037082.9752355376
0.8349370934342709	3063691.4395495737
0.8351458277076294	3090306.5559796565
0.8353546141645565	3116928.326188891
0.8355634528180977	3143556.751840667
0.8357723436813022	3158425.1868974646
0.8359812867672226	3173152.050945499
0.8361902820889144	3187882.5967095383
0.8363993296594368	3202616.8251100224
0.8366084294918518	3217354.7370676124
0.8368175815992247	3250274.353655231
0.8370267859946247	3289462.8969966103
0.8372360426911234	3328661.2374738134
0.8374453517017962	3367869.377536131
0.8376547130397217	3407087.31963346
0.8378641267179816	3439695.6013974342
0.8380735927496613	3465743.805396002
0.8382831111478488	3491798.5214455537
0.8384926819256358	3517859.751174104
0.8387023050961173	3543927.496210109
0.8389119806723914	3568656.5881684166
0.8391217086675596	3589606.1144323917
0.8393314890947265	3610560.878077917
0.8395413219670003	3631520.8804143555
0.8397512072974922	3652486.1227513924
0.8399611450993165	3673441.192471588
0.8401711353855914	3693636.050833039
0.8403811781694378	3713835.9579090746
0.8405912734639802	3734040.9149618847
0.8408014212823464	3754250.923253967
0.8410116216376671	3774465.98404812
0.8412218745430766	3794680.3954270165
0.8414321800117124	3814898.2010033103
0.8416425380567154	3835121.061031008
0.8418529486912297	3855348.9767737174
0.8420634119284025	3875581.9494953454
0.8422739277813847	3923659.0861689397
0.8424844962633302	3996275.5745173446
0.842695117387396	4068910.2169877435
0.8429057911667428	4141563.0181187633
0.8431165176145345	4214233.982450101
0.8433272967439382	4264466.836450767
0.8435381285681244	4259935.1593186315
0.8437490131002665	4255402.349267214
0.8439599503535415	4250868.406013286
0.84417094034113	4246333.329273541
0.8443819830762154	4243640.429821318
0.8445930785719846	4278080.515961263
0.8448042268416277	4312529.212122723
0.8450154278983382	4346986.5204582205
0.8452266817553128	4381452.443120799
0.8454379884257517	4415926.982264047
0.8456493479228583	4468600.855636867
0.845860760259839	4525668.440417375
0.846072225449904	4582750.29209408
0.8462837435062666	4639846.414233715
0.8464953144421433	4696956.810403918
0.8467069382707537	4741113.107738562
0.8469186150053215	4775171.992998839
0.847130344659073	4809239.3929804405
0.8473421272452377	4843315.309812005
0.8475539627770492	4877399.745622811
0.8477658512677435	4908176.926279644
0.8479777927305605	4931921.186965716
0.8481897871787432	4955671.383716954
0.848401834625538	4979427.518017394
0.8486139350841944	5003189.591351393
0.8488260885679657	5022944.793140503
0.8490382950901076	4993790.179233861
0.8492505546638802	4964628.276673729
0.8494628673025462	4935459.083637966
0.8496752330193721	4906282.598303902
0.8498876518276269	4877098.818848543
0.8501001237405839	4650429.48334928
0.8503126487715191	4384283.3515215
0.850525226933712	4118070.6831609113
0.8507378582404455	3851791.4616332348
0.8509505427050057	3585445.6703000213
0.8511632803406821	3381744.483410095
0.8513760711607672	3220938.0535128675
0.8515889151785576	3060091.4220079156
0.8518018124073523	2899204.578845222
0.8520147628604541	2738277.5139718326
0.8522277665511693	2692053.099698511
0.8524408234928071	2858020.2204825482
0.8526539336986805	3024028.8330468256
0.8528670971821053	3190078.9477642546
0.8530803139564007	3356170.5750101674
0.8532935840348901	3546737.310984654
0.8535069074308987	3943705.806490561
0.8537202841577566	4340773.544120678
0.8539337142287962	4737940.548685247
0.8541471976573534	5135206.84500071
0.8543607344567677	5532572.457890323
0.8545743246403821	5684830.804142905
0.8547879682215422	5798185.603053701
0.8550016652135977	5911568.74066421
0.8552154156299011	6024980.224059128
0.8554292194838088	6138420.060324976
0.8556430767886797	6220564.403061187
0.855856987557877	6283710.265356828
0.8560709518047664	6346871.914118003
0.8562849695427177	6410049.353291392
0.8564990407851035	6473242.586824592
0.8567131655452999	6530491.075284245
0.8569273438366862	6577987.326614385
0.8571415756726455	6625495.452007365
0.8573558610665638	6673015.454431713
0.8575702000318304	6720547.336856613
0.8577845925818384	6768614.82934137
0.857999038729984	6819965.731041273
0.8582135384896665	6871329.4704665905
0.858428091874289	6922706.0508267665
0.8586426988972576	6974095.475332018
0.8588573595719821	7025497.747193415
0.8590720739118751	7056718.732150675
0.8592868419303532	7085566.573206348
0.8595016636408359	7114421.626222286
0.8597165390567462	7143283.893001469
0.8599314681915105	7172153.3753473535
0.8601464510585584	7148003.798139835
0.860361487671323	7095702.205905154
0.8605765780432408	7043387.53827243
0.8607917221877518	6991059.7919727545
0.8610069201182988	6938718.963736518
0.8612221718483286	6831410.030812918
0.8614374773912907	6644849.173006672
0.8616528367606385	6458241.674986025
0.8618682499698288	6271587.525090756
0.8620837170323213	6084886.711658043
0.8622992379615795	5933969.799699054
0.8625148127710699	5960326.955127341
0.8627304414742627	5986690.699844487
0.8629461240846313	6013061.035497817
0.8631618606156526	6039437.963735063
0.8633776510808066	6065821.4862043625
0.8635934954935769	6159868.8909340575
0.8638093938674504	6259485.797646868
0.8640253462159173	6359127.608586353
0.8642413525524714	6458794.329978571
0.8644574128906095	6558485.968051117
0.8646735272438323	6645482.8922341075
0.8648896956256433	6726586.582092138
0.8651059180495498	6807710.547872638
0.8653221945290621	6888854.794644506
0.8655385250776946	6970019.327478181
0.8657549097089641	7052466.787410946
0.8659713484363913	7136551.310804485
0.8661878412735006	7220656.855328912
0.866404388233819	7304783.426239459
0.8666209893308775	7388931.028792694
0.8668376445782103	7462783.221264929
0.8670543539893549	7494547.219607124
0.8672711175778525	7526319.158948928
0.8674879353572469	7558099.041275532
0.8677048073410862	7589886.86857273
0.8679217335429217	7621682.64282677
0.8681387139763074	7684868.670687445
0.8683557486548015	7749629.48799729
0.8685728375919655	7814406.495511541
0.8687899808013633	7879199.69727753
0.8690071782965637	7944009.097344045
0.869224430091138	7973407.677405761
0.8694417361986609	7988398.396501168
0.8696590966327107	8003392.863276345
0.869876511406869	8018391.078668217
0.8700939805347206	8033393.04361393
0.8703115040298544	8057724.699351987
0.870529081905862	8092724.685662213
0.8707467141763385	8127733.421969004
0.8709644008548827	8162750.91045987
0.8711821419550964	8197777.153322837
0.8713999374905854	8232483.911842389
0.871617787474958	8266066.473804349
0.8718356919218269	8299657.4314068295
0.8720536508448075	8333256.786748714
0.8722716642575187	8366864.541929414
0.8724897321735832	8400480.699048923
0.8727078546066265	8460129.413802883
0.8729260315702784	8520188.953481143
0.873144263078171	8580263.508044258
0.8733625491439405	8640353.081246018
0.8735808897812266	8700457.676841103
0.8737992850036719	8727658.81689838
0.874017734824923	8743207.57229834
0.8742362392586293	8758760.214887146
0.874454798318444	8774316.745636595
0.8746734120180236	8789877.165518733
0.8748920803710283	8815037.587877076
0.875110803391121	8849847.478891918
0.8753295810919689	8884666.072379535
0.875548413487242	8919493.370515523
0.8757673005906139	8954329.37547605
0.8759862424157616	9016623.759332228
0.8762052389763657	9158360.632048327
0.8764242902861098	9300132.93898251
0.8766433963586814	9441940.688993461
0.8768625572077712	9583783.890941959
0.8770817728470732	9724306.755925635
0.8773010432902849	9759007.483108079
0.8775203685511077	9793716.88547237
0.8777397486432454	9828434.965187209
0.8779591835804065	9863161.724422017
0.8781786733763015	9897897.165346589
0.8783982180446457	9869405.978301903
0.878617817599157	9822096.345149709
0.8788374720535569	9774774.88458925
0.8790571814215703	9727441.593663663
0.8792769457169257	9680096.469415342
0.879496764953355	9686191.83968947
0.8797166391445934	9740345.890010709
0.8799365683043796	9794513.47884453
0.8801565524464557	9848694.609575562
0.8803765915845676	9902889.285589326
0.8805966857324639	9951697.84795166
0.880816834903897	9986956.27945817
0.881037039112623	10022223.525572572
0.8812572983724012	10057499.5884985
0.8814776126969944	10092784.470440174
0.8816979821001687	10126872.723597346
0.8819184065956938	10132593.002800671
0.8821388861973429	10138314.712073801
0.8823594209188923	10144037.851774246
0.882580010774122	10149762.422259612
0.8828006557768155	10155488.423887603
0.8830213559407598	10233769.14134912
0.8832421112797452	10330317.316467645
0.8834629218075651	10426889.628629891
0.8836837875380171	10523486.083870206
0.8839047084849018	10620106.688224347
0.884125684662023	10660624.75464857
0.8843467160831886	10656174.574288625
0.8845678027622095	10651723.28138359
0.8847889447129001	10647270.875655327
0.8850101419490785	10642817.356825635
0.8852313944845657	10721374.693957455
0.885452702333187	10981654.689838143
0.8856740655087704	11241999.755717764
0.8858954840251476	11502409.907863783
0.8861169578961539	11762885.162547719
0.886338487135628	11991294.767066622
0.886560071757412	11792184.259551693
0.8867817117753515	11593023.974409891
0.8870034072032955	11393813.899196712
0.8872251580550963	11194554.021464966
0.8874469643446101	10995244.328763662
0.8876688260856963	11004918.35278398
0.8878907432922178	11057856.966192357
0.8881127159780409	11110808.814254051
0.8883347441570356	11163773.900277825
0.8885568278430749	11216752.22757305
0.8887789670500358	11204363.053972807
0.8890011617917983	11145591.405371973
0.8892234120822464	11086805.063858964
0.8894457179352669	11028004.02576062
0.8896680793647509	10969188.28740271
0.8898904963845921	10908883.250454267
0.8901129690086883	10845749.571827337
0.8903354972509405	10782600.109780766
0.8905580811252535	10719434.860368636
0.8907807206455347	10656253.819644235
0.8910034158256963	10584891.808056172
0.8912261666796527	10440540.07662746
0.8914489732213227	10296152.257265849
0.8916718354646282	10151728.340949256
0.8918947534234944	10007268.318653725
0.8921177271118502	9862772.181352708
0.8923407565436284	9363666.563117638
0.8925638417327644	8806595.612664595
0.8927869826931977	8249385.394473754
0.8930101794388711	7692035.873728402
0.8932334319837308	7134547.015602952
0.8934567403417267	6778877.826367362
0.8936801045268123	6548613.490263638
0.8939035245529441	6318291.588076044
0.8941270004340824	6087912.105412813
0.894350532184191	5857475.027878974
0.8945741198172371	5945988.866816141
0.8947977633471915	6563562.421629635
0.8950214627880284	7181290.369831807
0.8952452181537254	7799172.750020662
0.8954690294582639	8417209.600804936
0.8956928967156286	9033551.61664081
0.8959168199398075	9638046.133163564
0.8961407991447926	10242691.773315603
0.8963648343445789	10847488.574877663
0.896588925553165	11452436.575639773
0.8968130727845534	12057535.81340215
0.8970372760527496	12184248.893097118
0.8972615353717629	12251118.981349219
0.8974858507556059	12318005.787123391
0.8977102222182949	12384909.31459899
0.8979346497738496	12451829.567956494
0.8981591334362931	12680711.211543595
0.8983836732196523	12998213.802293539
0.8986082691379572	13315795.768690959
0.8988329212052417	13633457.130579982
0.8990576294355432	13951197.90780975
0.8992823938429022	14155542.850477213
0.8995072144413631	14191215.573750284
0.8997320912449734	14226897.215204159
0.8999570242677847	14262587.77706839
0.9001820135238516	14298287.261573087
0.9004070590272328	14354193.078334372
0.9006321607919896	14515994.571676133
0.9008573188321878	14677836.515391394
0.9010825331618959	14839718.919592507
0.9013078037951865	15001641.794394696
0.9015331307461353	15163605.1499155
0.9017585140288219	15600954.417892491
0.9019839536573292	16062129.238044893
0.9022094496457435	16523419.351902
0.9024350020081551	16984824.788288094
0.9026606107586572	17446345.576033134
0.902886275911347	17655860.13985017
0.9031119974803249	17743886.919832926
0.9033377754796951	17831935.70651068
0.903563609923565	17920006.505385064
0.903789500826046	18008099.321959227
0.9040154482012526	18005687.185351122
0.904241452063303	17886004.65213622
0.9044675124263188	17766292.19828805
0.9046936293044254	17646549.816326432
0.9049198027117517	17526777.498769265
0.9051460326624297	17445149.929245967
0.9053723191705955	17526058.66839653
0.9055986622503881	17606987.634731803
0.9058250619159507	17687936.833308663
0.9060515181814298	17768906.269185215
0.9062780310609752	17849895.947420683
0.9065046005687405	17844848.140119474
0.906731226718883	17834998.164376017
0.9069579095255627	17825145.726138636
0.907184649002944	17815290.824791696
0.907411445165195	17805433.45971941
0.9076382980264862	18122939.673158113
0.907865207600993	18576479.774436552
0.9080921739028933	19030133.26074018
0.9083191969463691	19483900.160415307
0.9085462767456058	19937780.501815572
0.9087734133147922	20088406.7915098
0.9090006066681211	19888677.4897959
0.909227856819788	19688898.255756836
0.9094551637839932	19489069.07690899
0.9096825275749393	19289189.940766495
0.9099099482068329	19111071.31030271
0.9101374256938848	19010422.95816038
0.9103649600503083	18909749.443930067
0.9105925512903209	18809050.761321217
0.9108201994281437	18708326.904041607
0.9110479044780008	18607577.86579779
0.9112756664541204	19123222.015643556
0.911503485370734	19653104.784466665
0.9117313612420768	20183120.023981985
0.9119592940823873	20713267.767307017
0.912187283905908	21243548.047568053
0.9124153307268845	21221236.120125365
0.9126434345595664	20998311.82799957
0.9128715954182063	20775331.804800957
0.9130998133170609	20552296.036596432
0.9133280882703902	20329204.509449866
0.913556420292458	20262763.310680438
0.9137848093975312	20357918.81766755
0.9140132555998806	20453098.1135314
0.9142417589137806	20548301.204219222
0.9144703193535092	20643528.095679775
