#wavelength	surface flux
0.7	357213.10932786524
0.7001166666666666	357711.4445743088
0.7002333527777778	357762.6479643018
0.700350058336574	357813.85988819314
0.7004667833462966	357865.080347405
0.7005835278101878	357916.30934336025
0.7007002917314895	357967.5468774814
0.7008170751134447	358018.79295119154
0.7009338779592968	358070.04756591393
0.7010507002722901	358117.62090024
0.7011675420556689	358160.71189437853
0.701284403312678	358203.8100703493
0.7014012840465635	358246.9154293495
0.7015181842605713	358290.0279725762
0.701635103957948	358333.14770122676
0.701752043141941	358376.2746164987
0.701869001815798	358419.40871958993
0.7019859799827672	358866.2011937242
0.7021029776460976	359593.986627277
0.7022199948090387	360321.89335840294
0.7023370314748403	361049.9214073171
0.7024540876467528	361778.0707942393
0.702571163328027	362506.34153939143
0.7026882585219152	363234.733663003
0.7028053732316688	363963.24718530086
0.7029225074605406	365035.75322495087
0.7030396612117841	366241.22241704486
0.7031568344886527	367446.89252067107
0.7032740272944008	368652.7635693138
0.7033912396322832	369858.8355964653
0.7035084715055552	371065.10863562004
0.7036257229174727	372271.5827202818
0.7037429938712924	373478.2578839588
0.7038602843702709	373672.65245824994
0.7039775944176659	373695.3551258177
0.7040949240167356	373718.0615771634
0.7042122731707383	373740.7718129176
0.7043296418829335	373763.48583371117
0.7044470301565806	373786.2036401748
0.70456443799494	373808.92523293954
0.7046818654012724	373831.6506126364
0.7047993123788394	374829.5193818753
0.7049167789309024	375828.673478541
0.7050342650607243	376827.9941008911
0.7051517707715678	377827.4812766778
0.7052692960666963	378827.1350336599
0.705386840949374	379826.95539960114
0.7055044054228656	380826.94240227167
0.7056219894904361	381695.9066463176
0.7057395931553511	381731.3208995261
0.705857216420877	381766.74105511024
0.7059748592902804	381802.16711405356
0.7060925217668288	381837.59907734004
0.70621020385379	381873.0369459538
0.7063279055544321	381908.4807208789
0.7064456268720246	381943.9304030999
0.7065633678098366	382077.27112256305
0.7066811283711383	382480.2115056074
0.7067989085592001	382883.21904538234
0.7069167083772933	383286.29375308024
0.7070345278286895	383689.4356398964
0.707152366916661	384092.6447170271
0.7072702256444803	384495.9209956702
0.7073881040154211	384899.2644870269
0.7075060020327569	385476.08323156956
0.7076239196997625	386305.5404390315
0.7077418570197124	387135.1358893605
0.7078598139958823	387964.8696055978
0.7079777906315483	388794.7416107887
0.7080957869299869	389624.75192797976
0.7082138028944751	390454.90058022324
0.7083318385282908	391285.18759057607
0.7084498938347124	391432.29872852546
0.708567968817018	391000.1065985615
0.7086860634784875	390567.84243657545
0.7088041778224007	390135.50623056205
0.7089223118520377	389703.09796851483
0.7090404655706796	389270.6176384242
0.709158638981608	388838.0652282781
0.709276832088105	388405.4407260635
0.7093950448934531	388685.17065501737
0.7095132774009353	389304.7111059593
0.7096315296138355	389924.3548136433
0.7097498015354378	390544.10179527843
0.7098680931690269	391163.9520680765
0.7099864045178884	391783.9056492542
0.7101047355853081	392403.9625560287
0.7102230863745722	393024.1228056205
0.7103414568889679	393622.3937533721
0.7104598471317828	394215.7671620222
0.7105782571063047	394809.23946624
0.7106966868158224	395402.81068250845
0.710815136263625	395996.48082731286
0.7109336054530023	396590.24991714174
0.7110520943872445	397184.1179684854
0.7111706030696424	397778.084997838
0.7112891315034873	397690.42161230446
0.7114076796920712	397570.2163427285
0.7115262476386865	397449.991038941
0.7116448353466263	397329.7456976029
0.711763442819184	397209.48031537456
0.711882070059654	397089.19488891575
0.7120007170713306	396968.8894148859
0.7121193838575091	396853.7673229479
0.7122380704214853	396792.8965182846
0.7123567767665555	396732.0155684871
0.7124755028960166	396671.1244718647
0.7125942488131658	396610.22322672623
0.7127130145213015	396549.31183138007
0.7128318000237216	396488.39028413483
0.7129506053237256	396427.4585832983
0.7130694304246129	396368.3935342716
0.7131882753296837	396315.88061983197
0.7133071400422386	396263.3589532399
0.7134260245655789	396210.8285330368
0.7135449289030065	396158.28935776366
0.7136638530578235	396105.7414259613
0.7137827970333332	396053.1847361703
0.7139017608328388	396000.6192869309
0.7140207444596443	395920.55820508825
0.7141397479170543	395791.44992865383
0.7142587712083737	395662.3201341735
0.7143778143369084	395533.16881806066
0.7144968773059646	395403.99597672845
0.7146159601188489	395274.80160658935
0.7147350627788687	395145.58570405527
0.7148541852893318	395016.3482655374
0.7149733276535467	394547.50435390935
0.7150924898748222	393736.1524448135
0.715211671956468	392924.66531039943
0.7153308739017941	392113.0429281289
0.715450095714111	391301.28527546173
0.71556933739673	390489.3923298524
0.7156885989529628	389677.36406875215
0.7158078803861218	388865.2004696072
0.7159271816995193	387043.5757145399
0.7160465028964692	384629.23608377174
0.7161658439802853	382214.4940630652
0.7162852049542819	379799.3495853557
0.7164045858217744	377383.8025835651
0.716523986586078	374967.85299060855
0.7166434072505089	372551.50073938764
0.716762847818384	370134.7457627907
0.7168823082930204	368505.3190712393
0.7170017886777359	367107.3679393193
0.7171212889758488	365709.1838155448
0.7172408091906781	364310.7666610826
0.7173603493255433	362912.1164370943
0.7174799093837642	361513.2331047361
0.7175994893686615	360114.1166251552
0.7177190892835562	358714.76695949497
0.7178387091317702	359558.58554583316
0.7179583489166254	360627.743852665
0.7180780086414448	361697.08035254886
0.7181976883095517	362766.5950751826
0.7183173879242699	363836.28805027023
0.718437107488924	364906.1593075206
0.7185568470068389	365976.20887664764
0.7186766064813399	366999.99326862954
0.7187963859157535	366862.75797
0.7189161853134061	366725.49979882065
0.719036004677625	366588.2187512794
0.7191558440117378	366450.9148235637
0.7192757033190732	366313.58801185986
0.7193955826029597	366176.2383123542
0.7195154818667269	366038.86572123185
0.7196354011137046	365855.90609278256
0.7197553403472235	365463.1305171503
0.7198752995706147	365070.2894789222
0.7199952787872098	364677.38296718744
0.720115278000341	364284.41097103414
0.7202352972133411	363891.3734795481
0.7203553364295432	363498.27048181405
0.7204753956522815	363105.10196691315
0.7205954748848902	363256.4613350934
0.7207155741307044	364608.4708620743
0.7208356933930594	365960.70572397386
0.7209558326752915	367313.1659583508
0.7210759919807375	368665.85160276864
0.7211961713127342	370018.76269479207
0.7213163706746197	371371.89927199966
0.7214365900697322	372725.2613719687
0.7215568295014103	372943.8428636191
0.721677088972994	371808.20721979195
0.7217973684878227	370672.3823033594
0.7219176680492374	369536.3680827728
0.7220379876605789	368400.16452648345
0.722158327325189	367263.7716029343
0.7222786870464099	366127.18928056513
0.7223990668275843	364990.41752780846
0.7225194666720555	364092.5737219925
0.7226398865831676	363364.0487695062
0.7227603265642646	362635.40239619627
0.722880786618692	361906.63458182255
0.7230012667497951	361177.7453061469
0.7231217669609201	360448.73454892525
0.7232422872554135	359719.6022899114
0.7233628276366229	358990.34850885306
0.7234833881078956	359204.12232024636
0.7236039686725803	359776.00908925856
0.7237245693340255	360347.9911727314
0.7238451900955812	360920.06858655246
0.7239658309605971	361492.24134660856
0.7240864919324239	362064.50946879206
0.7242071730144127	362636.872968996
0.724327874209915	363209.3318631154
0.7244485955222832	360775.8615338928
0.7245693369548704	357844.9648495673
0.7246900985110294	354913.57968246535
0.7248108801941148	351981.7059511611
0.7249316820074803	349049.34357424476
0.7250525039544815	346116.4924702608
0.7251733460384739	343183.15255775914
0.7252942082628137	340254.4661733686
0.7254150906308574	340304.9715942281
0.7255359931459625	340355.4854326578
0.7256569158114868	340406.0076900606
0.7257778586307888	340456.53836783965
0.7258988216072273	340507.07746739825
0.7260198047441617	340557.6249901401
0.7261408080449525	340608.1809374692
0.72626183151296	340670.4877149325
0.7263828751515454	340810.8398896605
0.7265039389640706	340951.2154564176
0.726625022953898	341091.61441910255
0.7267461271243904	341232.03678161476
0.7268672514789111	341372.4825478539
0.7269883960208241	341512.9517217207
0.7271095607534942	341653.4443071165
0.7272307456802866	341609.35043337615
0.7273519508045666	341066.57337959413
0.7274731761297006	340523.70586297003
0.7275944216590555	339980.74786842655
0.7277156873959987	339437.69938088383
0.7278369733438982	338894.5603852589
0.727958279506122	338351.33086646954
0.7280796058860397	337808.0108094263
0.7282009524870207	336642.82281870954
0.7283223193124353	334557.76264343516
0.7284437063656539	332472.35495813575
0.7285651136500483	330386.59970488545
0.7286865411689898	328300.49682576384
0.7288079889258514	326214.04626282403
0.7289294569240056	324127.2479581286
0.7290509451668262	322040.1018537132
0.7291724536576875	320402.89720616135
0.7292939823999636	319138.53286089713
0.7294155313970303	317873.95778823947
0.7295371006522632	316609.1719530701
0.7296586901690385	315344.1753202625
0.7297802999507332	314078.9678546833
0.7299019300007252	312813.5495211899
0.7300235803223919	311547.92028464435
0.7301452509191123	310923.35672471044
0.7302669417942654	310594.68276479567
0.7303886529512311	310265.95402588753
0.7305103843933897	309937.17049885617
0.7306321361241218	309608.33217457053
0.7307539081468093	309279.439043897
0.7308757004648336	308950.4910977023
0.7309975130815778	308621.48832684953
0.7311193460004248	308531.52038047975
0.7312411992247582	308495.66428586026
0.7313630727579622	308459.802215225
0.7314849666034219	308423.9341675779
0.7316068807645224	308388.0601419229
0.7317288152446498	308352.18013726367
0.7318507700471907	308316.29415260354
0.7319727451755319	308280.40218694607
0.732094740633061	307137.51606058935
0.7322167564231665	305944.60249482136
0.7323387925492371	304751.49011012574
0.7324608490146619	303558.1788733663
0.732582925822831	302364.6687514005
0.7327050229771347	301170.95971108234
0.7328271404809642	299977.05171925627
0.7329492783377112	298801.29197102936
0.7330714365507675	297805.7089336641
0.7331936151235259	296809.95996579283
0.7333158140593796	295814.04503976135
0.7334380333617229	294817.9641279074
0.7335602730339499	293821.71720256767
0.7336825330794556	292825.3042360735
0.7338048135016354	291828.7252007535
0.7339271143038857	291048.4352703191
0.734049435489603	290993.28864047636
0.7341717770621846	290938.13281952863
0.7342941390250283	290882.9678059441
0.7344165213815324	290827.7935981906
0.734538924135096	290772.6101947358
0.7346613472891185	290717.41759404715
0.734783790847	290662.2157945917
0.7349062548121412	289951.9292407536
0.7350287391879431	288083.6515102151
0.7351512439778078	286215.06240005104
0.7352737691851374	284346.1618583709
0.735396314813335	282476.94983326545
0.7355188808658037	280607.42627282557
0.7356414673459482	278737.59112512186
0.7357640742571725	276867.44433822815
0.7358867016028818	275298.8193355915
0.7360093493864824	274028.020671842
0.7361320176113801	272757.01020831696
0.736254706280982	271485.7879097146
0.7363774153986956	270214.3537407275
0.7365001449679286	268942.7076660482
0.7366228949920899	267670.8496503554
0.7367456654745885	266398.7796583267
0.7368684564188344	265217.9095657255
0.7369912678282374	264088.5067471376
0.7371140997062088	262958.91569474613
0.7372369520561599	261829.13637717816
0.7373598248815024	260699.16876305983
0.7374827181856494	259569.01282100394
0.7376056319720137	258438.66851962428
0.7377285662440091	257308.13582752753
0.7378515210050496	255506.20656471784
0.7379744962585505	253502.0308675945
0.738097492007927	251497.5211411888
0.7382205082565949	249492.67732982995
0.738343545007971	247487.49937783627
0.7384666022654723	245481.98722951525
0.7385896800325165	243476.1408291725
0.7387127783125219	241469.96012109387
0.7388358971089073	241343.55558371893
0.7389590364250921	241405.70973205476
0.7390821962644963	241467.87423941534
0.7392053766305403	241530.04910752707
0.7393285775266454	241592.23433811686
0.7394517989562333	241654.42993291182
0.7395750409227259	241716.63589363915
0.7396983034295463	241724.98567020442
0.739821586480118	240535.03530511045
0.7399448900778645	239344.88661495803
0.7400682142262109	238154.53956668693
0.740191558928582	236963.99412724242
0.7403149241884034	235773.2502635589
0.7404383100091014	234582.30794256448
0.7405617163941028	233391.16713118402
0.7406851433468352	232111.84186721515
0.7408085908707264	230429.78891646612
0.7409320589692048	228747.45562355945
0.7410555476456997	227064.84194176923
0.7411790569036406	225381.94782436665
0.7413025867464579	223698.7732246107
0.7414261371775823	222015.31809575428
0.7415497082004452	220331.5823910444
0.7416732998184786	218655.36707304712
0.741796912035115	216995.60708674992
0.7419205448537874	215335.5704737887
0.7420441982779297	213675.25718805875
0.742167872310976	212014.6671834463
0.7422915669563612	210353.80041383312
0.7424152822175206	208692.6568330921
0.7425390180978901	207031.23639508866
0.7426627746009065	205649.50272695252
0.7427865517300065	204608.8345353051
0.7429103494886282	203567.99289895798
0.7430341678802096	202526.9777890056
0.7431580069081896	201485.789176535
0.7432818665760077	200444.4270326275
0.7434057468871037	199402.89132836353
0.7435296478449182	198361.18203481613
0.7436535694528923	197109.28210137654
0.7437775117144678	195713.41042473767
0.7439014746330868	194317.3061028215
0.7440254582121922	192920.9690968504
0.7441494624552276	191524.39936804445
0.7442734873656368	190127.59687761735
0.7443975329468645	188730.56158677404
0.7445215992023557	187333.29345671576
0.7446456861355559	185855.05343071482
0.7447697937499119	184346.82492094947
0.7448939220488703	182838.34503976614
0.7450180710358784	181329.6137452706
0.7451422407143843	179820.63099555913
0.7452664310878367	178311.3967487213
0.7453906421596846	176801.91096284398
0.7455148739333779	175292.1735960018
0.7456391264123667	173942.64186085365
0.7457633996001021	172618.5414314868
0.7458876935000356	171294.22031871267
0.7460120081156189	169969.67848575563
0.7461363434503048	168644.9158958258
0.7462606995075466	167319.93251212977
0.7463850762907978	165994.7282978718
0.7465094738035127	164669.0878903869
0.7466338920491467	163286.8984961058
0.746758331031155	161904.47873692427
0.7468827907529935	160521.82857445118
0.7470072712181189	159138.94797028432
0.7471317724299886	157755.83688601648
0.7472562943920602	156372.4952832356
0.7473808371077922	154988.92312351966
0.7475054005806435	153598.06824349004
0.7476299848140736	152163.54323026343
0.7477545898115426	150728.77912953432
0.7478792155765113	149293.7759014547
0.7480038621124406	147858.53350617157
0.7481285294227926	146423.0519038229
0.7482532175110298	144987.33105453895
0.7483779263806148	143551.3709184488
0.7485026560350116	142122.95137159657
0.7486274064776842	140715.3498059195
0.748752177712097	139307.51363998404
0.7488769697417158	137899.4428346846
0.749001782570006	136491.1373509193
0.7491266162004343	135082.5971495738
0.7492514706364677	133673.82219152743
0.7493763458815739	132264.81243765328
0.7495012419392209	130836.13017352551
0.7496261588128773	129379.2658210714
0.7497510965060128	127922.15865789085
0.7498760550220971	126464.80864351698
0.7500010343646007	125007.21573747383
0.7501260345369949	123549.37989927894
0.750251055542751	122091.301088446
0.7503760973853414	120632.97926447704
0.7505011600682389	119196.26198170199
0.750626243594917	117777.54748815924
0.7507513479688495	116358.59654220306
0.7508764731935109	114939.40910442205
0.7510016192723765	113519.98513540106
0.7511267862089218	112100.3245957199
0.7512519740066232	110680.42744594827
0.7513771826689577	109260.29364665087
0.7515024121994025	107904.92122540117
0.7516276626014359	106579.62866027936
0.751752933878536	105254.11521306567
0.7518782260341824	103928.38084694368
0.7520035390718548	102602.4255250934
0.7521288729950334	101276.24921069016
0.7522542278071992	99949.8518669011
0.7523796035118337	98623.23345688742
0.7525050001124189	97289.22312934659
0.7526304176124378	95953.43097497502
0.7527558560153731	94617.41618857943
0.752881315324709	93281.17873305148
0.7530067955439299	91944.71857128046
0.7531322966765205	90608.03566615093
0.7532578187259665	89271.1299805368
0.7533833616957542	87934.00147730845
0.75350892558937	86619.86884106311
0.7536345104103016	85306.60899336569
0.7537601161620366	83993.13026902766
0.7538857428480638	82679.43263156763
0.7540113904718717	81365.51604450305
0.7541370590369503	80051.38047134093
0.7542627485467898	78737.02587558245
0.7543884590048808	77431.26115553507
0.7545141904147151	76213.1225041164
0.7546399427797842	74994.78082959114
0.7547657161035808	73776.23609811992
0.754891510389598	72557.48827586019
0.7550173256413296	71338.53732896292
0.7551431618622698	70119.38322357481
0.7552690190559135	68900.02592583606
0.7553948972257561	67688.11580749688
0.7555207963752938	66501.68323555207
0.755646716508023	65315.05292484594
0.755772657627441	64128.22484242096
0.7558986197370455	62941.1989553154
0.756024602840335	61753.97523056228
0.7561506069408084	60566.55363518839
0.7562766320419653	59378.9341362142
0.7564026781473054	58201.18056851814
0.75652874526033	57040.94043103203
0.7566548333845401	55880.50692018907
0.7567809425234375	54719.88000376139
0.7569070726805247	53559.059649514966
0.7570332238593047	52398.04582520966
0.7571593960632813	51236.83849859919
0.7572855892959586	50075.43763743422
0.7574118035608413	48975.651546090434
0.7575380388614347	47936.15126993125
0.7576642952012449	46896.477743725656
0.7577905725837782	45856.63093860052
0.7579168710125422	44816.61082567269
0.7580431904910444	43776.41737605897
0.7581695310227928	42736.05056087163
0.7582958926112967	41695.51035121379
0.7584222752600652	40701.616525501566
0.7585486789726085	39734.45324328072
0.7586751037524372	38767.128767179136
0.7588015496030628	37799.64307032965
0.7589280165279966	36831.99612586593
0.7590545045307512	35864.18790691148
0.7591810136148396	34896.218386587214
0.7593075437837755	33928.087538008134
0.7594340950410726	33026.535459286904
0.7595606673902461	32144.196872952867
0.7596872608348112	31261.711230186884
0.7598138753782836	30379.078506481415
0.75994051102418	29496.29867732117
0.7600671677760173	28613.371718190087
0.7601938456373134	27730.29760456514
0.7603205446115863	26847.07631192175
0.7604472647023548	26034.73344153704
0.7605740059131385	25229.315119394465
0.7607007682474575	24423.76256086408
0.7608275517088319	23618.075743575726
0.7609543563007835	22812.254645149376
0.7610811820268336	22006.2992432071
0.7612080288905045	21200.209515366052
0.7613348968953197	20396.78470645244
0.7614617860448022	19650.660775799686
0.7615886963424764	18904.41249115747
0.7617156277918667	18158.03983180187
0.7618425803964988	17411.54277700243
0.7619695541598982	16664.921306027387
0.7620965490855914	15918.175398141067
0.7622235651771058	15171.30503260257
0.7623506024379685	14449.420670912945
0.7624776608717082	13837.47797986037
0.7626047404818536	13225.433298359258
0.7627318412719337	12613.28660941228
0.762858963245479	12001.03789601676
0.7629861064060198	11388.687141168952
0.7631132707570876	10776.234327861366
0.7632404563022137	10163.679439085448
0.7633676630449308	9584.461135432965
0.7634948909887717	9076.32613772633
0.7636221401372697	8568.106450854073
0.7637494104939593	8059.80206070019
0.7638767020623748	7551.412953148682
0.7640040148460518	7042.939114078671
0.7641313488485262	6534.380529368833
0.7642587040733344	6025.7371848943
0.7643860805240132	5559.008685678843
0.7645134782041005	5142.320534279948
0.7646408971171346	4725.562934855648
0.764768337266654	4308.735875831595
0.7648957986561985	3891.839345630904
0.7650232812893079	3474.873332675235
0.7651507851695227	3057.8378253840688
0.7652783103003843	2640.7328121750725
