#wavelength	surface flux
0.8	1064274.0764057233
0.8002000000000001	1084449.421686816
0.8004000500000003	1105334.2681208462
0.8006001500125003	1126231.4514789826
0.8008003000500035	1147133.85913296
0.8010005001250161	1168041.4923888606
0.8012007502500472	1188954.352553045
0.8014010504376099	1209846.059422446
0.8016014007002193	1230734.1522187353
0.8018018010503944	1251627.4670382233
0.8020022515006572	1272526.0051864258
0.8022027520635323	1293429.7679691473
0.8024033027515483	1315419.4893162968
0.8026039035772362	1338473.7839457097
0.8028045545531306	1361533.8421487808
0.8030052556917691	1384599.665366414
0.803206007005692	1407671.2550398312
0.8034068085074435	1430812.5168208063
0.8036076602095705	1454138.6967919925
0.8038085621246229	1477470.7083081533
0.8040095142651542	1500808.5528272076
0.8042105166437206	1524152.2318073837
0.8044115692728815	1547517.2862832989
0.8046126721651998	1571556.5665654682
0.8048138253332411	1595601.8566676888
0.8050150287895745	1619653.158092457
0.805216282546772	1643710.4723425754
0.8054175866174087	1667773.8009212434
0.8056189410140631	1692280.7116954327
0.8058203457493168	1716917.6088580722
0.8060218008357541	1741560.6652449712
0.8062233062859632	1766209.882395979
0.8064248621125346	1790865.2618512576
0.806626468328063	1816378.9661426183
0.8068281249451449	1842630.9520619526
0.8070298319763813	1868889.500977799
0.8072315894343755	1895154.6145308549
0.8074333973317341	1921426.2943623087
0.8076352556810671	1947421.6367246637
0.8078371644949874	1972742.4774112063
0.8080391237861113	1998069.6483079265
0.8082411335670578	2023403.1509973553
0.8084431938504498	2048742.987062483
0.8086453046489125	2074069.9088923703
0.8088474659750746	2099044.776942606
0.8090496778415686	2124025.8887098874
0.809251940261029	2149013.2457550927
0.8094542532460944	2174006.8496395806
0.8096566168094059	2199006.701925011
0.8098590309636085	2225747.219115508
0.8100614957213493	2252900.3754144334
0.8102640110952797	2280060.320002437
0.8104665770980536	2307227.0545765986
0.8106691937423283	2334400.5808344143
0.8108718610407639	2362329.823398879
0.8110745790060241	2390838.710326567
0.8112773476507757	2419354.724476012
0.8114801669876885	2447877.8676289865
0.8116830370294355	2476408.1415677327
0.8118859577886929	2504631.2454580283
0.8120889292781401	2532208.584845121
0.8122919515104597	2559792.8185670585
0.8124950244983374	2587383.948347428
0.8126981482544621	2614981.975910238
0.8129013227915257	2642894.176346097
0.8131045481222237	2674331.681852
0.8133078242592543	2705777.0467342823
0.8135111512153191	2737230.2729577767
0.813714529003123	2768691.362487831
0.8139179576353739	2800160.317290273
0.8141214371247829	2837837.3468265836
0.8143249674840641	2876726.120139937
0.814528548725935	2915624.615646595
0.8147321808631167	2954532.8357771826
0.8149358639083326	2993450.7829627907
0.8151395978743097	3030390.9498986253
0.8153433827737784	3065997.5069094966
0.8155472186194719	3101612.9655596083
0.8157511054241268	3137237.328074375
0.815955043200483	3172870.5966797955
0.8161590319612831	3209718.1095421812
0.8163630717192736	3248783.4654681305
0.8165671624872033	3287858.5877330177
0.8167713042778252	3326943.47877851
0.8169754971038948	3366038.1410467825
0.8171797409781707	3402451.6742517506
0.8173840359134155	3417392.0009582858
0.8175883819223938	3432336.0627464806
0.8177927790178745	3447283.8605501307
0.8179972272126291	3462235.395303236
0.8182017265194322	3477190.6679400145
0.8184062769510622	3506420.443035656
0.8186108785203001	3537853.584881491
0.8188155312399301	3569294.5850127446
0.8190202351227402	3600743.445394066
0.819224990181521	3632200.1679904633
0.8194297964290664	3683823.0161758754
0.8196346538781738	3747609.1263803556
0.8198395625416434	3811411.183112362
0.8200445224322789	3875229.190358578
0.820249533562887	3939063.152106587
0.8204545959462778	3998079.7976077734
0.8206597095952644	4049332.172061959
0.8208648745226633	4100597.3596097976
0.8210700907412941	4151875.363454515
0.8212753582639793	4203166.186800142
0.8214806771035456	4252332.0554588605
0.8216860472728215	4288338.902293961
0.8218914687846397	4324354.750840771
0.822096941651836	4360379.603349737
0.822302465887249	4396413.462071809
0.8225080415037209	4432456.329258581
0.8227136685140968	4469435.924230336
0.8229193469312254	4506530.079377297
0.8231250767679583	4543633.508063057
0.8233308580371503	4580746.212605969
0.8235366907516598	4617868.195325044
0.8237425749243477	4670032.021870914
0.8239485105680789	4730176.412202632
0.824154497695721	4790335.838631895
0.824360536320145	4850510.304917777
0.8245666264542252	4910699.814820228
0.8247727681108388	4966483.435678142
0.8249789613028664	5015949.389408303
0.8251852060431922	5065427.70962694
0.825391502344703	5114918.399425609
0.8255978502202894	5164421.461896773
0.8258042496828445	5214041.6358861765
0.8260107007452654	5264182.871477866
0.8262172034204517	5314336.642378402
0.8264237577213068	5364502.951721676
0.8266303636607373	5414681.802642308
0.8268370212516525	5464873.198275645
0.8270437305069654	5509266.091820802
0.8272504914395923	5553215.987803635
0.8274573040624523	5597176.871260474
0.8276641683884679	5641148.744938141
0.8278710844305652	5685131.611584278
0.8280780522016729	5734210.999324263
0.8282850717147234	5785627.241143597
0.8284921429826521	5837056.337023333
0.8286992660183978	5888498.290177078
0.8289064408349024	5939953.103819077
0.8291136674451112	5991220.918317222
0.8293209458619727	6042249.532733611
0.8295282760984382	6093290.904303536
0.829735658167463	6144345.036216413
0.8299430920820048	6195411.931662202
0.8301505778550254	6247093.172882587
0.8303581154994891	6301188.412569583
0.8305657050283641	6355297.176066556
0.8307733464546212	6409419.466754361
0.8309810397912352	6463555.288014926
0.8311887850511829	6517704.643230699
0.8313965822474458	6582263.350840246
0.8316044313930077	6647320.7228945885
0.8318123325008561	6712394.359292006
0.8320202855839813	6777484.264098491
0.8322282906553774	6842590.441381182
0.8324363477280413	6900463.546408146
0.8326444568149735	6955432.5574592
0.8328526179291771	7010415.310762954
0.8330608310836596	7065411.809755116
0.8332690962914304	7120422.057871954
0.8334774135655034	7171813.078193768
0.833685782918895	7219158.78790736
0.8338942043646247	7266516.334048352
0.834102677915716	7313885.719575914
0.834311203585195	7361266.947449818
0.8345197813860912	7411959.811742382
0.8347284113314379	7473772.754716502
0.8349370934342709	7535601.15092633
0.8351458277076294	7597445.004235136
0.8353546141645565	7659304.318507373
0.8355634528180977	7721179.097608151
0.8357723436813022	7775209.42669171
0.8359812867672226	7829156.213388682
0.8361902820889144	7883116.486782301
0.8363993296594368	7937090.250244285
0.8366084294918518	7991077.507147152
0.8368175815992247	8059651.293600375
0.8370267859946247	8133261.325656451
0.8372360426911234	8206889.760220519
0.8374453517017962	8280536.601893221
0.8376547130397217	8354201.855276331
0.8378641267179816	8422612.065892335
0.8380735927496613	8485806.73681307
0.8382831111478488	8549017.206401499
0.8384926819256358	8612243.478607291
0.8387023050961173	8675485.55738119
0.8389119806723914	8739021.790588975
0.8391217086675596	8803357.258581497
0.8393314890947265	8867708.810440969
0.8395413219670003	8932076.450188413
0.8397512072974922	8996460.181845836
0.8399611450993165	9060821.651008047
0.8401711353855914	9123294.344708841
0.8403811781694378	9185782.656583045
0.8405912734639802	9248286.590535231
0.8408014212823464	9310806.150470935
0.8410116216376671	9373341.340296613
0.8412218745430766	9436181.960974481
0.8414321800117124	9499122.61156752
0.8416425380567154	9562078.997323235
0.8418529486912297	9625051.122175409
0.8420634119284025	9688038.990058739
0.8422739277813847	9771106.163573325
0.8424844962633302	9871870.8776055
0.842695117387396	9972660.782816054
0.8429057911667428	10073475.885502916
0.8431165176145345	10174316.191965498
0.8433272967439382	10260226.390907375
0.8435381285681244	10309677.90066731
0.8437490131002665	10359141.773304675
0.8439599503535415	10408618.011910168
0.84417094034113	10458106.619575348
0.8443819830762154	10508753.02331787
0.8445930785719846	10582486.751558688
0.8448042268416277	10656238.913231526
0.8450154278983382	10730009.512944773
0.8452266817553128	10803798.555307942
0.8454379884257517	10877606.04493171
0.8456493479228583	10962370.429134648
0.845860760259839	11049790.11290046
0.846072225449904	11137231.651587214
0.8462837435062666	11224695.050658658
0.8464953144421433	11312180.31557992
0.8467069382707537	11388595.93354637
0.8469186150053215	11456385.157565521
0.847130344659073	11524191.328890694
0.8473421272452377	11592014.451758634
0.8475539627770492	11659854.53040736
0.8477658512677435	11718871.120290745
0.8479777927305605	11759130.93545553
0.8481897871787432	11799400.815574098
0.848401834625538	11839680.76316272
0.8486139350841944	11879970.780738212
0.8488260885679657	11911683.881926047
0.8490382950901076	11838732.56518964
0.8492505546638802	11765763.010624012
0.8494628673025462	11692775.213669768
0.8496752330193721	11619769.169766176
0.8498876518276269	11546744.87435171
0.8501001237405839	11010736.900687061
0.8503126487715191	10382178.895775462
0.850525226933712	9753463.751362983
0.8507378582404455	9124591.428164408
0.8509505427050057	8495561.886884667
0.8511632803406821	8007125.120685115
0.8513760711607672	7614954.243840983
0.8515889151785576	7222685.324277029
0.8518018124073523	6830318.337483514
0.8520147628604541	6437853.258943532
0.8522277665511693	6326897.700474041
0.8524408234928071	6736713.6866394235
0.8526539336986805	7146632.126801458
0.8528670971821053	7556653.046573559
0.8530803139564007	7966776.4715751195
0.8532935840348901	8430819.469655147
0.8535069074308987	9349490.900603862
0.8537202841577566	10268391.999411087
0.8539337142287962	11187522.823493117
0.8541471976573534	12106883.430280592
0.8543607344567677	13026473.877219934
0.8545743246403821	13382407.325752715
0.8547879682215422	13648878.073654588
0.8550016652135977	13915415.439243402
0.8552154156299011	14182019.439173628
0.8554292194838088	14448690.09010403
0.8556430767886797	14640360.877002297
0.855856987557877	14786501.166176965
0.8560709518047664	14932677.990423836
0.8562849695427177	15078891.35887682
0.8564990407851035	15225141.280671962
0.8567131655452999	15356855.609848354
0.8569273438366862	15464725.90516262
0.8571415756726455	15572623.168050734
0.8573558610665638	15680547.40525461
0.8575702000318304	15788498.623517668
0.8577845925818384	15894961.2993499
0.857999038729984	15991984.03067447
0.8582135384896665	16089031.017681848
0.858428091874289	16186102.266435985
0.8586426988972576	16283197.783002282
0.8588573595719821	16380317.573447755
0.8590720739118751	16417204.16776549
0.8592868419303532	16446995.44725382
0.8595016636408359	16476794.174562022
0.8597165390567462	16506600.351552041
0.8599314681915105	16536413.980086317
0.8601464510585584	16443443.022359207
0.860361487671323	16285271.66440605
0.8605765780432408	16127060.763613451
0.8607917221877518	15968810.310095524
0.8610069201182988	15810520.293964261
0.8612221718483286	15568487.87198413
0.8614374773912907	15205725.980118833
0.8616528367606385	14842873.397780668
0.8618682499698288	14479930.102296688
0.8620837170323213	14116896.070988897
0.8622992379615795	13821800.124639906
0.8625148127710699	13863279.087506833
0.8627304414742627	13904768.42011448
0.8629461240846313	13946268.125055285
0.8631618606156526	13987778.20492233
0.8633776510808066	14029298.662309332
0.8635934954935769	14199211.21846904
0.8638093938674504	14379689.934441974
0.8640253462159173	14560213.770093895
0.8642413525524714	14740782.736704726
0.8644574128906095	14921396.845557172
0.8646735272438323	15134674.831397884
0.8648896956256433	15363174.74696629
0.8651059180495498	15591731.787513599
0.8653221945290621	15820345.967320828
0.8655385250776946	16049017.300673328
0.8657549097089641	16249332.710517265
0.8659713484363913	16413323.196377827
0.8661878412735006	16577354.67985993
0.866404388233819	16741427.171212882
0.8666209893308775	16905540.680688597
0.8668376445782103	17058169.953227535
0.8670543539893549	17163796.924646217
0.8672711175778525	17269450.302807827
0.8674879353572469	17375130.09431386
0.8677048073410862	17480836.305767808
0.8679217335429217	17586568.943774685
0.8681387139763074	17703036.956420224
0.8683557486548015	17820066.07899821
0.8685728375919655	17937124.45885699
0.8687899808013633	18054212.103310473
0.8690071782965637	18171329.019675225
0.869224430091138	18233685.451510515
0.8694417361986609	18273763.58684254
0.8696590966327107	18313851.74170839
0.869876511406869	18353949.91861296
0.8700939805347206	18394058.120061737
0.8703115040298544	18449007.15390383
0.870529081905862	18520925.82590361
0.8707467141763385	18592862.47757137
0.8709644008548827	18664817.11340204
0.8711821419550964	18736789.737891622
0.8713999374905854	18813994.87622433
0.871617787474958	18909216.43596764
0.8718356919218269	19004461.80110097
0.8720536508448075	19099730.977575593
0.8722716642575187	19195023.971344274
0.8724897321735832	19290340.78836144
0.8727078546066265	19426152.123694282
0.8729260315702784	19562613.103802133
0.873144263078171	19699108.199154865
0.8733625491439405	19835637.418281447
0.8735808897812266	19972200.76971286
0.8737992850036719	20074812.865920138
0.874017734824923	20165413.546680525
0.8742362392586293	20256036.877611063
0.874454798318444	20346682.864374332
0.8746734120180236	20437351.51263428
0.8748920803710283	20533315.152612757
0.875110803391121	20634600.967297792
0.8753295810919689	20735912.103436556
0.875548413487242	20837248.567359354
0.8757673005906139	20938610.36539814
0.8759862424157616	21070435.126164608
0.8762052389763657	21290365.53961731
0.8764242902861098	21510350.935673226
0.8766433963586814	21730391.328078214
0.8768625572077712	21950486.73058137
0.8770817728470732	22169375.546194244
0.8773010432902849	22289815.70070304
0.8775203685511077	22410285.965250634
0.8777397486432454	22530786.347364217
0.8779591835804065	22651316.854573477
0.8781786733763015	22771877.49440938
0.8783982180446457	22810823.51453523
0.878617817599157	22825491.48116227
0.8788374720535569	22840163.114780955
0.8790571814215703	22854838.416308045
0.8792769457169257	22869517.386660516
0.879496764953355	22965253.59065856
0.8797166391445934	23133886.2063501
0.8799365683043796	23302560.980195574
0.8801565524464557	23471277.922734506
0.8803765915845676	23640037.044509232
0.8805966857324639	23792415.04771199
0.880816834903897	23903580.718340646
0.881037039112623	24014774.18038701
0.8812572983724012	24125995.440798867
0.8814776126969944	24237244.50652588
0.8816979821001687	24345841.2568874
0.8819184065956938	24391374.50086581
0.8821388861973429	24436919.128155258
0.8823594209188923	24482475.141601484
0.882580010774122	24528042.544051055
0.8828006557768155	24573621.33835126
0.8830213559407598	24785854.61647188
0.8832421112797452	25040053.381373033
0.8834629218075651	25294315.69596526
0.8836837875380171	25548641.576136213
0.8839047084849018	25803031.037777245
0.884125684662023	25914834.185147
0.8843467160831886	25912349.597617168
0.8845678027622095	25909864.388940457
0.8847889447129001	25907378.558961574
0.8850101419490785	25904892.1075252
0.8852313944845657	26032171.229579877
0.885452702333187	26443524.456587255
0.8856740655087704	26854980.521901324
0.8858954840251476	27266539.45123161
0.8861169578961539	27678201.270294037
0.886338487135628	28050053.22050852
0.886560071757412	27890862.475431148
0.8867817117753515	27731631.932667516
0.8870034072032955	27572361.58226812
0.8872251580550963	27413051.41428131
0.8874469643446101	27253701.418752406
0.8876688260856963	27376344.796251755
0.8878907432922178	27557389.221980758
0.8881127159780409	27738478.908816073
0.8883347441570356	27919613.86807332
0.8885568278430749	28100794.11107019
0.8887789670500358	28166462.533091493
0.8890011617917983	28150174.19965378
0.8892234120822464	28133881.7941327
0.8894457179352669	28117585.31551025
0.8896680793647509	28101284.762768134
0.8898904963845921	28081491.836145077
0.8901129690086883	28055038.195467018
0.8903354972509405	28028577.941378795
0.8905580811252535	28002111.07222703
0.8907807206455347	27975637.586358014
0.8910034158256963	27926266.585481822
0.8912261666796527	27672308.125732057
0.8914489732213227	27418286.176367287
0.8916718354646282	27164200.72151492
0.8918947534234944	26910051.745299093
0.8921177271118502	26655839.231839366
0.8923407565436284	25401879.98502666
0.8925638417327644	23984531.73904319
0.8927869826931977	22566829.155997753
0.8930101794388711	21148772.147306643
0.8932334319837308	19730360.62436359
0.8934567403417267	18805850.185325287
0.8936801045268123	18188230.346684914
0.8939035245529441	17570456.103085298
0.8941270004340824	16952527.41592454
0.894350532184191	16334444.246592155
0.8945741198172371	16470052.016604839
0.8947977633471915	17855856.462706666
0.8950214627880284	19242007.35991996
0.8952452181537254	20628504.794856735
0.8954690294582639	22015348.854153078
0.8956928967156286	23426622.360740278
0.8959168199398075	24994537.065180957
0.8961407991447926	26562843.74829815
0.8963648343445789	28131542.508086078
0.896588925553165	29700633.442563064
0.8968130727845534	31270116.649773873
0.8970372760527496	31745043.641744662
0.8972615353717629	32083089.247107726
0.8974858507556059	32421219.363872167
0.8977102222182949	32759434.013165712
0.8979346497738496	33097733.216121763
0.8981591334362931	33486742.03620974
0.8983836732196523	33903533.7537799
0.8986082691379572	34320429.66927918
0.8988329212052417	34737429.80875734
0.8990576294355432	35154534.19827072
0.8992823938429022	35478380.210195646
0.8995072144413631	35663488.782168865
0.8997320912449734	35848643.631285004
0.8999570242677847	36033844.769113384
0.9001820135238516	36219092.20722624
0.9004070590272328	36436392.47417068
0.9006321607919896	36821536.1475936
0.9008573188321878	37206776.10693527
0.9010825331618959	37592112.37626659
0.9013078037951865	37977544.97966531
0.9015331307461353	38363073.94121467
0.9017585140288219	38879253.296095885
0.9019839536573292	39406806.65118673
0.9022094496457435	39934491.89461596
0.9024350020081551	40462309.05935665
0.9026606107586572	40990258.17838836
0.902886275911347	41264683.05626654
0.9031119974803249	41416896.58215263
0.9033377754796951	41569148.1614202
0.903563609923565	41721437.803582504
0.903789500826046	41873765.51815546
0.9040154482012526	41963776.67771617
0.904241452063303	41973035.3523865
0.9044675124263188	41982296.34172548
0.9046936293044254	41991559.646311805
0.9049198027117517	42000825.26672427
0.9051460326624297	42041115.18263107
0.9053723191705955	42213513.97480687
0.9055986622503881	42385955.86668055
0.9058250619159507	42558440.869027205
0.9060515181814298	42730968.99262456
0.9062780310609752	42903540.24825268
0.9065046005687405	43129160.76315835
0.906731226718883	43357794.7377169
0.9069579095255627	43586485.87076879
0.907184649002944	43815234.176603965
0.907411445165195	44044039.669515826
0.9076382980264862	44433107.81244209
0.907865207600993	44888806.248510815
0.9080921739028933	45344618.60918843
0.9083191969463691	45800544.92295614
0.9085462767456058	46256585.21830252
0.9087734133147922	46507095.45179348
0.9090006066681211	46520146.86075835
0.909227856819788	46533201.53257544
0.9094551637839932	46546259.46806051
0.9096825275749393	46559320.66802944
0.9099099482068329	46584521.245308876
0.9101374256938848	46652860.07525365
0.9103649600503083	46721215.98990588
0.9105925512903209	46789588.993536755
0.9108201994281437	46857979.090418614
0.9110479044780008	46926386.28482462
0.9112756664541204	47481965.34983374
0.911503485370734	48048834.19638378
0.9117313612420768	48615844.760145456
0.9119592940823873	49182997.0765479
0.912187283905908	49750291.181029625
0.9124153307268845	49852472.15280016
0.9126434345595664	49785818.31558186
0.9128715954182063	49719147.814904325
0.9130998133170609	49652460.64660158
0.9133280882703902	49585756.80650677
0.913556420292458	49661905.70514991
0.9137848093975312	49885416.97791939
0.9140132555998806	50108984.12850703
0.9142417589137806	50332607.17088234
