#wavelength	surface flux
0.7	19896.589484154716
0.7001166666666666	19932.862455322174
0.7002333527777778	19957.617027229106
0.700350058336574	19982.37572489801
0.7004667833462966	20007.138549016494
0.7005835278101878	20031.9055002724
0.7007002917314895	20056.676579353476
0.7008170751134447	20081.451786947728
0.7009338779592968	20106.231123743233
0.7010507002722901	20131.07832488805
0.7011675420556689	20156.007227833405
0.701284403312678	20180.94028559588
0.7014012840465635	20205.877498868016
0.7015181842605713	20230.818868342358
0.701635103957948	20255.764394711598
0.701752043141941	20280.71407866856
0.701869001815798	20305.667920906217
0.7019859799827672	20339.750450703494
0.7021029776460976	20380.188819036695
0.7022199948090387	20420.633927098006
0.7023370314748403	20461.085776010637
0.7024540876467528	20501.544366898084
0.702571163328027	20542.009700883944
0.7026882585219152	20582.481779092246
0.7028053732316688	20622.960602646854
0.7029225074605406	20668.44736302861
0.7030396612117841	20715.87289349427
0.7031568344886527	20763.306328215014
0.7032740272944008	20810.747668508186
0.7033912396322832	20858.196915691427
0.7035084715055552	20905.65407108249
0.7036257229174727	20953.119135999463
0.7037429938712924	21000.592111760638
0.7038602843702709	21024.672260524017
0.7039775944176659	21044.787486041147
0.7040949240167356	21064.906064095867
0.7042122731707383	21085.027995246925
0.7043296418829335	21105.153280053182
0.7044470301565806	21125.281919073568
0.70456443799494	21145.413912867112
0.7046818654012724	21165.54926199297
0.7047993123788394	21200.312972504238
0.7049167789309024	21235.099259810017
0.7050342650607243	21269.891344830397
0.7051517707715678	21304.6892285316
0.7052692960666963	21339.49291188007
0.705386840949374	21374.302395842413
0.7055044054228656	21409.117681385476
0.7056219894904361	21441.30426924498
0.7057395931553511	21456.7542530222
0.705857216420877	21472.206811796732
0.7059748592902804	21487.661945997716
0.7060925217668288	21503.119656054412
0.70621020385379	21518.579942396118
0.7063279055544321	21534.042805452198
0.7064456268720246	21549.50824565214
0.7065633678098366	21567.856178594353
0.7066811283711383	21594.138508710967
0.7067989085592001	21620.425219215937
0.7069167083772933	21646.716310839303
0.7070345278286895	21673.011784311293
0.707152366916661	21699.311640362197
0.7072702256444803	21725.615879722416
0.7073881040154211	21751.924503122562
0.7075060020327569	21779.324162191922
0.7076239196997625	21808.31092904387
0.7077418570197124	21837.302527023596
0.7078598139958823	21866.298956936316
0.7079777906315483	21895.300219587385
0.7080957869299869	21924.306315782203
0.7082138028944751	21953.317246326376
0.7083318385282908	21982.33301202566
0.7084498938347124	21997.454132009156
0.708567968817018	22000.793507603645
0.7086860634784875	22004.13343976073
0.7088041778224007	22007.473928573185
0.7089223118520377	22010.814974133766
0.7090404655706796	22014.15657653527
0.709158638981608	22017.49873587052
0.709276832088105	22020.84145223232
0.7093950448934531	22034.67157165267
0.7095132774009353	22053.5052860536
0.7096315296138355	22072.342139406937
0.7097498015354378	22091.18213223583
0.7098680931690269	22110.025265063512
0.7099864045178884	22128.87153841335
0.7101047355853081	22147.720952808748
0.7102230863745722	22166.573508773195
0.7103414568889679	22184.512887019475
0.7104598471317828	22202.247045712633
0.7105782571063047	22219.98416009889
0.7106966868158224	22237.724230670883
0.710815136263625	22255.467257921297
0.7109336054530023	22273.21324234293
0.7110520943872445	22290.962184428627
0.7111706030696424	22308.71408467135
0.7112891315034873	22310.66735353852
0.7114076796920712	22311.867008582372
0.7115262476386865	22313.066863568736
0.7116448353466263	22314.266918530928
0.711763442819184	22315.467173502282
0.711882070059654	22316.66762851613
0.7120007170713306	22317.868283605814
0.7121193838575091	22319.069064455893
0.7122380704214853	22320.26926999729
0.7123567767665555	22321.469675572946
0.7124755028960166	22322.670281216197
0.7125942488131658	22323.87108696039
0.7127130145213015	22325.072092838873
0.7128318000237216	22326.273298885004
0.7129506053237256	22327.47470513214
0.7130694304246129	22328.03030189384
0.7131882753296837	22326.327313697497
0.7133071400422386	22324.624041669787
0.7134260245655789	22322.920485763407
0.7135449289030065	22321.21664593104
0.7136638530578235	22319.51252212537
0.7137827970333332	22317.808114299063
0.7139017608328388	22316.103422404787
0.7140207444596443	22311.974339151227
0.7141397479170543	22303.520200982482
0.7142587712083737	22295.06465379072
0.7143778143369084	22286.60769734108
0.7144968773059646	22278.149331398705
0.7146159601188489	22269.689555728673
0.7147350627788687	22261.22837009603
0.7148541852893318	22252.76577426578
0.7149733276535467	22236.17848685841
0.7150924898748222	22211.397099762908
0.715211671956468	22186.61158243622
0.7153308739017941	22161.82193418996
0.715450095714111	22137.02815433567
0.71556933739673	22112.23024218473
0.7156885989529628	22087.42819704844
0.7158078803861218	22062.622018237922
0.7159271816995193	22014.24025216707
0.7160465028964692	21952.015450204453
0.7161658439802853	21889.780277441514
0.7162852049542819	21827.53473214979
0.7164045858217744	21765.278812600478
0.716523986586078	21703.012517064606
0.7166434072505089	21640.73584381284
0.716762847818384	21578.44879111551
0.7168823082930204	21528.900334600694
0.7170017886777359	21483.094314893995
0.7171212889758488	21437.280660850705
0.7172408091906781	21391.459371198398
0.7173603493255433	21345.630444664464
0.7174799093837642	21299.793879976136
0.7175994893686615	21253.94967586034
0.7177190892835562	21208.09783104388
0.7178387091317702	21210.48487265637
0.7179583489166254	21217.715437210583
0.7180780086414448	21224.947206858895
0.7181976883095517	21232.180181802145
0.7183173879242699	21239.414362241223
0.718437107488924	21246.64974837704
0.7185568470068389	21253.88634041055
0.7186766064813399	21259.944204079784
0.7187963859157535	21236.502115463332
0.7189161853134061	21213.056119832116
0.719036004677625	21189.606216534954
0.7191558440117378	21166.15240492059
0.7192757033190732	21142.694684337595
0.7193955826029597	21119.23305413453
0.7195154818667269	21095.76751365974
0.7196354011137046	21073.98622921086
0.7197553403472235	21059.97393694365
0.7198752995706147	21045.9593092944
0.7199952787872098	21031.942345873867
0.720115278000341	21017.923046292763
0.7202352972133411	21003.90141016173
0.7203553364295432	20989.87743709136
0.7204753956522815	20975.851126692123
0.7205954748848902	20969.083236208375
0.7207155741307044	20978.321474649456
0.7208356933930594	20987.56125279693
0.7209558326752915	20996.80257090743
0.7210759919807375	21006.045429237627
0.7211961713127342	21015.289828044202
0.7213163706746197	21024.535767583926
0.7214365900697322	21033.783248113563
0.7215568295014103	21023.428189061968
0.721677088972994	20989.680433177793
0.7217973684878227	20955.927052667692
0.7219176680492374	20922.168046594135
0.7220379876605789	20888.403414019584
0.722158327325189	20854.63315400626
0.7222786870464099	20820.857265616283
0.7223990668275843	20787.07574791156
0.7225194666720555	20733.099570307288
0.7226398865831676	20664.805925932607
0.7227603265642646	20596.50089928403
0.722880786618692	20528.184488464198
0.7230012667497951	20459.85669157594
0.7231217669609201	20391.517506721528
0.7232422872554135	20323.166932003034
0.7233628276366229	20254.804965521966
0.7234833881078956	20215.42099767154
0.7236039686725803	20187.03661932705
0.7237245693340255	20158.64751025288
0.7238451900955812	20130.253669660477
0.7239658309605971	20101.855096761345
0.7240864919324239	20073.45179076669
0.7242071730144127	20045.0437508877
0.724327874209915	20016.63097633546
0.7244485955222832	19938.903997363846
0.7245693369548704	19853.01115979439
0.7246900985110294	19767.10400675213
0.7248108801941148	19681.182535850803
0.7249316820074803	19595.24674470461
0.7250525039544815	19509.296630926423
0.7251733460384739	19423.33219212926
0.7252942082628137	19337.449294020345
0.7254150906308574	19307.101092573437
0.7255359931459625	19276.747833092948
0.7256569158114868	19246.38951473587
0.7257778586307888	19216.026136659053
0.7258988216072273	19185.65769801923
0.7260198047441617	19155.284197973004
0.7261408080449525	19124.905635676714
0.72626183151296	19093.813096771686
0.7263828751515454	19058.004238726156
0.7265039389640706	19022.189412537628
0.726625022953898	18986.368617211378
0.7267461271243904	18950.541851752554
0.7268672514789111	18914.70911516618
0.7269883960208241	18878.87040645707
0.7271095607534942	18843.02572462982
0.7272307456802866	18805.480101539433
0.7273519508045666	18763.349705455093
0.7274731761297006	18721.21228763809
0.7275944216590555	18679.06784691812
0.7277156873959987	18636.916382124677
0.7278369733438982	18594.757892087036
0.727958279506122	18552.592375634504
0.7280796058860397	18510.419831595842
0.7282009524870207	18451.83572373081
0.7283223193124353	18368.977717673686
0.7284437063656539	18286.10590194906
0.7285651136500483	18203.220274255014
0.7286865411689898	18120.320832289854
0.7288079889258514	18037.407573750832
0.7289294569240056	17954.48049633558
0.7290509451668262	17871.53959774066
0.7291724536576875	17794.159520343397
0.7292939823999636	17721.38573948263
0.7294155313970303	17648.59982965824
0.7295371006522632	17575.801788848898
0.7296586901690385	17502.991615032814
0.7297802999507332	17430.16930618779
0.7299019300007252	17357.334860291106
0.7300235803223919	17284.4882753203
0.7301452509191123	17232.80679280901
0.7302669417942654	17190.89146536349
0.7303886529512311	17148.969152030048
0.7305103843933897	17107.03985164437
0.7306321361241218	17065.103563041997
0.7307539081468093	17023.16028505812
0.7308757004648336	16981.210016527995
0.7309975130815778	16939.2527562864
0.7311193460004248	16903.93202788162
0.7312411992247582	16870.109421872523
0.7313630727579622	16836.28117876243
0.7314849666034219	16802.447297611783
0.7316068807645224	16768.607777480967
0.7317288152446498	16734.762617430115
0.7318507700471907	16700.911816519238
0.7319727451755319	16667.05537380822
0.732094740633061	16603.209204047358
0.7322167564231665	16538.00250028655
0.7323387925492371	16472.78492874178
0.7324608490146619	16407.55648760177
0.732582925822831	16342.31717505489
0.7327050229771347	16277.066989289324
0.7328271404809642	16211.805928492731
0.7329492783377112	16146.227072374022
0.7330714365507675	16077.61995298838
0.7331936151235259	16009.001399082856
0.7333158140593796	15940.37140875176
0.7334380333617229	15871.729980088836
0.7335602730339499	15803.077111187773
0.7336825330794556	15734.412800141876
0.7338048135016354	15665.737045044272
0.7339271143038857	15601.366506178842
0.734049435489603	15551.449017185147
0.7341717770621846	15501.523208609944
0.7342941390250283	15451.58907906667
0.7344165213815324	15401.646627168493
0.734538924135096	15351.695851528259
0.7346613472891185	15301.736750758815
0.734783790847	15251.769323472561
0.7349062548121412	15191.662117526495
0.7350287391879431	15113.637140727142
0.7351512439778078	15035.599159764828
0.7352737691851374	14957.548172472447
0.735396314813335	14879.484176682116
0.7355188808658037	14801.407170225948
0.7356414673459482	14723.317150935212
0.7357640742571725	14645.214116641315
0.7358867016028818	14569.889604231641
0.7360093493864824	14497.309434296607
0.7361320176113801	14424.717167666682
0.736254706280982	14352.112802325652
0.7363774153986956	14279.49633625697
0.7365001449679286	14206.867767444093
0.7366228949920899	14134.227093869687
0.7367456654745885	14061.574313516354
0.7368684564188344	13991.804035204364
0.7369912678282374	13923.6581015561
0.7371140997062088	13855.5008102522
0.7372369520561599	13787.332159399686
0.7373598248815024	13719.152147105517
0.7374827181856494	13650.96077147585
0.7376056319720137	13582.758030616906
0.7377285662440091	13514.543922634475
0.7378515210050496	13432.17208721052
0.7379744962585505	13345.5303142507
0.738097492007927	13258.87410099541
0.7382205082565949	13172.203445037965
0.738343545007971	13085.51834397121
0.7384666022654723	12998.818795387522
0.7385896800325165	12912.104796879205
0.7387127783125219	12825.37634603769
0.7388358971089073	12773.303902571894
0.7389590364250921	12724.700313770261
0.7390821962644963	12676.088624370459
0.7392053766305403	12627.468833022494
0.7393285775266454	12578.840938375937
0.7394517989562333	12530.204939080226
0.7395750409227259	12481.56083378471
0.7396983034295463	12432.072719355307
0.739821586480118	12363.981099658982
0.7399448900778645	12295.87813135951
0.7400682142262109	12227.763812565114
0.740191558928582	12159.638141384325
0.7403149241884034	12091.501115925059
0.7404383100091014	12023.352734294867
0.7405617163941028	11955.192994601113
0.7406851433468352	11885.152852099616
0.7408085908707264	11806.550614685251
0.7409320589692048	11727.93527689802
0.7410555476456997	11649.30683655443
0.7411790569036406	11570.665291470837
0.7413025867464579	11492.010639463042
0.7414261371775823	11413.342878346559
0.7415497082004452	11334.662005936616
0.7416732998184786	11255.86670544602
0.741796912035115	11176.84093263706
0.7419205448537874	11097.801988865984
0.7420441982779297	11018.749871937614
0.742167872310976	10939.68457965635
0.7422915669563612	10860.606109826376
0.7424152822175206	10781.514460251452
0.7425390180978901	10702.409628734978
0.7426627746009065	10631.226276341084
0.7427865517300065	10569.703982758001
0.7429103494886282	10508.171435459257
0.7430341678802096	10446.62863273601
0.7431580069081896	10385.07557287898
0.7432818665760077	10323.512254178555
0.7434057468871037	10261.938674925064
0.7435296478449182	10200.354833408399
0.7436535694528923	10133.40435627858
0.7437775117144678	10062.776120052102
0.7439014746330868	9992.136112453025
0.7440254582121922	9921.484331519288
0.7441494624552276	9850.820775288701
0.7442734873656368	9780.145441798757
0.7443975329468645	9709.458329086508
0.7445215992023557	9638.759435188816
0.7446456861355559	9568.428980202883
0.7447697937499119	9498.226867185791
0.7448939220488703	9428.013053816545
0.7450180710358784	9357.78753814513
0.7451422407143843	9287.550318221098
0.7452664310878367	9217.30139209368
0.7453906421596846	9147.040757811981
0.7455148739333779	9076.768413424545
0.7456391264123667	9008.730727520955
0.7457633996001021	8941.04088423096
0.7458876935000356	8873.339759300297
0.7460120081156189	8805.627350848941
0.7461363434503048	8737.903656996144
0.7462606995075466	8670.168675860978
0.7463850762907978	8602.42240556239
0.7465094738035127	8534.67204310744
0.7466338920491467	8468.793578148792
0.746758331031155	8402.904133445918
0.7468827907529935	8337.003707169008
0.7470072712181189	8271.092297487714
0.7471317724299886	8205.169902571462
0.7472562943920602	8139.236520589437
0.7473808371077922	8073.292149710355
0.7475054005806435	8007.221203269862
0.7476299848140736	7940.42728776345
0.7477545898115426	7873.622239937773
0.7478792155765113	7806.806057937442
0.7480038621124406	7739.97873990683
0.7481285294227926	7673.140283989896
0.7482532175110298	7606.290688330237
0.7483779263806148	7539.429951071395
0.7485026560350116	7473.228947700936
0.7486274064776842	7408.832615238543
0.748752177712097	7344.42555005419
0.7488769697417158	7280.007750358836
0.749001782570006	7215.579214363611
0.7491266162004343	7151.139940279072
0.7492514706364677	7086.689926315489
0.7493763458815739	7022.229170682848
0.7495012419392209	6957.94330416294
0.7496261588128773	6893.913592276
0.7497510965060128	6829.873208770367
0.7498760550220971	6765.822151867506
0.7500010343646007	6701.760419788485
0.7501260345369949	6637.6880107540865
0.750251055542751	6573.60492298492
0.7503760973853414	6509.511154701087
0.7505011600682389	6446.5162792477495
0.750626243594917	6384.437374506315
0.7507513479688495	6322.34812328085
0.7508764731935109	6260.248523846827
0.7510016192723765	6198.138574479549
0.7511267862089218	6136.0182734541
0.7512519740066232	6073.887619045126
0.7513771826689577	6011.746609527048
0.7515024121994025	5952.098531419283
0.7516276626014359	5893.607685622104
0.751752933878536	5835.107091350729
0.7518782260341824	5776.596746980289
0.7520035390718548	5718.0766508857605
0.7521288729950334	5659.546801441913
0.7522542278071992	5601.007197023155
0.7523796035118337	5542.45783600363
0.7525050001124189	5483.780254908462
0.7526304176124378	5425.0671314135525
0.7527558560153731	5366.344222398135
0.752881315324709	5307.611526231159
0.7530067955439299	5248.869041281466
0.7531322966765205	5190.116765917694
0.7532578187259665	5131.35469850801
0.7533833616957542	5072.582837420427
0.75350892558937	5014.484248267531
0.7536345104103016	4956.408095790447
0.7537601161620366	4898.322263954646
0.7538857428480638	4840.226751146816
0.7540113904718717	4782.121555753593
0.7541370590369503	4724.0066761611515
0.7542627485467898	4665.882110755407
0.7543884590048808	4608.110403844991
0.7545141904147151	4553.944417340437
0.7546399427797842	4499.769403171553
0.7547657161035808	4445.585359833632
0.754891510389598	4391.392285821823
0.7550173256413296	4337.190179630992
0.7551431618622698	4282.979039755808
0.7552690190559135	4228.758864690657
0.7553948972257561	4174.64853405082
0.7555207963752938	4120.928224189751
0.755646716508023	4067.198960943736
0.755772657627441	4013.4607428204945
0.7558986197370455	3959.713568327558
0.756024602840335	3905.9574359722196
0.7561506069408084	3852.1923442614893
0.7562766320419653	3798.4182917020926
0.7564026781473054	3744.433196656366
0.75652874526033	3690.083496954058
0.7566548333845401	3635.724738968438
0.7567809425234375	3581.35692118984
0.7569070726805247	3526.9800421083096
0.7570332238593047	3472.594100213606
0.7571593960632813	3418.199093995202
0.7572855892959586	3363.795021942425
0.7574118035608413	3311.3676124657786
0.7575380388614347	3260.874169474835
0.7576642952012449	3210.3723109100406
0.7577905725837782	3159.8620353688916
0.7579168710125422	3109.3433414483957
0.7580431904910444	3058.816227745561
0.7581695310227928	3008.2806928571727
0.7582958926112967	2957.7367353795726
0.7584222752600652	2907.983241519802
0.7585486789726085	2858.6803858545386
0.7586751037524372	2809.3693130466454
0.7588015496030628	2760.050021726521
0.7589280165279966	2710.7225105246084
0.7590545045307512	2661.3867780708283
0.7591810136148396	2612.0428229949734
0.7593075437837755	2562.6906439265335
0.7594340950410726	2514.3567796078505
0.7595606673902461	2466.3126964742055
0.7596872608348112	2418.260605993323
0.7598138753782836	2370.200506830747
0.75994051102418	2322.1323976515987
0.7600671677760173	2274.0562771209584
0.7601938456373134	2225.9721439035256
0.7603205446115863	2177.8799966639176
0.7604472647023548	2130.28315846691
0.7605740059131385	2082.7284178487976
0.7607007682474575	2035.1657514405354
0.7608275517088319	1987.5951579213106
0.7609543563007835	1940.0166359697273
0.7610811820268336	1892.430184264514
0.7612080288905045	1844.8358014841078
0.7613348968953197	1797.1749657655296
0.7614617860448022	1748.3054742908346
0.7615886963424764	1699.4278379008272
0.7617156277918667	1650.5420552381354
0.7618425803964988	1601.6481249449594
0.7619695541598982	1552.7460456634144
0.7620965490855914	1503.8358160353584
0.7622235651771058	1454.917434702308
0.7623506024379685	1406.6249221981336
0.7624776608717082	1361.1033481051065
0.7626047404818536	1315.574187083062
0.7627318412719337	1270.037437867592
0.762858963245479	1224.4930991938907
0.7629861064060198	1178.941169797073
0.7631132707570876	1133.3816484119752
0.7632404563022137	1087.8145337733542
0.7633676630449308	1042.639234249248
0.7634948909887717	998.3066160067814
0.7636221401372697	953.9666089946655
0.7637494104939593	909.6192119813393
0.7638767020623748	865.2644237352413
0.7640040148460518	820.9022430243853
0.7641313488485262	776.5326686167457
0.7642587040733344	732.1556992799879
0.7643860805240132	687.8417256115739
0.7645134782041005	643.6043648352809
0.7646408971171346	599.3596311655068
0.764768337266654	555.1075233734706
0.7648957986561985	510.84804023012146
0.7650232812893079	466.5811805062542
0.7651507851695227	422.3069429724327
