#wavelength	surface flux
0.676892	4045675.0780138443
0.678297	4272114.941040204
0.679702	4478453.692258848
0.681109	4664597.718781163
0.682517	4839278.140726616
0.683926	5021318.946116642
0.685337	5171960.5903388215
0.686749	5292413.950662982
0.688164	5454531.592982881
0.689581	5541164.7456081975
0.691	5557228.842085464
0.692422	5664240.7871636
0.693847	5743185.977867493
0.695274	5949474.760052921
0.696705	6128814.069301319
0.698139	6221852.011039874
0.699576	6317094.781427187
0.701017	6400053.836926704
0.702461	6434833.178460689
0.70391	6489691.485332205
0.705362	6552234.501920064
0.706819	6599123.681393205
0.70828	6619411.73381975
0.709745	6616534.93067221
0.711216	6593254.198709869
0.71269	6566243.561272913
0.71417	6514417.679990334
0.715655	6424309.419388486
0.717145	6297357.9961373145
0.71864	6212949.584409072
0.72014	6101536.1574902
0.721647	5978300.077432934
0.723158	5832312.442300442
0.724676	5649843.420841857
0.726199	5455168.375870096
0.727728	5257095.868279294
0.729264	5022789.066235596
0.730805	4800499.003200926
0.732353	4579347.33497536
0.733907	4337661.442103252
0.735468	4080173.345399595
0.737035	3810758.801797303
0.738609	3543694.9483182826
0.74019	3288977.086214678
0.741777	3017080.3005570886
0.743372	2743011.9499840103
0.744973	2474510.5905779204
0.746582	2207995.1998757357
0.748197	1946643.0708649128
0.74982	1690035.850422571
0.751451	1441542.1665378562
0.753088	1206426.6667489274
0.754734	981745.5205997037
0.756386	771599.8607253395
0.758047	578408.8495186655
0.759715	406981.9442580856
0.76139	255763.24295505125
0.763074	131570.8214071747
0.764765	46049.473682873126
0.766464	8268.473072014614
0.768172	11649.840215612061
0.769887	12521.254890413304
0.77161	72193.29372961879
0.773341	206514.27872724886
0.775081	389534.62393066555
0.776829	604970.6028510635
0.778585	761058.0191633311
0.780349	867789.7022148216
0.782121	1388894.6132918815
0.783902	1871054.9043883139
0.785691	2305591.763143353
0.787489	2766780.1600176333
0.789295	3251497.170756099
0.79111	3677133.5609840504
0.792933	3060894.808549532
0.794764	1620407.3174013884
0.796604	4427285.073009496
0.798453	6154225.391319876
0.80031	7054872.5321795195
0.802176	7895333.908809195
0.804051	8761201.580965701
0.805934	9643422.09273736
0.807826	10541159.335707163
0.809727	11400925.797906969
0.811636	12312473.964378111
0.813554	13310002.65359096
0.81548	14406437.293422153
0.817416	14296601.508141428
0.81936	14264874.828036346
0.821313	17793355.012929514
0.823274	19574391.641804077
0.825244	21253901.948592227
0.827223	22826061.060087446
0.829211	24340846.761321742
0.831208	26028159.886929646
0.833213	27798690.10625069
0.835227	29378066.93730654
0.837249	31175411.347257596
0.83928	33077851.44903083
0.841321	34835008.555130064
0.843369	37042407.92528362
0.845427	38980634.04775383
0.847493	41217131.9057437
0.849567	39052990.44776519
0.851651	28169539.191429317
0.853742	35262889.394303545
0.855843	46754763.99400025
0.857952	49147485.34259557
0.86007	48075470.58216291
0.862196	33974065.497406125
0.864331	33432220.096594118
0.866474	39302173.68733229
0.868626	41973574.01834601
0.870786	42014427.087377764
0.872955	42990962.71845291
0.875132	44590912.90845549
0.877317	48928311.883895144
0.879511	48063558.353506595
0.881713	49334508.13788379
0.883923	52785179.681152575
0.886142	59435472.24922614
0.888369	57392572.424295664
0.890604	53239105.11108135
0.892847	48187545.10616968
0.895099	54167628.86744519
0.897358	72144589.6477525
0.899626	74669871.38895899
0.901901	87858551.60457145
0.904185	94107248.08040744
0.906476	93006624.76766266
0.908776	104319829.64134209
0.911083	106551090.92772108
0.913398	114389632.41077669
0.915721	111224272.19485705
0.918051	111112413.89960982
0.92039	120013463.474938
0.922736	124658632.87272027
0.925089	121613711.98416111
0.927451	87461492.89978336
0.929819	75001783.19618471
0.932195	97736790.25592445
0.934579	97244517.59422961
0.93697	108654913.78908706
0.939369	120809876.14424619
0.941774	117629698.91370372
0.944187	94488616.29407224
0.946607	99972596.23738936
0.949035	101626506.34791028
0.951469	108388474.71311486
0.953911	112375891.51438677
0.956359	122146153.55012786
0.958814	110125224.37919798
0.961277	99098572.7333617
0.963746	97196196.24404149
0.966222	102830977.0666211
0.968705	103497424.86238003
0.971194	126081101.28544311
0.97369	146213296.7341975
0.976193	146140439.814087
0.978702	152049187.8203794
0.981217	150472255.26107723
0.983739	165333892.23882324
0.986268	175444746.57048252
0.988802	165063967.89001304
0.991343	145389305.8041727
0.99389	150749428.10596836
0.996444	148346000.99795935
0.999003	115205647.53078109
1.00157	111011451.1177017
1.00414	118281460.91799319
1.00672	125525982.9713541
1.0093	135023227.5257946
1.01189	148903129.72487697
1.01448	159753139.5462908
1.01708	168940148.233857
1.01969	181545111.7170546
1.0223	177394406.50087988
1.02492	170586097.42736894
1.02754	176842459.85372695
1.03017	190903910.54188275
1.0328	215906607.53399947
1.03544	229011845.41916367
1.03808	238657006.38833025
1.04073	234642969.96125707
1.04339	234480258.73419434
1.04604	236997623.83147967
1.04871	231111335.56787756
1.05138	217555577.721223
1.05405	220572060.2784158
1.05673	228426354.90475386
1.05941	226294983.77552694
1.0621	236520123.96279815
1.06479	245027058.92327368
1.06749	256779322.83922517
1.07019	265879672.62843895
1.07289	284984475.4812511
1.0756	301539214.22807425
1.07832	316435272.5365519
1.08104	330806558.3693133
1.08376	339928870.07517177
1.08649	336883054.708603
1.08922	325875418.5206611
1.09195	290628836.1589931
1.09469	257157375.69093835
1.09743	254485880.27974582
1.10018	207421064.95859465
1.10293	149802704.0183852
1.10568	123426146.75171879
1.10844	171988316.1311299
1.1112	126466255.52684864
1.11396	124934564.80264045
1.11673	132950806.01230839
1.1195	126884096.82531124
1.12228	94000372.2061091
1.12505	94043248.40296343
1.12783	144451948.21767688
1.13062	121728130.55925392
1.13341	68403751.89515539
1.1362	77465197.41211626
1.13899	99699883.75722297
1.14178	106802457.16007794
1.14458	116229870.06508763
1.14738	163123456.28088477
1.15019	166206021.51362014
1.153	105999648.6565458
1.1558	108883977.41719636
1.15862	114182095.42902423
1.16143	107084099.96570621
1.16425	114258234.16626967
1.16707	95972376.93695545
1.16989	77781315.21328768
1.17271	91803205.8593742
1.17554	86147513.52640164
1.17837	90737182.24324727
1.1812	130015697.25088027
1.18403	175095747.33917862
1.18686	188440788.23735297
1.1897	178926372.11196056
1.19253	213977348.27130497
1.19537	244627714.4320702
1.19822	229195362.30096093
1.20106	247075244.14766333
1.2039	268843631.3351475
1.20675	284614642.37028575
1.2096	275238580.4630328
1.21245	279891624.9221629
1.2153	313305853.0075467
1.21815	333262575.4629991
1.221	352007811.91617846
1.22385	377490066.6030545
1.22671	392818353.3644623
1.22957	391504000.91663355
1.23242	399126799.8111209
1.23528	406794363.24789786
1.23814	394540299.8043918
1.241	306276819.14101684
1.24387	243957851.78387746
1.24673	335703275.80843896
1.24959	295807565.3648958
1.25245	202466406.2291346
1.25532	333509540.1668847
1.25818	433120423.94352895
1.26105	455795321.92448276
1.26392	451601071.8329447
1.26678	465171295.80183935
1.26965	481992064.197161
1.27252	478750834.2646579
1.27538	486946413.9704126
1.27825	489227504.8972822
1.28112	471528852.4735153
1.28399	459647353.68732786
1.28686	460317492.3137842
1.28973	420984217.036665
1.2926	411321133.72939426
1.29546	423519995.65807575
1.29833	424634340.29134476
1.3012	398191952.558049
1.30407	420218500.1638674
1.30694	403455684.3521947
1.30981	413674951.27589965
1.31267	382550776.4642285
1.31554	358298758.69516414
1.31841	346499760.6009939
1.32128	326568875.3783181
1.32414	256337120.65622368
1.32701	201121035.1909755
1.32987	164995502.14382288
1.33274	68879670.26757346
1.3356	33946998.91922276
1.33847	15439153.799835537
1.34133	9689880.060415141
1.34419	15867933.751202295
1.34705	17199090.474090714
1.34991	8534894.132796692
1.35277	4602676.030056018
1.35563	9586203.255701378
1.35849	14362672.545333715
1.36135	10739802.60271498
1.3642	14596193.71457138
1.36706	15278205.091688992
1.36991	14570863.314713076
1.37277	19320400.049109656
1.37562	21125156.946162716
1.37847	17858370.37723455
1.38132	7935055.12423311
1.38417	4228074.387893925
1.38701	7835111.593920517
1.38986	9611519.714798728
1.39271	11312120.39869982
1.39555	13892064.480323847
1.39839	9955962.192741955
1.40123	14103602.52939851
1.40407	21333326.97804718
1.40691	24733505.612898298
1.40974	16176155.64246618
1.41258	8413513.924877055
1.41541	10418324.571113957
1.41824	11739872.672686908
1.42107	12349626.31455714
1.4239	10603730.806968972
1.42673	15763868.706168663
1.42955	19732817.40987867
1.43237	13500782.264385806
1.43519	15152100.639510619
1.43801	14477750.928269126
1.44083	17073499.826550335
1.44365	24042289.432060983
1.44646	21069554.41135734
1.44927	26948036.677578565
1.45208	29012776.368068922
1.45489	28864825.219314188
1.45769	33339178.155213922
1.4605	40527637.70666472
1.4633	38130050.05494269
1.4661	39604282.05747408
1.4689	36801912.40137511
1.47169	40948126.51680927
1.47449	41096480.503925
1.47728	42984279.96552276
1.48007	40048709.576587826
1.48286	43377143.266895525
1.48564	48722290.258506685
1.48842	45788704.29066964
1.4912	47021205.092605814
1.49398	49916060.877630845
1.49676	52785933.43592628
1.49953	63240567.41725784
1.5023	69199751.15229583
1.50507	72733976.42102855
1.50784	68564529.3854771
1.51061	66801108.609018244
1.51337	76438472.92478831
1.51613	82886309.7636958
1.51888	84480251.97680882
1.52164	102609596.20559554
1.52439	108630220.73299974
1.52714	98867313.62971465
1.52989	99693077.87791383
1.53263	110167745.14574867
1.53538	118727236.3562042
1.53812	115686156.36584753
1.54086	116034027.29615277
1.54359	121152428.40883332
1.54632	133205199.93936034
1.54905	138405652.95647854
1.55178	136611019.5497619
1.5545	138747919.27090216
1.55723	140304632.2942727
1.55995	146356199.69310933
1.56266	155506084.95589778
1.56538	161445674.02461654
1.56809	170480737.99849764
1.5708	175294806.51060882
1.57351	174636777.4061778
1.57621	180591087.22451428
1.57891	182340403.48561063
1.58161	188167276.11942774
1.5843	198989246.42361295
1.587	206830543.38051772
1.58969	206842511.01472005
1.59238	207227547.63202468
1.59506	211246022.9891305
1.59774	211796624.42828676
1.60042	215794189.1905006
1.6031	218016616.45683604
1.60577	216098552.53653574
1.60844	219138126.03465223
1.61111	223653958.71491855
1.61378	225138502.6322717
1.61644	224596421.86712018
1.6191	220608829.95241114
1.62176	221203397.1444093
1.62441	225692106.4947423
1.62707	227310180.10843953
1.62971	223804620.60487032
1.63236	218973140.38612783
1.635	229020635.6400981
1.63764	239768201.82281095
1.64028	240694837.54615673
1.64292	235949532.435033
1.64555	230940439.19221118
1.64818	227603789.1891244
1.65081	227381934.6932001
1.65343	231649813.32929352
1.65605	234553781.5747545
1.65867	231955022.62306517
1.66128	225600395.83256626
1.6639	214586462.09568414
1.66651	190230236.9542181
1.66911	181053761.20102537
1.67172	200635116.9136458
1.67432	217835361.42297083
1.67692	220263495.14016291
1.67951	216968908.45271552
1.68211	215987110.1592117
1.6847	210592627.49732026
1.68728	197697619.29172322
1.68987	186439673.65769997
1.69245	175048144.53854656
1.69503	161500172.33731848
1.6976	157307286.50170293
1.70018	161114927.50350302
1.70275	158679422.28277263
1.70531	157546856.4774396
1.70788	155746316.5496114
1.71044	148578502.4737741
1.713	144683990.16461852
1.71556	139177496.02365524
1.71811	133731393.98677775
1.72066	130046758.86414634
1.72321	123521866.95000878
1.72575	117171145.4773943
1.7283	110670242.42233163
1.73084	102377037.59987444
1.73337	94938301.03813209
1.73591	90471655.48839782
1.73844	84188334.87938017
1.74097	76664605.11739478
1.74349	70378384.22142015
1.74602	67760517.4375117
1.74854	67531200.92426674
1.75105	62087810.63923023
1.75357	49401487.11422419
1.75608	41753307.20613074
1.75859	43164473.37592377
1.7611	46602652.27878609
1.7636	48978608.194450945
1.7661	44067825.66521862
1.7686	36250972.57418491
1.7711	34064477.60732032
1.77359	30969753.056730177
1.77608	25033563.73917418
1.77857	21956916.969278622
1.78105	22154768.664712604
1.78354	22011718.347438507
1.78602	19154540.360892273
1.78849	16663501.813182808
1.79097	16066583.141067298
1.79344	15721332.553067869
1.79591	16037102.61483753
1.79837	16898415.706383806
1.80084	13210371.829681799
1.8033	10370146.724934883
1.80576	9163450.777284421
1.80821	8624572.912914649
1.81067	8016704.105895115
1.81312	7479319.099529475
1.81557	7488672.456369007
1.81801	7803573.401038805
1.82046	7762001.895341915
1.8229	8010922.843283209
1.82533	7831063.928599001
1.82777	7696735.311216618
1.8302	8392549.603615396
1.83263	9239245.117732253
1.83506	9000335.331708532
1.83749	8972577.042397533
1.83991	12371597.741177589
1.84233	16465271.5105958
1.84475	17878467.132438704
1.84716	16295596.667694269
1.84957	13111711.53219253
1.85198	10636053.533401627
1.85439	8825130.342096906
1.8568	9191407.746314725
1.8592	9870594.580658142
1.8616	8647468.166160954
1.864	8750315.131991804
1.86639	11620882.237975204
1.86878	13092003.001574656
1.87118	11453612.99498818
1.87356	11614600.341995453
1.87595	14690177.32897621
1.87833	18508065.325667176
1.88071	21531755.842870656
1.88309	20306289.087226607
1.88547	19133741.496922478
1.88784	20879427.266243435
1.89021	20524413.426873486
1.89258	23254081.409222376
1.89494	28370591.194703456
1.89731	25410586.830138512
1.89967	17657277.27783622
1.90203	13254559.08907391
1.90439	14987847.476184042
1.90674	20647437.396994807
1.90909	22101497.96452007
1.91144	17132717.383414693
1.91379	12037772.753868401
1.91613	10405078.535571296
1.91848	9361794.596115878
1.92082	7447728.853709147
1.92315	6823629.664319411
1.92549	7976783.913750964
1.92782	8705218.580647431
1.93015	9090152.092662653
1.93248	10247532.788221676
1.93481	11893915.060883831
1.93713	12963075.422077872
1.93945	13054368.780563358
1.94177	13374699.059102006
1.94409	13174311.095537279
1.94641	12003115.504204266
1.94872	12682746.112229006
1.95103	14107144.949806176
1.95334	11416116.292801563
1.95564	9237547.415487915
1.95795	9676489.863653492
1.96025	10826931.282163693
1.96255	12498558.472354574
1.96484	15459583.190780735
1.96714	19712128.449563358
1.96943	23172755.07399279
1.97172	22971602.61764373
1.97401	19999003.378671233
1.97629	19832888.13738511
1.97858	20815854.574559648
1.98086	22151396.21205393
1.98314	26265217.219139274
1.98541	30156177.196572065
1.98769	29986744.29549705
1.98996	26411681.989042945
1.99223	25860956.70615883
1.9945	28900107.88601818
1.99677	29108975.551189285
1.99903	28837747.212795425
2.00129	31115093.983215343
2.00355	35080058.24789674
2.00581	37656524.92175771
2.00806	37077404.24395794
2.01031	37915398.75836024
2.01256	40204988.06259141
2.01481	39959665.351743035
2.01706	39208453.07827618
2.0193	41038052.8525412
2.02154	46250833.195497505
2.02378	51092121.84627976
2.02602	50717918.40349659
2.02825	49120383.38898304
2.03049	48978666.46291787
2.03272	50617015.50280439
2.03494	52831622.0078569
2.03717	53833256.60354187
2.03939	54412316.5184695
2.04162	55553446.22187181
2.04384	58357437.24454491
2.04605	62931971.9108156
2.04827	67156554.58402713
2.05048	66680793.801563635
2.05269	63867014.73623468
2.0549	66347289.96235079
2.05711	71039432.03786163
2.05931	74426116.62985379
2.06151	74366345.04591683
2.06371	72994746.96013598
2.06591	75693983.3125487
2.06811	79560136.62594925
2.0703	81868587.6697939
2.07249	81337186.29965283
2.07468	78693617.42833778
2.07686	78188911.44047512
2.07905	79226948.3245713
2.08123	80490283.93208747
2.08341	81350000.50021467
2.08559	81946869.57741639
2.08776	82981055.99782133
2.08994	84560920.67778303
2.09211	85966890.30294196
2.09428	86947606.67930268
2.09645	87921591.15846264
2.09861	88153452.77050053
2.10077	87800605.64326094
2.10293	86821399.69996738
2.10509	85363560.4717608
2.10725	84542485.91384883
2.1094	86234414.92723037
2.11155	88478311.51263808
2.1137	90185974.0385702
2.11585	90221582.88878156
2.11799	89978754.12716287
2.12013	90409797.42296124
2.12227	91152146.98075747
2.12441	91794003.87018237
2.12655	91522181.63691702
2.12868	91141351.03664255
2.13081	90997854.10724238
2.13294	91048097.91466472
2.13507	90462917.82448909
2.13719	89121777.41267477
2.13931	87959073.66210191
2.14143	87211710.745942
2.14355	86931845.63851927
2.14567	86925261.92907916
2.14778	86510816.514221
2.14989	85667506.99981597
2.152	84620479.93476431
2.1541	84883559.06339027
2.15621	85344762.1251186
2.15831	85574935.63425532
2.16041	84790078.44760615
2.16251	84141069.24045216
2.1646	83437085.16290864
2.1667	82625354.95690484
2.16879	81704003.34894873
2.17087	80381213.6861413
2.17296	78843737.90251027
2.17504	77199984.7960141
2.17713	75907947.29922144
2.1792	75065662.80163611
2.18128	74401463.93323185
2.18336	73672409.87705442
2.18543	72444530.1037284
2.1875	71057822.72184844
2.18957	69389640.51005062
2.19163	66784786.59920764
2.1937	63149602.38146315
2.19576	59175164.83184199
2.19782	55115163.40131673
2.19987	51308558.73073403
2.20193	47450535.77663639
2.20398	43940223.7025484
2.20603	42167401.50494073
2.20808	43322873.21906139
2.21012	45704670.26571049
2.21217	48707299.47958093
2.21421	50414480.992109664
2.21625	51087096.787775666
2.21828	50811540.605948724
2.22032	50212115.05464898
2.22235	49798411.875607535
2.22438	49240031.28725872
2.22641	47803562.17019723
2.22843	46471617.303626865
2.23046	45357766.40677984
2.23248	44637825.15660132
2.2345	43883368.29014211
2.23651	43133412.99993639
2.23853	42386132.957889
2.24054	40996836.53695661
2.24255	39346049.03897352
2.24456	37560809.81880745
2.24657	37282544.039785095
2.24857	37731035.875677764
2.25057	38553953.67546977
2.25257	38501891.410095334
2.25457	38276227.49143287
2.25656	38011786.86190888
2.25856	38024910.65757974
2.26055	37207959.63004864
2.26254	35914475.91173854
2.26453	34243379.340340905
2.26651	33790121.2863775
2.2685	34031199.83165709
2.27048	34963820.9339717
2.27246	36028825.69428714
2.27443	36845135.83022023
2.27641	36447196.80701931
2.27838	35251668.98106473
2.28036	33753593.58599021
2.28233	32599523.33991216
2.28429	31840932.001114383
2.28626	31222038.98979178
2.28823	30226470.72587227
2.29019	28786062.5927579
2.29215	27060664.159465354
2.29411	25334616.145002127
2.29607	23896019.731150113
2.29802	22706294.50508109
2.29998	22223374.70574516
2.30193	22043258.730213024
2.30388	22206388.408711072
2.30583	22714834.56581217
2.30778	23314894.166015282
2.30972	24015120.758836165
2.31167	23999796.79274885
2.31361	23285571.08640526
2.31555	20998737.256088197
2.31749	18658121.61553912
2.31943	16553515.637753699
2.32137	16291221.408142831
2.32331	16376973.278675035
2.32524	16738002.352727333
2.32718	16574511.639857853
2.32911	16307830.090294069
2.33104	15902893.556813564
2.33297	15852048.091567181
2.3349	15989232.01338241
2.33683	16475299.39947307
2.33876	16942939.774320435
2.34068	17383734.088523716
2.34261	17602213.98353682
2.34453	17926760.715425447
2.34646	18375122.60390531
2.34838	19028062.942833845
2.3503	19726712.081154983
2.35223	20472711.125153873
2.35415	21031998.647803057
2.35607	21510247.16064501
2.35799	22112365.550069556
2.35991	22876007.11107179
2.36183	23834590.430874333
2.36375	23687798.148038942
2.36566	22849727.63761724
2.36758	20317429.94781383
2.3695	17815551.83835393
2.37142	15333173.459883831
2.37334	15179491.669845331
2.37526	15253452.963053297
2.37718	15686499.180446733
2.3791	15939390.826686442
2.38101	16153772.844078332
2.38293	16534825.311712947
2.38485	17167673.469510958
2.38677	18057618.279370368
2.3887	18900964.761842888
2.39062	19628542.729433432
2.39254	20035842.474406406
2.39446	20397823.54104903
2.39639	20732488.18657175
2.39831	21095942.855107926
2.40024	21249251.691952188
2.40216	21003851.36422413
2.40409	20786915.9228172
2.40602	20641955.03074211
2.40795	21206820.419029273
2.40989	21778237.984939303
2.41182	22351145.95820288
2.41376	22355787.479088504
2.4157	22173737.891590875
2.41764	21743556.660328753
2.41958	21488079.98535358
2.42152	21374652.80941544
2.42347	21404748.879479326
2.42542	21487954.67397317
