#wavelength	surface flux
0.8	52377968.41064333
0.8002000000000001	52809502.571713224
0.8004000500000003	53337861.562412314
0.8006001500125003	53867329.57924177
0.8008003000500035	54396929.96307547
0.8010005001250161	54926662.74700537
0.8012007502500472	55456527.96413049
0.8014010504376099	56055172.62572214
0.8016014007002193	56676961.588920824
0.8018018010503944	57298905.9993603
0.8020022515006572	57921005.89590266
0.8022027520635323	58543261.31741863
0.8024033027515483	59109724.80993043
0.8026039035772362	59621503.55575074
0.8028045545531306	60133410.246257536
0.8030052556917691	60645444.9134372
0.803206007005692	61157607.58928321
0.8034068085074435	61631408.05799481
0.8036076602095705	61997433.16630543
0.8038085621246229	62363549.78089284
0.8040095142651542	62729757.92463412
0.8042105166437206	63096057.62041122
0.8044115692728815	63464014.18103777
0.8046126721651998	63899388.608350575
0.8048138253332411	64334871.87926985
0.8050150287895745	64770464.02100728
0.805216282546772	65206165.06078001
0.8054175866174087	65641975.02581246
0.8056189410140631	66214305.031939305
0.8058203457493168	66825391.30606023
0.8060218008357541	67436630.3517489
0.8062233062859632	68048022.2071993
0.8064248621125346	68659566.91061315
0.806626468328063	69289479.62017567
0.8068281249451449	69935194.39241119
0.8070298319763813	70581070.59334055
0.8072315894343755	71227108.26331964
0.8074333973317341	71873307.4427165
0.8076352556810671	72518157.80943887
0.8078371644949874	73159533.69408742
0.8080391237861113	73801069.92270729
0.8082411335670578	74442766.53538392
0.8084431938504498	75084623.5722144
0.8086453046489125	75734236.35892297
0.8088474659750746	76525422.15945534
0.8090496778415686	77316805.75643888
0.809251940261029	78108387.19932112
0.8094542532460944	78900166.53756474
0.8096566168094059	79692143.82064202
0.8098590309636085	80539502.72126155
0.8100614957213493	81399989.63921012
0.8102640110952797	82260691.67888829
0.8104665770980536	83121608.89407672
0.8106691937423283	83982741.33856927
0.8108718610407639	84775528.84449236
0.8110745790060241	85516090.1442481
0.8112773476507757	86256836.58432944
0.8114801669876885	86997768.2110206
0.8116830370294355	87738885.070618
0.8118859577886929	88471370.54706267
0.8120889292781401	89185726.55160457
0.8122919515104597	89900261.14514758
0.8124950244983374	90614974.372339
0.8126981482544621	91329866.2778371
0.8129013227915257	92067496.36853632
0.8131045481222237	93063620.15822823
0.8133078242592543	94059992.97886768
0.8135111512153191	95056614.89271201
0.813714529003123	96053485.96203491
0.8139179576353739	97050606.24912533
0.8141214371247829	98257605.46400538
0.8143249674840641	99505557.14331369
0.814528548725935	100753820.81054106
0.8147321808631167	102002396.54368694
0.8149358639083326	103251284.42076571
0.8151395978743097	104269983.83585332
0.8153433827737784	105133201.99273778
0.8155472186194719	105996635.95416115
0.8157511054241268	106860285.77407472
0.815955043200483	107724151.50644386
0.8161590319612831	108232952.37243621
0.8163630717192736	108090871.61947131
0.8165671624872033	107948755.34631832
0.8167713042778252	107806603.54409692
0.8169754971038948	107664416.20392488
0.8171797409781707	106924555.2902256
0.8173840359134155	101413379.95014141
0.8175883819223938	95900826.81622855
0.8177927790178745	90386895.54402906
0.8179972272126291	84871585.78901008
0.8182017265194322	79354897.2065579
0.8184062769510622	77859512.81326514
0.8186108785203001	76982786.00447649
0.8188155312399301	76105840.01398681
0.8190202351227402	75228674.78699854
0.819224990181521	74351290.26870407
0.8194297964290664	78980362.06652543
0.8196346538781738	86929730.11993623
0.8198395625416434	94881085.51535721
0.8200445224322789	102834428.74963039
0.820249533562887	110789760.31970981
0.8204545959462778	116487759.35501392
0.8206597095952644	118550866.14247744
0.8208648745226633	120614488.70663941
0.8210700907412941	122678627.1764421
0.8212753582639793	124743281.68086013
0.8214806771035456	126662583.10386379
0.8216860472728215	127683632.08364828
0.8218914687846397	128704936.32567777
0.822096941651836	129726495.8937683
0.822302465887249	130748310.85175025
0.8225080415037209	131770381.26347226
0.8227136685140968	133050331.10638736
0.8229193469312254	134359846.6352703
0.8231250767679583	135669689.54303586
0.8233308580371503	136979859.91152766
0.8235366907516598	138290357.82261255
0.8237425749243477	140001952.19169098
0.8239485105680789	141926388.98640865
0.824154497695721	143851306.89032376
0.824360536320145	145776706.0237152
0.8245666264542252	147702586.5068899
0.8247727681108388	149024963.1748154
0.8249789613028664	149482649.8305211
0.8251852060431922	149940450.90789115
0.825391502344703	150398366.4355303
0.8255978502202894	150856396.44205183
0.8258042496828445	151197641.79310447
0.8260107007452654	150971243.4380327
0.8262172034204517	150744788.48337236
0.8264237577213068	150518276.9149733
0.8266303636607373	150291708.71868202
0.8268370212516525	150065083.8803418
0.8270437305069654	150403812.77329737
0.8272504914395923	150786809.4955747
0.8274573040624523	151169901.9670327
0.8276641683884679	151553090.2116082
0.8278710844305652	151936374.25324532
0.8280780522016729	152354942.64708143
0.8282850717147234	152789700.29545948
0.8284921429826521	153224566.63324913
0.8286992660183978	153659541.6876236
0.8289064408349024	154094625.48576134
0.8291136674451112	154503926.21338987
0.8293209458619727	154880680.95154434
0.8295282760984382	155257529.87838283
0.829735658167463	155634473.0174535
0.8299430920820048	156011510.3923084
0.8301505778550254	156430663.5930708
0.8303581154994891	157017641.95979074
0.8305657050283641	157604767.07110292
0.8307733464546212	158192038.9636925
0.8309810397912352	158779457.67425618
0.8311887850511829	159367023.23949632
0.8313965822474458	160461355.16196567
0.8316044313930077	161579475.55671412
0.8318123325008561	162697875.48156232
0.8320202855839813	163816555.00639117
0.8322282906553774	164935514.20110133
0.8324363477280413	165988592.42269346
0.8326444568149735	167015297.84422705
0.8328526179291771	168042259.9421148
0.8330608310836596	169069478.78052858
0.8332690962914304	170096954.42365062
0.8334774135655034	170752139.31805128
0.833685782918895	170991340.08558857
0.8338942043646247	171230600.6533176
0.834102677915716	171469921.03618875
0.834311203585195	171709301.2491554
0.8345197813860912	172001912.68816325
0.8347284113314379	172473577.12081397
0.8349370934342709	172945359.4695726
0.8351458277076294	173417259.76391783
0.8353546141645565	173889278.03333747
0.8355634528180977	174361414.30732423
0.8357723436813022	174932033.86004454
0.8359812867672226	175504010.6277894
0.8361902820889144	176076130.38972592
0.8363993296594368	176648393.18160307
0.8366084294918518	177220799.0391784
0.8368175815992247	177681770.0185243
0.8370267859946247	178104427.63837457
0.8372360426911234	178527190.92262968
0.8374453517017962	178950059.8977058
0.8376547130397217	179373034.59002563
0.8378641267179816	179969455.82898
0.8380735927496613	180738025.30987367
0.8382831111478488	181506786.9331371
0.8384926819256358	182275740.7468059
0.8387023050961173	183044886.79892883
0.8389119806723914	183635288.91785276
0.8391217086675596	183722253.64579135
0.8393314890947265	183809240.11491188
0.8395413219670003	183896248.3306497
0.8397512072974922	183983278.2984415
0.8399611450993165	184074637.17471975
0.8401711353855914	184379910.4698168
0.8403811781694378	184685260.0832376
0.8405912734639802	184990686.03406176
0.8408014212823464	185296188.34137383
0.8410116216376671	185601767.02426267
0.8412218745430766	185489408.84608248
0.8414321800117124	185255396.8515127
0.8416425380567154	185021326.35394415
0.8418529486912297	184787197.33875117
0.8420634119284025	184553009.7913046
0.8422739277813847	185348541.78590196
0.8424844962633302	187051547.11907876
0.842695117387396	188754978.20358664
0.8429057911667428	190458835.14586574
0.8431165176145345	192163118.05238122
0.8433272967439382	192310999.54889125
0.8435381285681244	188661384.0817741
0.8437490131002665	185010856.210791
0.8439599503535415	181359415.7078424
0.84417094034113	177707062.34476542
0.8443819830762154	174175923.98647645
0.8445930785719846	173104183.72004837
0.8448042268416277	172032175.51855424
0.8450154278983382	170959899.31500992
0.8452266817553128	169887355.04241475
0.8454379884257517	168814542.63375133
0.8456493479228583	169276272.73671615
0.845860760259839	170107719.13835543
0.846072225449904	170939373.40159515
0.8462837435062666	171771235.57840082
0.8464953144421433	172603305.7207512
0.8467069382707537	173484726.6229356
0.8469186150053215	174404673.13870806
0.847130344659073	175324849.6411097
0.8473421272452377	176245256.18763608
0.8475539627770492	177165892.8358
0.8477658512677435	178059630.99090332
0.8479777927305605	178895988.45990956
0.8481897871787432	179732555.01828286
0.848401834625538	180569330.7182962
0.8486139350841944	181406315.61223403
0.8488260885679657	182186250.91401693
0.8490382950901076	182268416.28675917
0.8492505546638802	182350602.20084462
0.8494628673025462	182432808.66140857
0.8496752330193721	182515035.67358777
0.8498876518276269	182597283.24251992
0.8501001237405839	180088041.4252954
0.8503126487715191	177060861.3977145
0.850525226933712	174032924.57512835
0.8507378582404455	171004230.7683366
0.8509505427050057	167974779.78809136
0.8511632803406821	164503183.27374452
0.8513760711607672	160728448.78847477
0.8515889151785576	156952770.6195778
0.8518018124073523	153176148.5311418
0.8520147628604541	149398582.28718588
0.8522277665511693	147844781.3554478
0.8524408234928071	150404923.6543793
0.8526539336986805	152965705.9888862
0.8528670971821053	155527128.51897693
0.8530803139564007	158089191.40469712
0.8532935840348901	160618302.25293556
0.8535069074308987	162864339.10121655
0.8537202841577566	165110937.45871153
0.8539337142287962	167358097.46579614
0.8541471976573534	169605819.2628811
0.8543607344567677	171854102.99041575
0.8545743246403821	169502809.7701783
0.8547879682215422	166420374.07350475
0.8550016652135977	163337167.76790744
0.8552154156299011	160253190.66073355
0.8554292194838088	157168442.55928063
0.8556430767886797	155265958.63882887
0.855856987557877	154081306.92704552
0.8560709518047664	152896359.05233496
0.8562849695427177	151711114.94065532
0.8564990407851035	150525574.5179474
0.8567131655452999	149091449.81054264
0.8569273438366862	147250138.56240347
0.8571415756726455	145408366.9864519
0.8573558610665638	143566134.96760568
0.8575702000318304	141723442.39075676
0.8577845925818384	140613513.23538822
0.857999038729984	144083294.4148092
0.8582135384896665	147553943.03952426
0.858428091874289	151025459.3263957
0.8586426988972576	154497843.4923379
0.8588573595719821	157971095.7543228
0.8590720739118751	156755362.28368422
0.8592868419303532	154986377.07445604
0.8595016636408359	153216949.61892554
0.8597165390567462	151447079.80653176
0.8599314681915105	149676767.52668443
0.8601464510585584	146786583.85987785
0.860361487671323	143301492.64974725
0.8605765780432408	139815530.16681513
0.8607917221877518	136328696.1932594
0.8610069201182988	132840990.51121122
0.8612221718483286	126179306.3887468
0.8614374773912907	114941494.38849008
0.8616528367606385	103700872.93523635
0.8618682499698288	92457441.3266122
0.8620837170323213	81211198.86008775
0.8622992379615795	71781405.75459363
0.8625148127710699	71352080.50939453
0.8627304414742627	70922647.93288411
0.8629461240846313	70493107.99822949
0.8631618606156526	70063460.67859118
0.8633776510808066	69633705.94712302
0.8635934954935769	74451752.92207463
0.8638093938674504	79701185.01295052
0.8640253462159173	84951929.46184896
0.8642413525524714	90203986.5968595
0.8644574128906095	95457356.7461527
0.8646735272438323	96748086.67738204
0.8648896956256433	96195791.04947527
0.8651059180495498	95643357.34766147
0.8653221945290621	95090785.53742276
0.8655385250776946	94538075.58423072
0.8657549097089641	95912505.17041041
0.8659713484363913	99754617.50610487
0.8661878412735006	103597690.36988506
0.866404388233819	107441724.00188065
0.8666209893308775	111286718.64228247
0.8668376445782103	114187962.17135511
0.8670543539893549	113234080.29596843
0.8672711175778525	112279959.95011222
0.8674879353572469	111325601.07417062
0.8677048073410862	110371003.60850967
0.8679217335429217	109416167.49348171
0.8681387139763074	109227848.78360383
0.8683557486548015	109077573.48431723
0.8685728375919655	108927260.61620562
0.8687899808013633	108776910.1698773
0.8690071782965637	108626522.13593723
0.869224430091138	107765002.18880405
0.8694417361986609	106613923.48335466
0.8696590966327107	105462557.00822915
0.869876511406869	104310902.69148481
0.8700939805347206	103158960.46116185
0.8703115040298544	102474332.85268435
0.870529081905862	102324139.13996299
0.8707467141763385	102173907.87881349
0.8709644008548827	102023639.05984871
0.8711821419550964	101873332.67367928
0.8713999374905854	101776171.72865608
0.871617787474958	101862539.5400648
0.8718356919218269	101948928.94342645
0.8720536508448075	102035339.94413894
0.8722716642575187	102121772.54760157
0.8724897321735832	102208226.7592151
0.8727078546066265	104359690.97861527
0.8729260315702784	106543108.31151432
0.873144263078171	108727071.49874425
0.8733625491439405	110911580.6767712
0.8735808897812266	113096635.98209351
0.8737992850036719	113272635.67256112
0.874017734824923	112736911.42094709
0.8742362392586293	112201053.23827037
0.874454798318444	111665061.091048
0.8746734120180236	111128934.94578888
0.8748920803710283	110588630.05509071
0.875110803391121	110044125.53610589
0.8753295810919689	109499484.890991
0.875548413487242	108954708.08571483
0.8757673005906139	108409795.08623733
0.8759862424157616	109141405.62700701
0.8762052389763657	113567274.35959661
0.8764242902861098	117994249.55936629
0.8766433963586814	122422331.50293711
0.8768625572077712	126851520.46699518
0.8770817728470732	131231736.60365258
0.8773010432902849	131702918.0263012
0.8775203685511077	132174217.24430618
0.8777397486432454	132645634.28711505
0.8779591835804065	133117169.1841852
0.8781786733763015	133588821.96497901
0.8783982180446457	130550394.40848345
0.878617817599157	126466988.87621103
0.8788374720535569	122382562.49255748
0.8790571814215703	118297115.00230902
0.8792769457169257	114210646.15018794
0.879496764953355	112486123.75173832
0.8797166391445934	112885633.72094789
0.8799365683043796	113285243.5676498
0.8801565524464557	113684953.31681336
0.8803765915845676	114084762.9934146
0.8805966857324639	114538322.74625823
0.880816834903897	115126748.91643603
0.881037039112623	115715322.19315661
0.8812572983724012	116304042.61319631
0.8814776126969944	116892910.2133413
0.8816979821001687	117525269.2380575
0.8819184065956938	119178116.29677442
0.8821388861973429	120831376.56725772
0.8823594209188923	122485050.15280706
0.882580010774122	124139137.15675202
0.8828006557768155	125793637.6824489
0.8830213559407598	128713940.82145832
0.8832421112797452	131953232.21138641
0.8834629218075651	135193333.42416003
0.8836837875380171	138434244.66223782
0.8839047084849018	141675966.12812564
0.884125684662023	141486360.93130556
0.8843467160831886	138546288.7874376
0.8845678027622095	135605481.62553364
0.8847889447129001	132663939.26183867
0.8850101419490785	129721661.5125533
0.8852313944845657	130179399.6866284
0.885452702333187	138081080.20853865
0.8856740655087704	145984736.1505782
0.8858954840251476	153890368.00660115
0.8861169578961539	161797976.27058446
0.886338487135628	168809976.12518555
0.886560071757412	163879196.0791729
0.8867817117753515	158947183.33814886
0.8870034072032955	154013937.59393734
0.8872251580550963	149079458.53829557
0.8874469643446101	144143745.86288682
0.8876688260856963	142907508.64318812
0.8878907432922178	142436871.59853765
0.8881127159780409	141966116.89462635
0.8883347441570356	141495244.50203848
0.8885568278430749	141024254.39135295
0.8887789670500358	139264854.4679063
0.8890011617917983	136591134.25683048
0.8892234120822464	133916745.61570068
0.8894457179352669	131241688.37741277
0.8896680793647509	128565962.37481317
0.8898904963845921	126939540.12432252
0.8901129690086883	127316086.78691293
0.8903354972509405	127692727.5861689
0.8905580811252535	128069462.54562497
0.8907807206455347	128446291.68882039
0.8910034158256963	128980714.8937488
0.8912261666796527	130922842.21277492
0.8914489732213227	132865455.06363133
0.8916718354646282	134808553.56770238
0.8918947534234944	136752137.84639755
0.8921177271118502	138696208.0211612
0.8923407565436284	140672104.4879904
0.8925638417327644	142653607.37989065
0.8927869826931977	144635605.64751452
0.8930101794388711	146618099.4147052
0.8932334319837308	148601088.80533734
0.8934567403417267	150428596.4054863
0.8936801045268123	152159639.203678
0.8939035245529441	153891114.76256812
0.8941270004340824	155623023.1903486
0.894350532184191	157355364.59523562
0.8945741198172371	160457872.32301906
0.8947977633471915	165832694.86532772
0.8950214627880284	171208861.1132717
0.8952452181537254	176586371.4027745
0.8954690294582639	181965226.06985295
0.8956928967156286	186937727.16463158
0.8959168199398075	189265654.74245018
0.8961407991447926	191594164.30216384
0.8963648343445789	193923255.98926735
0.896588925553165	196252929.94929132
0.8968130727845534	198583186.3278056
0.8970372760527496	198436560.59533912
0.8972615353717629	197979917.4840259
0.8974858507556059	197523160.2119348
0.8977102222182949	197066288.75052583
0.8979346497738496	196609303.0712512
0.8981591334362931	196488376.27952528
0.8983836732196523	196551264.43844602
0.8986082691379572	196614168.31940642
0.8988329212052417	196677087.9263371
0.8990576294355432	196740023.26316953
0.8992823938429022	196673021.58870664
0.8995072144413631	196412779.94628164
0.8997320912449734	196152473.2434461
0.8999570242677847	195892101.46393496
0.9001820135238516	195631664.59147888
0.9004070590272328	196236553.96324414
0.9006321607919896	201378271.27175906
0.9008573188321878	206521274.00960633
0.9010825331618959	211665562.49813563
0.9013078037951865	216811137.05878785
0.9015331307461353	221957998.01307756
0.9017585140288219	226106702.4185944
0.9019839536573292	230170359.36132926
0.9022094496457435	234235032.21829683
0.9024350020081551	238300721.24348328
0.9026606107586572	242367426.6909247
0.902886275911347	245127655.33155656
0.9031119974803249	247258271.16049516
0.9033377754796951	249389419.643391
0.903563609923565	251521100.91340664
0.903789500826046	253653315.1037412
0.9040154482012526	253578666.44265953
0.904241452063303	250644510.46264738
0.9044675124263188	247709620.94364086
0.9046936293044254	244773997.70225507
0.9049198027117517	241837640.55505747
0.9051460326624297	239090681.32151377
0.9053723191705955	237152661.64822084
0.9055986622503881	235214157.47001138
0.9058250619159507	233275168.66575733
0.9060515181814298	231335695.11430097
0.9062780310609752	229395736.6944581
0.9065046005687405	233990083.54322478
0.906731226718883	238950135.60699016
0.9069579095255627	243911427.68376496
0.907184649002944	248873960.08355936
0.907411445165195	253837733.11645877
0.9076382980264862	256889660.19339457
0.907865207600993	259147848.80606306
0.9080921739028933	261406601.96588406
0.9083191969463691	263665919.81399465
0.9085462767456058	265925802.4915684
0.9087734133147922	266871586.4258177
0.9090006066681211	266299153.92082357
0.909227856819788	265726578.307704
0.9094551637839932	265153859.55068034
0.9096825275749393	264580997.6139676
0.9099099482068329	264985215.9524622
0.9101374256938848	268862604.57614404
0.9103649600503083	272740962.54698
0.9105925512903209	276620290.1073079
0.9108201994281437	280500587.49952996
0.9110479044780008	284381854.9660956
0.9112756664541204	290254075.55610263
0.911503485370734	296173314.5568735
0.9117313612420768	302094033.3673946
0.9119592940823873	308016232.3576166
0.912187283905908	313939911.897588
0.9124153307268845	316521436.50440574
0.9126434345595664	317890062.1184863
0.9128715954182063	319259029.8889691
0.9130998133170609	320628339.9013952
0.9133280882703902	321997992.2413243
0.913556420292458	322949378.68298125
0.9137848093975312	323469286.0388273
0.9140132555998806	323989323.37151223
