#wavelength	surface flux
0.8	24684678.16036998
0.8002000000000001	24790575.73557962
0.8004000500000003	24917237.808968294
0.8006001500125003	25044141.02233413
0.8008003000500035	25171075.96150332
0.8010005001250161	25298042.634407356
0.8012007502500472	25425041.04897944
0.8014010504376099	25576691.928284533
0.8016014007002193	25736627.9076872
0.8018018010503944	25896603.871084716
0.8020022515006572	26056619.828473154
0.8022027520635323	26216675.7898508
0.8024033027515483	26361256.826443914
0.8026039035772362	26490669.972959418
0.8028045545531306	26620115.47276156
0.8030052556917691	26749593.333938714
0.803206007005692	26879103.564581048
0.8034068085074435	26994211.678950135
0.8036076602095705	27068886.566822354
0.8038085621246229	27143580.123416483
0.8040095142651542	27218292.35339981
0.8042105166437206	27293023.2614406
0.8044115692728815	27368523.84042126
0.8046126721651998	27476344.620729502
0.8048138253332411	27584192.356232733
0.8050150287895745	27692067.05366994
0.805216282546772	27799968.719781477
0.8054175866174087	27907897.361309487
0.8056189410140631	28036481.751350023
0.8058203457493168	28170937.566316508
0.8060218008357541	28305426.99523656
0.8062233062859632	28439950.046513908
0.8064248621125346	28574506.728553984
0.806626468328063	28709061.677818578
0.8068281249451449	28843619.88559764
0.8070298319763813	28978211.73292881
0.8072315894343755	29112837.228221707
0.8074333973317341	29247496.379888482
0.8076352556810671	29376651.680662274
0.8078371644949874	29492509.54535464
0.8080391237861113	29608396.374513205
0.8082411335670578	29724312.17537899
0.8084431938504498	29840256.955195114
0.8086453046489125	29956869.975243546
0.8088474659750746	30085413.913445726
0.8090496778415686	30213989.98763263
0.809251940261029	30342598.205837987
0.8094542532460944	30471238.576098006
0.8096566168094059	30599911.106450442
0.8098590309636085	30735074.218737114
0.8100614957213493	30871782.766286757
0.8102640110952797	31008525.4909733
0.8104665770980536	31145302.40134107
0.8106691937423283	31282113.505936485
0.8108718610407639	31402787.424836986
0.8110745790060241	31511126.100230448
0.8112773476507757	31619491.860292856
0.8114801669876885	31727884.711795248
0.8116830370294355	31836304.661510453
0.8118859577886929	31937173.627648853
0.8120889292781401	32022327.78970728
0.8122919515104597	32107503.240306217
0.8124950244983374	32192699.984767806
0.8126981482544621	32277918.0284155
0.8129013227915257	32366152.165349547
0.8131045481222237	32488699.15015399
0.8133078242592543	32611276.77170465
0.8135111512153191	32733885.037660666
0.813714529003123	32856523.955683183
0.8139179576353739	32979193.53343523
0.8141214371247829	33136929.17192921
0.8143249674840641	33301498.196391795
0.814528548725935	33466108.363110393
0.8147321808631167	33630759.68237089
0.8149358639083326	33795452.16446116
0.8151395978743097	33932006.78179125
0.8153433827737784	34049556.59749319
0.8155472186194719	34167135.80064901
0.8157511054241268	34284744.3986056
0.815955043200483	34402382.39871176
0.8161590319612831	34537591.02225002
0.8163630717192736	34704975.5842889
0.8165671624872033	34872401.99246811
0.8167713042778252	35039870.257249534
0.8169754971038948	35207380.38909723
0.8171797409781707	35346924.13797756
0.8173840359134155	35262904.15480369
0.8175883819223938	35178863.166634135
0.8177927790178745	35094801.16821749
0.8179972272126291	35010718.15430121
0.8182017265194322	34926614.119631544
0.8184062769510622	35000862.74078871
0.8186108785203001	35099501.28968757
0.8188155312399301	35198164.49822352
0.8190202351227402	35296852.372561716
0.819224990181521	35395564.91886843
0.8194297964290664	35581126.27844944
0.8196346538781738	35819067.12181533
0.8198395625416434	36057067.45039197
0.8200445224322789	36295127.27905086
0.820249533562887	36533246.622666836
0.8204545959462778	36721101.75477292
0.8206597095952644	36828009.147528395
0.8208648745226633	36934943.26713215
0.8210700907412941	37041904.12026579
0.8212753582639793	37148891.7136126
0.8214806771035456	37247739.583725736
0.8216860472728215	37296296.76021187
0.8218914687846397	37344866.07599213
0.822096941651836	37393447.53410136
0.822302465887249	37442041.13757509
0.8225080415037209	37490646.889449716
0.8227136685140968	37557980.89183161
0.8229193469312254	37627456.39612309
0.8231250767679583	37696949.269290656
0.8233308580371503	37766459.51567648
0.8235366907516598	37835987.139623955
0.8237425749243477	37951883.23915979
0.8239485105680789	38092375.20719735
0.824154497695721	38232902.29822683
0.824360536320145	38373464.5210291
0.8245666264542252	38514061.88438705
0.8247727681108388	38629535.78757869
0.8249789613028664	38709006.69526053
0.8251852060431922	38788497.470669374
0.825391502344703	38868008.11877203
0.8255978502202894	38947538.64453678
0.8258042496828445	39024931.50567559
0.8260107007452654	39091865.43483168
0.8262172034204517	39158816.09746998
0.8264237577213068	39225783.49777396
0.8266303636607373	39292767.63992805
0.8268370212516525	39359768.52811765
0.8270437305069654	39410774.71670546
0.8272504914395923	39460542.46609745
0.8274573040624523	39510322.657426804
0.8276641683884679	39560115.29380395
0.8278710844305652	39609920.378340244
0.8280780522016729	39673169.154989935
0.8282850717147234	39742573.1391504
0.8284921429826521	39811994.474306844
0.8286992660183978	39881433.16479712
0.8289064408349024	39950889.21495997
0.8291136674451112	40014356.15384196
0.8293209458619727	40070265.09509426
0.8295282760984382	40126188.01358181
0.829735658167463	40182124.912799045
0.8299430920820048	40238075.796241015
0.8301505778550254	40294223.307902075
0.8303581154994891	40351113.82815328
0.8305657050283641	40408018.57103461
0.8307733464546212	40464937.54010162
0.8309810397912352	40521870.73891097
0.8311887850511829	40578818.17101993
0.8313965822474458	40673075.436542824
0.8316044313930077	40769087.35230254
0.8318123325008561	40865123.271041274
0.8320202855839813	40961183.198759645
0.8322282906553774	41057267.141459964
0.8324363477280413	41134422.095590934
0.8326444568149735	41203965.92367726
0.8328526179291771	41273527.13772052
0.8330608310836596	41343105.7420674
0.8332690962914304	41412701.74106527
0.8334774135655034	41463852.50499116
0.833685782918895	41494392.68805044
0.8338942043646247	41524940.50615547
0.834102677915716	41555495.96121505
0.834311203585195	41586059.055138364
0.8345197813860912	41623818.80346486
0.8347284113314379	41685786.88389417
0.8349370934342709	41747770.456343554
0.8351458277076294	41809769.52468597
0.8353546141645565	41871784.09279558
0.8355634528180977	41933814.16454719
0.8357723436813022	41971643.58814978
0.8359812867672226	42009183.4612889
0.8361902820889144	42046732.719396286
0.8363993296594368	42084291.364818215
0.8366084294918518	42121859.39990151
0.8368175815992247	42197447.33359286
0.8370267859946247	42286145.37315222
0.8372360426911234	42374865.587221436
0.8374453517017962	42463607.98134417
0.8376547130397217	42552372.56106541
0.8378641267179816	42624937.17271321
0.8380735927496613	42681423.32660516
0.8382831111478488	42737923.60203555
0.8384926819256358	42794438.00253477
0.8387023050961173	42850966.53163416
0.8389119806723914	42904389.42104105
0.8391217086675596	42949045.608838044
0.8393314890947265	42993712.96068195
0.8395413219670003	43038391.47936383
0.8397512072974922	43083081.167675406
0.8399611450993165	43127552.000694536
0.8401711353855914	43160610.85732875
0.8403811781694378	43193677.97867712
0.8405912734639802	43226753.36680583
0.8408014212823464	43259837.02378158
0.8410116216376671	43292928.95167158
0.8412218745430766	43339993.60628896
0.8414321800117124	43391133.1442402
0.8416425380567154	43442285.467075944
0.8418529486912297	43493450.57799242
0.8420634119284025	43544628.480186574
0.8422739277813847	43643119.33130348
0.8424844962633302	43783308.07662367
0.842695117387396	43923531.86913002
0.8429057911667428	44063790.7175845
0.8431165176145345	44204084.63075116
0.8433272967439382	44295427.15320145
0.8435381285681244	44267300.94115768
0.8437490131002665	44239167.6975609
0.8439599503535415	44211027.42065324
0.84417094034113	44182880.10867633
0.8443819830762154	44158388.229484476
0.8445930785719846	44207670.99077229
0.8448042268416277	44256966.072750404
0.8450154278983382	44306273.478499
0.8452266817553128	44355593.21109903
0.8454379884257517	44404925.27363221
0.8456493479228583	44504344.617376015
0.845860760259839	44615847.46530416
0.846072225449904	44727378.18894428
0.8462837435062666	44838936.79526534
0.8464953144421433	44950523.29123804
0.8467069382707537	45041877.44020024
0.8469186150053215	45117462.190015025
0.847130344659073	45193065.83601728
0.8473421272452377	45268688.382930964
0.8475539627770492	45344329.83548145
0.8477658512677435	45417749.719229676
0.8479777927305605	45486430.59547218
0.8481897871787432	45555128.641933724
0.848401834625538	45623843.86290692
0.8486139350841944	45692576.26268532
0.8488260885679657	45758997.94201108
0.8490382950901076	45797059.90885903
0.8492505546638802	45835131.3911987
0.8494628673025462	45873212.39140894
0.8496752330193721	45911302.911869295
0.8498876518276269	45949402.95495971
0.8501001237405839	45925376.58102158
0.8503126487715191	45888940.77517539
0.850525226933712	45852495.860377766
0.8507378582404455	45816041.834351435
0.8509505427050057	45779578.69481858
0.8511632803406821	45705867.1975375
0.8513760711607672	45606635.210767336
0.8515889151785576	45507378.41600034
0.8518018124073523	45408096.807034716
0.8520147628604541	45308790.37766692
0.8522277665511693	45277261.197049275
0.8524408234928071	45371115.876798615
0.8526539336986805	45464994.020217925
0.8528670971821053	45558895.63317309
0.8530803139564007	45652820.72153138
0.8532935840348901	45743192.80865207
0.8535069074308987	45803382.266412705
0.8537202841577566	45863586.771537825
0.8539337142287962	45923806.32778923
0.8541471976573534	45984040.93892966
0.8543607344567677	46044290.60872289
0.8545743246403821	45833320.94361591
0.8547879682215422	45579223.41374445
0.8550016652135977	45325062.35949055
0.8552154156299011	45070837.764973074
0.8554292194838088	44816549.61430678
0.8556430767886797	44672905.76239344
0.855856987557877	44596444.89469296
0.8560709518047664	44519964.9117756
0.8562849695427177	44443465.808862485
0.8564990407851035	44366947.58117361
0.8567131655452999	44258765.58088472
0.8569273438366862	44098705.7313974
0.8571415756726455	43938605.86694767
0.8573558610665638	43778465.97753178
0.8575702000318304	43618286.0531437
0.8577845925818384	43531883.660776116
0.857999038729984	43906551.44838882
0.8582135384896665	44281312.90294835
0.858428091874289	44656168.04787154
0.8586426988972576	45031116.90658086
0.8588573595719821	45406159.50250498
0.8590720739118751	45324081.58684519
0.8592868419303532	45188076.222858734
0.8595016636408359	45052036.85753128
0.8597165390567462	44915963.482362546
0.8599314681915105	44779856.08884998
0.8601464510585584	44555537.116277404
0.860361487671323	44284358.03478521
0.8605765780432408	44013111.15852272
0.8607917221877518	43741796.47054093
0.8610069201182988	43470413.95388723
0.8612221718483286	43018778.76962702
0.8614374773912907	42307269.87125969
0.8616528367606385	41595583.09566796
0.8618682499698288	40883718.39838188
0.8620837170323213	40171675.7349216
0.8622992379615795	39570471.01209295
0.8625148127710699	39518491.39878137
0.8627304414742627	39466498.79056646
0.8629461240846313	39414493.18419948
0.8631618606156526	39362474.57643092
0.8633776510808066	39310442.96401042
0.8635934954935769	39737063.07511988
0.8638093938674504	40203026.855022885
0.8640253462159173	40669107.125870846
0.8642413525524714	41135303.91678651
0.8644574128906095	41601617.256899804
0.8646735272438323	41645089.54741416
0.8648896956256433	41491885.689412326
0.8651059180495498	41338643.530445985
0.8653221945290621	41185363.06094005
0.8655385250776946	41032044.27131653
0.8657549097089641	41120366.23891325
0.8659713484363913	41518112.64545116
0.8661878412735006	41915958.48859088
0.866404388233819	42313903.79319134
0.8666209893308775	42711948.58411776
0.8668376445782103	43030447.24319559
0.8670543539893549	43023951.22631438
0.8672711175778525	43017453.58542894
0.8674879353572469	43010954.320133284
0.8677048073410862	43004453.4300213
0.8679217335429217	42997950.91468679
0.8681387139763074	42923500.42067446
0.8683557486548015	42845655.91232774
0.8685728375919655	42767791.94285384
0.8687899808013633	42689908.507387735
0.8690071782965637	42612005.60106266
0.869224430091138	42586568.63620077
0.8694417361986609	42582481.56200305
0.8696590966327107	42578393.46603678
0.869876511406869	42574304.34804653
0.8700939805347206	42570214.20777677
0.8703115040298544	42623342.75851964
0.870529081905862	42741903.277031936
0.8707467141763385	42860493.43567382
0.8709644008548827	42979113.24185535
0.8711821419550964	43097762.702988364
0.8713999374905854	43207364.61064608
0.871617787474958	43285665.29747349
0.8718356919218269	43363985.55947269
0.8720536508448075	43442325.40153739
0.8722716642575187	43520684.82856256
0.8724897321735832	43599063.84544452
0.8727078546066265	43839311.521016896
0.8729260315702784	44082081.51369882
0.873144263078171	44324912.19887865
0.8733625491439405	44567803.591729805
0.8735808897812266	44810755.70742927
0.8737992850036719	44880267.6046932
0.874017734824923	44888345.693988375
0.8742362392586293	44896425.80280588
0.874454798318444	44904507.93165058
0.8746734120180236	44912592.08102749
0.8748920803710283	44909211.274724655
0.875110803391121	44894306.40427025
0.8753295810919689	44879397.80759821
0.875548413487242	44864485.48377702
0.8757673005906139	44849569.43187486
0.8759862424157616	44927926.703476585
0.8762052389763657	45276205.11785096
0.8764242902861098	45624570.60182869
0.8766433963586814	45973023.1771775
0.8768625572077712	46321562.86567027
0.8770817728470732	46666794.97992343
0.8773010432902849	46747063.07651044
0.8775203685511077	46827351.240121715
0.8777397486432454	46907659.47577379
0.8779591835804065	46987987.78848488
0.8781786733763015	47068336.18327404
0.8783982180446457	46962063.8898165
0.878617817599157	46800242.8862037
0.8788374720535569	46638381.42734006
0.8790571814215703	46476479.50311175
0.8792769457169257	46314537.10340238
0.879496764953355	46281114.47907516
0.8797166391445934	46363267.61770448
0.8799365683043796	46445441.294618465
0.8801565524464557	46527635.514951676
0.8803765915845676	46609850.283840045
0.8805966857324639	46685601.07610047
0.880816834903897	46745083.609877355
0.881037039112623	46804581.0142877
0.8812572983724012	46864093.29304915
0.8814776126969944	46923620.44988031
0.8816979821001687	46989991.553755276
0.8819184065956938	47217136.595962055
0.8821388861973429	47444338.42442962
0.8823594209188923	47671597.05335408
0.882580010774122	47898912.496935666
0.8828006557768155	48126284.76937828
0.8830213559407598	48363313.39661255
0.8832421112797452	48602815.655644126
0.8834629218075651	48842377.79024032
0.8836837875380171	49081999.81537023
0.8839047084849018	49321681.746006474
0.884125684662023	49399372.17546937
0.8843467160831886	49347218.50943071
0.8845678027622095	49295051.804975525
0.8847889447129001	49242872.05884422
0.8850101419490785	49190679.2677764
0.8852313944845657	49309301.80300876
0.885452702333187	49801876.35343686
0.8856740655087704	50294574.047502495
0.8858954840251476	50787394.91599152
0.8861169578961539	51280338.989697434
0.886338487135628	51728490.156073965
0.886560071757412	51579035.96765207
0.8867817117753515	51429544.41568307
0.8870034072032955	51280015.49082601
0.8872251580550963	51130449.18373791
0.8874469643446101	50980845.485072955
0.8876688260856963	50962176.20260998
0.8878907432922178	50970608.54888258
0.8881127159780409	50979043.003241755
0.8883347441570356	50987479.56621452
0.8885568278430749	50995918.238328025
0.8887789670500358	50920152.21038746
0.8890011617917983	50784633.14942559
0.8892234120822464	50649080.20869841
0.8894457179352669	50513493.37973616
0.8896680793647509	50377872.65406656
0.8898904963845921	50313870.11197035
0.8901129690086883	50386565.64067299
0.8903354972509405	50459279.343257785
0.8905580811252535	50532011.22426828
0.8907807206455347	50604761.288248934
0.8910034158256963	50681331.200688675
0.8912261666796527	50791895.56208978
0.8914489732213227	50902487.56458127
0.8916718354646282	51013107.21507348
0.8918947534234944	51123754.52047822
0.8921177271118502	51234429.48770923
0.8923407565436284	51359135.48486145
0.8925638417327644	51486156.98749049
0.8927869826931977	51613210.24549523
0.8930101794388711	51740295.26681447
0.8932334319837308	51867412.05938901
0.8934567403417267	52018333.84902377
0.8936801045268123	52184065.62554211
0.8939035245529441	52349838.835004464
0.8941270004340824	52515653.48776925
0.894350532184191	52681509.594197184
0.8945741198172371	52931193.10023836
0.8947977633471915	53319888.007028446
0.8950214627880284	53708680.08754521
0.8952452181537254	54097569.36608187
0.8954690294582639	54486555.866938405
0.8956928967156286	54837427.64900398
0.8959168199398075	54940405.1056497
0.8961407991447926	55043408.30665962
0.8963648343445789	55146437.258469775
0.896588925553165	55249491.96751783
0.8968130727845534	55352572.440243155
0.8970372760527496	55360877.18741715
0.8972615353717629	55357322.43454269
0.8974858507556059	55353766.792980015
0.8977102222182949	55350210.26250695
0.8979346497738496	55346652.84290126
0.8981591334362931	55444967.495440714
0.8983836732196523	55599018.653893195
0.8986082691379572	55753108.32513519
0.8988329212052417	55907236.51879499
0.8990576294355432	56061403.24450334
0.8992823938429022	56173972.20252031
0.8995072144413631	56224661.40190393
0.8997320912449734	56275363.273587376
0.8999570242677847	56326077.82073873
0.9001820135238516	56376805.04652688
0.9004070590272328	56447789.02509512
0.9006321607919896	56624917.076233365
0.9008573188321878	56802089.40938457
0.9010825331618959	56979306.035618976
0.9013078037951865	57156566.966009974
0.9015331307461353	57333872.21163347
0.9017585140288219	57560016.75103389
0.9019839536573292	57790420.66359336
0.9022094496457435	58020882.1771308
0.9024350020081551	58251401.306046896
0.9026606107586572	58481978.06474514
0.902886275911347	58630512.13811939
0.9031119974803249	58739505.27147486
0.9033377754796951	58848525.65311366
0.903563609923565	58957573.28984783
0.903789500826046	59066648.18849125
0.9040154482012526	59112805.40577399
0.904241452063303	59077434.4755451
0.9044675124263188	59042054.70258366
0.9046936293044254	59006666.084678985
0.9049198027117517	58971268.61961982
0.9051460326624297	58954915.69250383
0.9053723191705955	59019692.4328228
0.9055986622503881	59084485.36732679
0.9058250619159507	59149294.50006441
0.9060515181814298	59214119.83508526
0.9062780310609752	59278961.37643981
0.9065046005687405	59366166.01167571
0.906731226718883	59454639.11463177
0.9069579095255627	59543134.33586346
0.907184649002944	59631651.68090046
0.907411445165195	59720191.15527382
0.9076382980264862	59870059.99024093
0.907865207600993	60045427.06971432
0.9080921739028933	60220837.99095753
0.9083191969463691	60396292.76493102
0.9085462767456058	60571791.4025981
0.9087734133147922	60656849.11320133
0.9090006066681211	60637417.02066161
0.909227856819788	60617980.07009878
0.9094551637839932	60598538.26029829
0.9096825275749393	60579091.59004535
0.9099099482068329	60576718.791096635
0.9101374256938848	60635043.51206862
0.9103649600503083	60693382.81422082
0.9105925512903209	60751736.70119855
0.9108201994281437	60810105.17664808
0.9110479044780008	60868488.24421641
0.9112756664541204	61057976.66657452
0.911503485370734	61250513.105401516
0.9117313612420768	61443097.678338215
0.9119592940823873	61635730.3974181
0.912187283905908	61828411.2746778
0.9124153307268845	61897666.3126928
0.9126434345595664	61922124.81628151
0.9128715954182063	61946589.434496105
0.9130998133170609	61971060.16886526
0.9133280882703902	61995537.02091801
0.913556420292458	62035986.09627364
0.9137848093975312	62092911.36279182
0.9140132555998806	62149850.86062663
0.9142417589137806	62206804.593335904
0.9144703193535092	62263772.56447838
0.9146989369333476	62312510.81873569
0.9149276116675811	62336397.22047877
