#wavelength	surface flux
0.676892	1980702.3821234596
0.678297	2080816.2193739638
0.679702	2173198.514215164
0.681109	2261432.994620526
0.682517	2346797.8428317285
0.683926	2430465.6510039335
0.685337	2510209.2397995763
0.686749	2586796.7106225532
0.688164	2664037.6667717895
0.689581	2728020.9627966057
0.691	2765283.565667322
0.692422	2817098.5269160466
0.693847	2878359.2273007175
0.695274	2973706.53163751
0.696705	3059083.598079568
0.698139	3119544.862694164
0.699576	3170393.3627924034
0.701017	3211043.938037656
0.702461	3244831.1788213262
0.70391	3283872.3687445447
0.705362	3315283.71795457
0.706819	3337574.2289244607
0.70828	3353003.5914202933
0.709745	3359033.224379527
0.711216	3361614.0598061685
0.71269	3348892.7647214737
0.71417	3326363.5839054184
0.715655	3282316.849799687
0.717145	3215109.905472564
0.71864	3172616.5676738434
0.72014	3128398.64194881
0.721647	3080192.1285668476
0.723158	3011997.3162889616
0.724676	2928192.0263159703
0.726199	2836886.183137417
0.727728	2751421.141372903
0.729264	2638507.7521226285
0.730805	2528755.034832836
0.732353	2421835.3430949757
0.733907	2304136.048803437
0.735468	2178574.6170631186
0.737035	2041422.8969811506
0.738609	1903275.0631958013
0.74019	1772833.9698971228
0.741777	1629996.2768644553
0.743372	1484922.8210656345
0.744973	1341818.7286517934
0.746582	1198672.929609759
0.748197	1057261.7148407663
0.74982	917569.1458925124
0.751451	781661.3813123251
0.753088	652776.8798096998
0.754734	529554.9874417777
0.756386	414421.1794909473
0.758047	309008.837376958
0.759715	216108.4176902394
0.76139	135004.5674226806
0.763074	69454.68019229239
0.764765	24827.99202110494
0.766464	4874.963642398557
0.768172	6819.172272674402
0.769887	7133.28270207596
0.77161	38766.85107221882
0.773341	109916.55765434948
0.775081	208719.19004397982
0.776829	327002.1870437296
0.778585	414362.62365232426
0.780349	475813.6807893932
0.782121	767589.9698314406
0.783902	1039464.0291831776
0.785691	1286514.3218112653
0.787489	1549582.5447618952
0.789295	1826434.3037276946
0.79111	2071164.2557873002
0.792933	1727073.0606418906
0.794764	916388.0071604155
0.796604	2511499.1573019978
0.798453	3486240.8822632753
0.80031	3994820.976689318
0.802176	4467196.746005609
0.804051	4956608.891123388
0.805934	5454150.679280851
0.807826	5953608.581240972
0.809727	6417496.237579457
0.811636	6907083.801335928
0.813554	7450752.706550975
0.81548	8105069.877357366
0.817416	8362826.906674813
0.81936	8597607.046933692
0.821313	10085766.80887024
0.823274	10897190.32133016
0.825244	11800130.552552523
0.827223	12640378.397390265
0.829211	13440092.32399452
0.831208	14336489.366392937
0.833213	15290846.616732107
0.835227	16106348.00896594
0.837249	17067585.90182163
0.83928	18094257.969737288
0.841321	19033684.65667872
0.843369	20252351.608055796
0.845427	21315059.885318223
0.847493	22597482.361783132
0.849567	21650784.58145895
0.851651	16287597.723652726
0.853742	20372909.173887055
0.855843	27249420.01219227
0.857952	29304739.460638966
0.86007	29372007.15988904
0.862196	23698165.111649934
0.864331	23947762.400962166
0.866474	27102696.03732503
0.868626	28829001.959555678
0.870786	29352805.2918868
0.872955	30223389.59611229
0.875132	31350747.092870872
0.877317	33816916.554555915
0.879511	33887485.72960222
0.881713	34943265.143443234
0.883923	36886872.70462301
0.886142	40308242.34183288
0.888369	39553521.6023248
0.890604	37430462.23541545
0.892847	32198255.739331882
0.895099	33907571.50853535
0.897358	46136991.31665258
0.899626	49449566.821229324
0.901901	56722310.83095707
0.904185	60651019.33907426
0.906476	60786213.48599576
0.908776	66834413.381354526
0.911083	67807168.03119147
0.913398	72030614.38012186
0.915721	70969406.336822
0.918051	70345916.77331136
0.92039	75858046.71222256
0.922736	79183900.20305493
0.925089	75476267.23028919
0.927451	51458094.871434376
0.929819	42154798.10812411
0.932195	56826914.908037715
0.934579	57121482.160027765
0.93697	66201060.48503604
0.939369	76098328.14075787
0.941774	74469844.45218888
0.944187	57038126.99501972
0.946607	61177332.91507848
0.949035	62131357.491932966
0.951469	68933719.45786083
0.953911	74628872.63218763
0.956359	84005320.79317397
0.958814	75125180.57110539
0.961277	66291343.667611614
0.963746	64889327.59841141
0.966222	69048972.03302899
0.968705	69567200.68087447
0.971194	88539970.1747247
0.97369	104568273.36826585
0.976193	102887157.7096226
0.978702	106383729.22919635
0.981217	103384579.18231273
0.983739	114095759.69333774
0.986268	121487842.26583567
0.988802	117822848.2468387
0.991343	110189700.4562894
0.99389	113208389.1522661
0.996444	109041569.43350147
0.999003	86660755.42828096
1.00157	84308873.81179088
1.00414	89563976.90660374
1.00672	95667219.26454186
1.0093	102243250.09099266
1.01189	112895194.18139987
1.01448	121931262.20410517
1.01708	128292121.1251005
1.01969	137244730.07171115
1.0223	136010021.20296928
1.02492	132233857.54353286
1.02754	137876369.97010753
1.03017	148503371.18651053
1.0328	166062736.49955857
1.03544	175315866.20551267
1.03808	182879848.0362176
1.04073	182540731.77087566
1.04339	186425112.64427385
1.04604	194288149.5340134
1.04871	196488620.3949768
1.05138	188964238.5952539
1.05405	196419191.67638525
1.05673	207171184.11639807
1.05941	206740237.5978413
1.0621	215665716.1785592
1.06479	221126467.76047033
1.06749	229207512.39243898
1.07019	234411241.94098532
1.07289	248384130.81655383
1.0756	259809489.08190867
1.07832	269581350.74334514
1.08104	280467754.4559734
1.08376	285199122.21390045
1.08649	279707144.51069903
1.08922	262154154.34530473
1.09195	225223314.99521804
1.09469	191143653.04798308
1.09743	188192203.06949344
1.10018	145013602.75826043
1.10293	97239983.03754601
1.10568	76740293.29497917
1.10844	113427270.70493083
1.1112	77757938.8532494
1.11396	74662633.15491298
1.11673	80247036.52337237
1.1195	76508477.5142853
1.12228	52379551.795497514
1.12505	52291750.11343448
1.12783	88937595.7675926
1.13062	73666828.42691392
1.13341	37666371.8363344
1.1362	49431625.53932318
1.13899	70488397.04362366
1.14178	69997006.6286332
1.14458	71395824.71773551
1.14738	103450141.48491113
1.15019	105104141.15801927
1.153	60726771.63564276
1.1558	62607538.981990844
1.15862	66475701.40801235
1.16143	62404246.39819857
1.16425	69330778.2661652
1.16707	61302722.806375325
1.16989	50594087.72626659
1.17271	58947921.451272085
1.17554	59546257.72382976
1.17837	65436886.316007964
1.1812	92645117.40791145
1.18403	130260466.14767876
1.18686	140645336.55898356
1.1897	131820925.85373335
1.19253	163458073.8808639
1.19537	191622690.160406
1.19822	177548160.69671515
1.20106	193621574.06918445
1.2039	211332930.7755832
1.20675	223896040.04688105
1.2096	214645951.81305817
1.21245	217370548.20353892
1.2153	244949190.163997
1.21815	261264005.86069238
1.221	277992509.00160325
1.22385	298235048.68700665
1.22671	309292782.06873494
1.22957	308570617.9050974
1.23242	316038292.14625204
1.23528	322715881.8545129
1.23814	312795597.38578594
1.241	245617679.61067492
1.24387	199126002.47245905
1.24673	267086404.27940235
1.24959	236049310.83154094
1.25245	166112927.74212217
1.25532	266052108.43042365
1.25818	345535919.35145175
1.26105	364012106.4147684
1.26392	362629181.4514563
1.26678	371572732.6074465
1.26965	383560571.47782445
1.27252	380057505.9161309
1.27538	388960636.14917487
1.27825	388701918.6718443
1.28112	370165521.79774237
1.28399	358627694.70962995
1.28686	360613705.29207665
1.28973	325617051.0035361
1.2926	315162076.68514115
1.29546	324986739.0633566
1.29833	325627492.7459834
1.3012	300096996.0623258
1.30407	319477063.52156496
1.30694	305418948.68908113
1.30981	314175041.38129866
1.31267	284815480.78721535
1.31554	266363899.4256703
1.31841	258312391.0943959
1.32128	242442794.1428214
1.32414	184518566.72915387
1.32701	141305322.9417536
1.32987	112691642.5867143
1.33274	44653082.22325816
1.3356	21640513.498313695
1.33847	9120686.538872626
1.34133	5266219.722747107
1.34419	8998039.935836537
1.34705	9734987.969633743
1.34991	4329201.953872338
1.35277	2085402.4725448606
1.35563	4972662.169604236
1.35849	7481846.692117852
1.36135	5339186.134918407
1.3642	7427401.915950937
1.36706	7602260.260301231
1.36991	7324153.179822279
1.37277	10315643.368365252
1.37562	11284279.089770537
1.37847	9057600.723699015
1.38132	3606126.5667066462
1.38417	1738226.5062007536
1.38701	3605428.146712614
1.38986	4649120.921826278
1.39271	5775980.086147956
1.39555	7293648.086552242
1.39839	5141296.244241024
1.40123	7851765.066372515
1.40407	12179982.191316502
1.40691	14339842.479090814
1.40974	8933471.179824607
1.41258	4230575.6738033295
1.41541	5372270.845360956
1.41824	6142294.206556889
1.42107	6563612.477795582
1.4239	5610896.269855834
1.42673	8822811.312119093
1.42955	11501140.056986902
1.43237	7578277.628016469
1.43519	8587791.246934526
1.43801	8129733.82136326
1.44083	10074901.364676673
1.44365	14682286.230813371
1.44646	12705636.99788949
1.44927	16772321.542784128
1.45208	18174648.249290965
1.45489	18148082.320763562
1.45769	21399933.50558754
1.4605	26499035.24297512
1.4633	24525012.987961344
1.4661	25688647.591274153
1.4689	23896552.16821371
1.47169	26824219.890830986
1.47449	27040755.80378536
1.47728	28376633.498665754
1.48007	26103368.364564724
1.48286	28598679.205921743
1.48564	32458618.028450098
1.48842	30256169.208330456
1.4912	31133934.680585198
1.49398	33480069.02005875
1.49676	35358035.17872746
1.49953	43329961.11079712
1.5023	48377392.54830724
1.50507	50593454.632667825
1.50784	47299400.32653758
1.51061	46348870.888192385
1.51337	53844233.372892424
1.51613	59264000.3986717
1.51888	60302522.14854225
1.52164	74225054.16875993
1.52439	79719132.90317948
1.52714	72254997.31017688
1.52989	72962469.8175345
1.53263	81524206.0820694
1.53538	88242867.20988731
1.53812	85822343.5722127
1.54086	86224082.17587262
1.54359	90103269.5147009
1.54632	100049443.75998229
1.54905	104366601.48911762
1.55178	102962097.8411397
1.5545	104642792.17229703
1.55723	105663686.84204389
1.55995	110904720.32422097
1.56266	118381241.64563182
1.56538	123135826.83499332
1.56809	130226541.26741375
1.5708	133780832.32189783
1.57351	132843663.934206
1.57621	137448952.94805
1.57891	138995849.12044105
1.58161	143851394.6856277
1.5843	152262995.6579005
1.587	157911731.09230947
1.58969	157405085.81149524
1.59238	156791987.32802555
1.59506	159416034.45063356
1.59774	160035693.03791687
1.60042	162584836.4013567
1.6031	162638637.85935363
1.60577	160122348.85614026
1.60844	161730762.3947177
1.61111	164500682.00735557
1.61378	164594334.67127088
1.61644	162878893.86619377
1.6191	159035805.6819092
1.62176	157949726.88306677
1.62441	159317402.00974965
1.62707	159381181.8982226
1.62971	155727745.1909051
1.63236	152782807.00168616
1.635	162380438.40716568
1.63764	173438235.56864947
1.64028	175646321.33473456
1.64292	169858509.0042647
1.64555	160208347.0758717
1.64818	155504982.29105085
1.65081	158742943.48483488
1.65343	165235941.5729961
1.65605	167056922.41369018
1.65867	164902607.9870645
1.66128	160226522.33156687
1.6639	146969531.0886331
1.66651	117965222.09876315
1.66911	109112398.61314921
1.67172	131084530.72977853
1.67432	148008113.0116057
1.67692	149310515.75209972
1.67951	145835349.25593525
1.68211	146158949.88968858
1.6847	141931998.60015222
1.68728	131013445.73118684
1.68987	123170726.75844496
1.69245	113709735.61638886
1.69503	100887324.23864278
1.6976	98180829.26055725
1.70018	103162577.20469898
1.70275	101461371.60415682
1.70531	102349297.26336052
1.70788	104454958.52133854
1.71044	100745382.91154374
1.713	100093266.33765876
1.71556	98088855.33159107
1.71811	94749297.51639365
1.72066	92863558.46590249
1.72321	87824898.45445295
1.72575	82736134.29636228
1.7283	78380423.54491627
1.73084	72602546.95712222
1.73337	67279977.7165242
1.73591	64061622.526550315
1.73844	59382530.87024374
1.74097	54017921.62760288
1.74349	49569613.31547844
1.74602	47593670.36047894
1.74854	47320724.21497271
1.75105	43345035.12989657
1.75357	34080811.06227666
1.75608	28557347.61631602
1.75859	29591962.063150316
1.7611	31880474.893562533
1.7636	33241046.913542204
1.7661	29502985.259444695
1.7686	23981293.662575983
1.7711	22445466.57973903
1.77359	20203263.272989806
1.77608	15977281.647348473
1.77857	13804888.515483595
1.78105	14032152.995239789
1.78354	14015175.892020557
1.78602	11961343.487684917
1.78849	10124757.48530542
1.79097	9609255.432775853
1.79344	9316380.019742955
1.79591	9650619.786384158
1.79837	10392964.719422678
1.80084	7821670.510601178
1.8033	5737014.542091436
1.80576	4940032.519385511
1.80821	4615485.4713638965
1.81067	4209958.719099137
1.81312	3853358.290620067
1.81557	3853362.692484434
1.81801	4035845.314294108
1.82046	4006479.39326453
1.8229	4152384.813704118
1.82533	4009643.3198498287
1.82777	3860486.6559185833
1.8302	4217791.015201698
1.83263	4709861.738455774
1.83506	4588418.505340735
1.83749	4567290.752547499
1.83991	6648524.8986574225
1.84233	9441770.380009782
1.84475	10763694.400301198
1.84716	9862265.773546392
1.84957	7655484.295712976
1.85198	6008553.9199493965
1.85439	4855105.483292984
1.8568	5196065.958007222
1.8592	5740146.767879611
1.8616	4875658.332116218
1.864	4761850.511702763
1.86639	6408235.359319636
1.86878	7201223.2751291795
1.87118	6105415.38656562
1.87356	6301447.290625296
1.87595	8555606.33902838
1.87833	11528399.435166504
1.88071	13862756.928892989
1.88309	12832541.850426445
1.88547	11744431.412270676
1.88784	12719081.34700455
1.89021	12410694.792024285
1.89258	14838525.882495655
1.89494	18907951.89170898
1.89731	16435007.761638451
1.89967	10423215.869821193
1.90203	7100672.326321849
1.90439	8363600.34339649
1.90674	12362081.061396204
1.90909	13325994.049126193
1.91144	9862935.558013158
1.91379	6395185.848641156
1.91613	5339776.988831275
1.91848	4782695.113336218
1.92082	3728706.814145537
1.92315	3416588.5335723157
1.92549	4113495.8051182465
1.92782	4543852.670329851
1.93015	4799213.101707219
1.93248	5542651.409423773
1.93481	6597157.202481766
1.93713	7348602.023005456
1.93945	7617107.437258333
1.94177	8065232.937829865
1.94409	7996389.041895033
1.94641	7143067.937658872
1.94872	7586988.153063672
1.95103	8585552.95013821
1.95334	6781522.983379815
1.95564	5341921.898030826
1.95795	5654740.46524659
1.96025	6436732.278237963
1.96255	7611842.926759569
1.96484	9778222.562396558
1.96714	12957913.156686064
1.96943	15597084.364222733
1.97172	15516993.369259182
1.97401	13359907.899015076
1.97629	13304153.144756787
1.97858	14075474.937012527
1.98086	15159999.782861484
1.98314	18449591.746277764
1.98541	21548668.604983933
1.98769	21425906.30061845
1.98996	18622384.5345782
1.99223	18254102.592590082
1.9945	20718854.080281213
1.99677	20888517.735948525
1.99903	20682815.27358192
2.00129	22528175.413670983
2.00355	25740576.809075832
2.00581	27886056.31729854
2.00806	27588893.463742804
2.01031	28441548.312605605
2.01256	30294481.756433688
2.01481	30015614.10380173
2.01706	29387551.17045819
2.0193	30972765.89089502
2.02154	35380131.18303283
2.02378	39435777.356581055
2.02602	39082117.63609374
2.02825	37695063.92820442
2.03049	37560239.68230696
2.03272	38994615.0683801
2.03494	40983107.8014446
2.03717	41949965.18252345
2.03939	42356013.48714734
2.04162	43227158.20899087
2.04384	45698030.039667904
2.04605	49700254.811061665
2.04827	53277683.93980376
2.05048	52708143.583696246
2.05269	50192162.200425826
2.0549	52225105.7879765
2.05711	56209180.472215764
2.05931	59152355.16170308
2.06151	59205284.742085986
2.06371	58095794.774363875
2.06591	60226353.278730676
2.06811	63282772.5287786
2.0703	65119799.05306404
2.07249	64702469.694583595
2.07468	62537125.013190344
2.07686	62010949.77141923
2.07905	62777793.78286907
2.08123	63748761.851917386
2.08341	64405440.74727587
2.08559	64873311.81633033
2.08776	65695731.397870116
2.08994	66877356.721692786
2.09211	67850978.74092914
2.09428	68456297.43590958
2.09645	69126440.32881147
2.09861	69184601.07896738
2.10077	68737611.96267793
2.10293	67815962.27095853
2.10509	66577098.068025194
2.10725	65815082.41862672
2.1094	66921379.11122478
2.11155	68480814.84502825
2.1137	69683993.27954829
2.11585	69664331.27981178
2.11799	69402192.72640775
2.12013	69637450.55549163
2.12227	70115639.94018492
2.12441	70536989.82267751
2.12655	70244303.60843328
2.12868	69860585.1255216
2.13081	69657991.98618868
2.13294	69587243.03563905
2.13507	68929164.43255043
2.13719	67690682.39441624
2.13931	66547740.42665423
2.14143	65614749.53597425
2.14355	64754661.85141008
2.14567	64442797.02729034
2.14778	64014254.497874334
2.14989	63326119.464193776
2.152	62289431.229755774
2.1541	62457635.47823152
2.15621	62723669.35478356
2.15831	62699880.06828159
2.16041	61718743.19553047
2.16251	61133416.293031015
2.1646	60529795.538171075
2.1667	59798290.54117354
2.16879	58900984.35607818
2.17087	57622471.19141344
2.17296	56187260.02189992
2.17504	54714076.75554616
2.17713	53490386.63537682
2.1792	52523758.72500846
2.18128	51636521.035784535
2.18336	50671199.93002949
2.18543	49383474.96758887
2.1875	47990620.164248526
2.18957	46355943.32138499
2.19163	43814453.54635149
2.1937	40352927.60839249
2.19576	36596690.34392875
2.19782	32775559.10387643
2.19987	29370731.076547258
2.20193	26180664.923609518
2.20398	23484941.770595208
2.20603	22317095.542407762
2.20808	23396332.152579427
2.21012	25393724.97718631
2.21217	27826134.73132942
2.21421	29210841.096428808
2.21625	29779217.952379726
2.21828	29599894.358806487
2.22032	29151479.92730971
2.22235	28805626.98897989
2.22438	28312594.88967397
2.22641	27092634.68024318
2.22843	25962764.125586547
2.23046	25016898.290886015
2.23248	24402401.413117446
2.2345	23767677.58565513
2.23651	23161916.09948702
2.23853	22589635.746611122
2.24054	21662723.370969053
2.24255	20547572.175663225
2.24456	19332992.456649244
2.24657	19185060.108285587
2.24857	19569275.1707449
2.25057	20219481.172295317
2.25257	20167695.891155325
2.25457	19982491.605859496
2.25656	19754458.618383367
2.25856	19673460.23252956
2.26055	19059700.132505067
2.26254	18175517.272977255
2.26453	17195165.701288186
2.26651	17056257.415327646
2.2685	17394586.844059166
2.27048	18195463.455752436
2.27246	18979928.662923083
2.27443	19544381.765476134
2.27641	19260198.13174601
2.27838	18517071.155846506
2.28036	17584655.320985958
2.28233	16782009.022574116
2.28429	16175273.892193725
2.28626	15657476.428915339
2.28823	15088607.994587371
2.29019	14527515.084642842
2.29215	13989716.169339862
2.29411	13679148.638840528
2.29607	13481995.114268953
2.29802	13381578.71813725
2.29998	13646756.073594164
2.30193	14118953.901296094
2.30388	14829292.778067768
2.30583	15783440.178361606
2.30778	16750981.289066594
2.30972	17699285.5484938
2.31167	17682710.86235965
2.31361	16905112.384567585
2.31555	14543829.735576175
2.31749	12210010.933866503
2.31943	10127197.242758455
2.32137	9735230.932632484
2.32331	9601977.590967173
2.32524	9674361.382339694
2.32718	9526227.149834968
2.32911	9375994.255151173
2.33104	9226611.886769656
2.33297	9205480.668739373
2.3349	9245451.745179396
2.33683	9390038.09707626
2.33876	9468258.46360613
2.34068	9502403.582401391
2.34261	9395606.557518061
2.34453	9409966.046645375
2.34646	9561795.801530672
2.34838	10077936.913482271
2.3503	10713999.284902103
2.35223	11536767.309444869
2.35415	12249125.354154693
2.35607	12910465.56751611
2.35799	13584126.30875154
2.35991	14308817.706416264
2.36183	15095097.827357497
2.36375	14913877.184448386
2.36566	14168177.615481738
2.36758	12078945.650617506
2.3695	10074256.489995737
2.37142	8123761.434657907
2.37334	8071177.883462687
2.37526	8234129.269339253
2.37718	8739744.367925918
2.3791	9009548.353694938
2.38101	9212609.310988538
2.38293	9511133.507030988
2.38485	10004248.598692806
2.38677	10696051.236407949
2.3887	11273041.838257127
2.39062	11748675.059284696
2.39254	11974915.102813387
2.39446	12202630.419304578
2.39639	12432482.36632283
2.39831	12755468.5063228
2.40024	12920061.191237394
2.40216	12780548.80650873
2.40409	12628083.928866228
2.40602	12522172.4582991
2.40795	13027997.638015836
2.40989	13573012.950014649
2.41182	14159963.076291671
2.41376	14223227.033216232
2.4157	14115144.115691274
2.41764	13781766.166465955
2.41958	13616060.826776294
2.42152	13586687.421942722
2.42347	13663698.468724558
