#wavelength	surface flux
0.7	110424646.1628361
0.7001166666666666	111120418.0243429
0.7002333527777778	112367204.88536148
0.700350058336574	113614199.54418963
0.7004667833462966	114861402.0354593
0.7005835278101878	116108812.39381428
0.7007002917314895	117356430.65389365
0.7008170751134447	118604256.85034952
0.7009338779592968	119852291.01783755
0.7010507002722901	120633397.32476659
0.7011675420556689	120846160.52339622
0.701284403312678	121058959.18255863
0.7014012840465635	121271793.30816452
0.7015181842605713	121484662.90612464
0.701635103957948	121697567.98235093
0.701752043141941	121910508.54275657
0.701869001815798	122123484.5932559
0.7019859799827672	121607368.96933042
0.7021029776460976	120583735.87101273
0.7022199948090387	119559932.16717735
0.7023370314748403	118535957.82939179
0.7024540876467528	117511812.82921676
0.702571163328027	116487497.13821006
0.7026882585219152	115463010.72791879
0.7028053732316688	114438353.56989394
0.7029225074605406	114240883.5776581
0.7030396612117841	114362861.51876032
0.7031568344886527	114484859.7895194
0.7032740272944008	114606878.39332353
0.7033912396322832	114728917.33356169
0.7035084715055552	114850976.6136231
0.7036257229174727	114973056.2368979
0.7037429938712924	115095156.20677671
0.7038602843702709	116838411.26027423
0.7039775944176659	118856913.17029987
0.7040949240167356	120875751.49731134
0.7042122731707383	122894926.29737625
0.7043296418829335	124914437.62657562
0.7044470301565806	126934285.54099621
0.70456443799494	128954470.0967343
0.7046818654012724	130974991.34989958
0.7047993123788394	123675055.06836204
0.7049167789309024	116363206.10571454
0.7050342650607243	109050138.50156198
0.7051517707715678	101735852.05281216
0.7052692960666963	94420346.55632448
0.705386840949374	87103621.80892384
0.7055044054228656	79785677.60738671
0.7056219894904361	73534665.35797916
0.7057395931553511	74070601.04165308
0.705857216420877	74606626.04794139
0.7059748592902804	75142740.39173043
0.7060925217668288	75678944.08791064
0.70621020385379	76215237.15137345
0.7063279055544321	76751619.59701283
0.7064456268720246	77288091.4397273
0.7065633678098366	77827227.82836989
0.7066811283711383	78373546.03920923
0.7067989085592001	78919955.30308372
0.7069167083772933	79466455.63516851
0.7070345278286895	80013047.05064234
0.707152366916661	80559729.56468551
0.7072702256444803	81106503.1924804
0.7073881040154211	81653367.949214
0.7075060020327569	81980215.9502351
0.7076239196997625	81986564.86602585
0.7077418570197124	81992914.83996922
0.7078598139958823	81999265.87224159
0.7079777906315483	82005617.96301933
0.7080957869299869	82011971.11247887
0.7082138028944751	82018325.32079664
0.7083318385282908	82024680.58814915
0.7084498938347124	81761583.04015863
0.708567968817018	81269993.14194107
0.7086860634784875	80778321.31207325
0.7088041778224007	80286567.53690003
0.7089223118520377	79794731.80276494
0.7090404655706796	79302814.09600778
0.709158638981608	78810814.40296559
0.709276832088105	78318732.70997445
0.7093950448934531	78290261.70782988
0.7095132774009353	78482926.01360242
0.7096315296138355	78675622.43009269
0.7097498015354378	78868350.96265231
0.7098680931690269	79061111.61663385
0.7099864045178884	79253904.39739129
0.7101047355853081	79446729.31027882
0.7102230863745722	79639586.36065169
0.7103414568889679	79362466.80163181
0.7104598471317828	78978503.99409992
0.7105782571063047	78594477.19276707
0.7106966868158224	78210386.38696735
0.710815136263625	77826231.5660334
0.7109336054530023	77442012.71929571
0.7110520943872445	77057729.83608373
0.7111706030696424	76673382.90572429
0.7112891315034873	77063540.87226678
0.7114076796920712	77490720.78069773
0.7115262476386865	77917971.88578011
0.7116448353466263	78345294.1993797
0.711763442819184	78772687.73336512
0.711882070059654	79200152.49960656
0.7120007170713306	79627688.50997546
0.7121193838575091	80043089.65282986
0.7122380704214853	80331253.28538692
0.7123567767665555	80619464.94521579
0.7124755028960166	80907724.64032143
0.7125942488131658	81196032.37870938
0.7127130145213015	81484388.16838783
0.7128318000237216	81772792.01736368
0.7129506053237256	82061243.93364811
0.7130694304246129	82192123.39497854
0.7131882753296837	81771927.76897511
0.7133071400422386	81351662.11036725
0.7134260245655789	80931326.40748325
0.7135449289030065	80510920.64864863
0.7136638530578235	80090444.82218777
0.7137827970333332	79669898.91642188
0.7139017608328388	79249282.9196718
0.7140207444596443	79069653.15413794
0.7141397479170543	79320014.02551639
0.7142587712083737	79570416.62370639
0.7143778143369084	79820860.95566294
0.7144968773059646	80071347.02834153
0.7146159601188489	80321874.84869884
0.7147350627788687	80572444.42369288
0.7148541852893318	80823055.76028267
0.7149733276535467	81254773.16899188
0.7150924898748222	81869143.72729364
0.715211671956468	82483616.68068859
0.7153308739017941	83098192.04624291
0.715450095714111	83712869.84102453
0.71556933739673	84327650.08210537
0.7156885989529628	84942532.78655964
0.7158078803861218	85557517.97146559
0.7159271816995193	85735855.75599718
0.7160465028964692	85657878.32157736
0.7161658439802853	85579887.89091846
0.7162852049542819	85501884.46185447
0.7164045858217744	85423868.03221893
0.716523986586078	85345838.59984514
0.7166434072505089	85267796.16256599
0.716762847818384	85189740.71821395
0.7168823082930204	85514112.86496048
0.7170017886777359	85956935.38572644
0.7171212889758488	86399831.71024556
0.7172408091906781	86842801.85081892
0.7173603493255433	87285845.81974918
0.7174799093837642	87728963.62934066
0.7175994893686615	88172155.2919006
0.7177190892835562	88615420.81973745
0.7178387091317702	89335439.25777207
0.7179583489166254	90083351.53488797
0.7180780086414448	90831388.46405065
0.7181976883095517	91579550.06603481
0.7183173879242699	92327836.36161938
0.718437107488924	93076247.37158674
0.7185568470068389	93824783.1167227
0.7186766064813399	94560607.82541858
0.7187963859157535	94975632.07395087
0.7189161853134061	95390725.49319124
0.719036004677625	95805888.0946682
0.7191558440117378	96221119.8899118
0.7192757033190732	96636420.89045519
0.7193955826029597	97051791.10783151
0.7195154818667269	97467230.55357775
0.7196354011137046	97751420.03909591
0.7197553403472235	97431039.81869498
0.7198752995706147	97110606.2015908
0.7199952787872098	96790119.17888355
0.720115278000341	96469578.74167252
0.7202352972133411	96148984.88105525
0.7203553364295432	95828337.58812836
0.7204753956522815	95507636.85398553
0.7205954748848902	95226111.84601396
0.7207155741307044	95031025.58920324
0.7208356933930594	94835906.81801671
0.7209558326752915	94640755.52703494
0.7210759919807375	94445571.71083775
0.7211961713127342	94250355.36400479
0.7213163706746197	94055106.4811137
0.7214365900697322	93859825.05674234
0.7215568295014103	94267603.12930538
0.721677088972994	95395039.5718552
0.7217973684878227	96522663.92047691
0.7219176680492374	97650476.2064914
0.7220379876605789	98778476.46121952
0.722158327325189	99906664.71599053
0.7222786870464099	101035041.00213674
0.7223990668275843	102163605.35099778
0.7225194666720555	102674839.6136357
0.7226398865831676	102748508.48811893
0.7227603265642646	102822189.64074773
0.722880786618692	102895883.07356879
0.7230012667497951	102969588.78862861
0.7231217669609201	103043306.78797427
0.7232422872554135	103117037.0736531
0.7233628276366229	103190779.647713
0.7234833881078956	103075424.54728442
0.7236039686725803	102888252.46541865
0.7237245693340255	102701049.18820618
0.7238451900955812	102513814.71044716
0.7239658309605971	102326549.02694207
0.7240864919324239	102139252.13248949
0.7242071730144127	101951924.02188782
0.724327874209915	101764564.68993478
0.7244485955222832	102659032.83281496
0.7245693369548704	103732526.24991795
0.7246900985110294	104806198.58258888
0.7248108801941148	105880049.86065145
0.7249316820074803	106954080.11392343
0.7250525039544815	108028289.37223937
0.7251733460384739	109102677.66543187
0.7252942082628137	110175868.47236627
0.7254150906308574	110451620.91125102
0.7255359931459625	110727419.3088756
0.7256569158114868	111003263.67289987
0.7257778586307888	111279154.01098496
0.7258988216072273	111555090.33079296
0.7260198047441617	111831072.6399873
0.7261408080449525	112107100.94623366
0.72626183151296	112292835.68451716
0.7263828751515454	111878243.08528675
0.7265039389640706	111463581.38728988
0.726625022953898	111048850.57900976
0.7267461271243904	110634050.64892806
0.7268672514789111	110219181.58552495
0.7269883960208241	109804243.3772783
0.7271095607534942	109389236.01266333
0.7272307456802866	108954909.5022165
0.7273519508045666	108468511.76718314
0.7274731761297006	107982032.96586081
0.7275944216590555	107495473.0847383
0.7277156873959987	107008832.11030209
0.7278369733438982	106522110.02903602
0.727958279506122	106035306.82742436
0.7280796058860397	105548422.49194519
0.7282009524870207	105350617.42564724
0.7283223193124353	105580479.84881164
0.7284437063656539	105810380.58237942
0.7285651136500483	106040319.6327365
0.7286865411689898	106270297.00626819
0.7288079889258514	106500312.70936267
0.7289294569240056	106730366.74840714
0.7290509451668262	106960459.12979172
0.7291724536576875	107743966.31616342
0.7292939823999636	108986136.0507907
0.7294155313970303	110228512.81370956
0.7295371006522632	111471096.6394219
0.7296586901690385	112713887.56243755
0.7297802999507332	113956885.61727317
0.7299019300007252	115200090.83845446
0.7300235803223919	116443503.2605026
0.7301452509191123	117361885.75364654
0.7302669417942654	118130301.77171944
0.7303886529512311	118898845.85912892
0.7305103843933897	119667518.03721984
0.7306321361241218	120436318.32733983
0.7307539081468093	121205246.75084288
0.7308757004648336	121974303.32908155
0.7309975130815778	122743488.08341752
0.7311193460004248	123737512.15658979
0.7312411992247582	124782573.62964965
0.7313630727579622	125827809.27962147
0.7314849666034219	126873219.13553599
0.7316068807645224	127918803.22642586
0.7317288152446498	128964561.58133134
0.7318507700471907	130010494.22929654
0.7319727451755319	131056601.19936933
0.732094740633061	132450849.30874933
0.7322167564231665	133860995.36781947
0.7323387925492371	135271376.45123285
0.7324608490146619	136681992.59815973
0.732582925822831	138092843.8477781
0.7327050229771347	139503930.23926982
0.7328271404809642	140915251.81182823
0.7329492783377112	142218980.35704026
0.7330714365507675	142462860.4011597
0.7331936151235259	142706781.0919531
0.7333158140593796	142950742.4361947
0.7334380333617229	143194744.4406607
0.7335602730339499	143438787.11212754
0.7336825330794556	143682870.45737302
0.7338048135016354	143926994.48317558
0.7339271143038857	143638146.91356015
0.734049435489603	141563294.5666733
0.7341717770621846	139488096.4110616
0.7342941390250283	137412552.38909173
0.7344165213815324	135336662.44311896
0.734538924135096	133260426.5154855
0.7346613472891185	131183844.54853348
0.734783790847	129106916.48458624
0.7349062548121412	126714801.84596488
0.7350287391879431	123765795.22091992
0.7351512439778078	120816297.09476477
0.7352737691851374	117866307.38559212
0.735396314813335	114915826.01146534
0.7355188808658037	111964852.89044777
0.7356414673459482	109013387.94057065
0.7357640742571725	106061431.07987061
0.7358867016028818	104754144.77674554
0.7360093493864824	105071386.97240366
0.7361320176113801	105388682.04176062
0.736254706280982	105706029.99362916
0.7363774153986956	106023430.83682342
0.7365001449679286	106340884.58015755
0.7366228949920899	106658391.23244916
0.7367456654745885	106975950.80251616
0.7368684564188344	106382675.2371203
0.7369912678282374	105274486.05625856
0.7371140997062088	104166112.17719954
0.7372369520561599	103057553.56915963
0.7373598248815024	101948810.20135419
0.7374827181856494	100839882.0429856
0.7376056319720137	99730769.06325722
0.7377285662440091	98621471.23136535
0.7378515210050496	98655146.13900296
0.7379744962585505	99032768.01118568
0.738097492007927	99410452.82034701
0.7382205082565949	99788200.5769763
0.738343545007971	100166011.29156494
0.7384666022654723	100543884.97460641
0.7385896800325165	100921821.63659447
0.7387127783125219	101299821.28802668
0.7388358971089073	100852820.78503719
0.7389590364250921	100322989.89972013
0.7390821962644963	99793070.7092551
0.7392053766305403	99263063.19892578
0.7393285775266454	98732967.35401101
0.7394517989562333	98202783.15978827
0.7395750409227259	97672510.601534
0.7396983034295463	97277737.4717752
0.739821586480118	99899150.22464195
0.7399448900778645	102520999.87962896
0.7400682142262109	105143286.50956646
0.740191558928582	107766010.18727282
0.7403149241884034	110389170.98559006
0.7404383100091014	113012768.97737433
0.7405617163941028	115636804.2354889
0.7406851433468352	117349812.06740373
0.7408085908707264	114893373.29783648
0.7409320589692048	112436525.12180881
0.7410555476456997	109979267.47108315
0.7411790569036406	107521600.2774175
0.7413025867464579	105063523.4725522
0.7414261371775823	102605036.98821874
0.7415497082004452	100146140.75613979
0.7416732998184786	98371836.66453893
0.741796912035115	98066700.91904911
0.7419205448537874	97761514.31760177
0.7420441982779297	97456276.85172087
0.742167872310976	97150988.5129287
0.7422915669563612	96845649.29274674
0.7424152822175206	96540259.18269484
0.7425390180978901	96234818.17429145
0.7426627746009065	95508122.01207994
0.7427865517300065	94267826.5950803
0.7429103494886282	93027324.46217653
0.7430341678802096	91786615.57891823
0.7431580069081896	90545699.91084613
0.7432818665760077	89304577.42349426
0.7434057468871037	88063248.08239555
0.7435296478449182	86821711.85307401
0.7436535694528923	85918997.06061275
0.7437775117144678	85248207.12685822
0.7439014746330868	84577305.3947824
0.7440254582121922	83906291.84575066
0.7441494624552276	83235166.46112713
0.7442734873656368	82563929.22227299
0.7443975329468645	81892580.11054516
0.7445215992023557	81221119.10729879
0.7446456861355559	80432907.05407509
0.7447697937499119	79601596.87006575
0.7448939220488703	78770148.13435927
0.7450180710358784	77938560.82386424
0.7451422407143843	77106834.91548401
0.7452664310878367	76274970.3861183
0.7453906421596846	75442967.21266523
0.7455148739333779	74610825.37201633
0.7456391264123667	74615830.11496963
0.7457633996001021	74754712.9774552
0.7458876935000356	74893618.98708478
0.7460120081156189	75032548.14771567
0.7461363434503048	75171500.46320675
0.7462606995075466	75310475.93741721
0.7463850762907978	75449474.57420649
0.7465094738035127	75585845.79751563
0.7466338920491467	75028862.78767222
0.746758331031155	74471786.94732663
0.7468827907529935	73914618.2610083
0.7470072712181189	73357356.71324225
0.7471317724299886	72800002.28855145
0.7472562943920602	72242554.97145693
0.7473808371077922	71685014.74647573
0.7475054005806435	71135937.52741681
0.7476299848140736	70639469.96451023
0.7477545898115426	70142919.65700974
0.7478792155765113	69646286.59112453
0.7480038621124406	69149570.75306207
0.7481285294227926	68652772.12902671
0.7482532175110298	68155890.70522016
0.7483779263806148	67658926.46784367
0.7485026560350116	67197285.69812694
0.7486274064776842	66831393.79980417
0.748752177712097	66465440.91949901
0.7488769697417158	66099427.04704635
0.749001782570006	65733352.17228206
0.7491266162004343	65367216.28503875
0.7492514706364677	65001019.375147395
0.7493763458815739	64634761.43243736
0.7495012419392209	64197891.85880662
0.7496261588128773	63659524.59594414
0.7497510965060128	63121067.60520413
0.7498760550220971	62582520.87163253
0.7500010343646007	62043884.38027193
0.7501260345369949	61505158.116162494
0.750251055542751	60966342.06434298
0.7503760973853414	60427436.20984784
0.7505011600682389	59803081.97688526
0.750626243594917	59107351.23840685
0.7507513479688495	58411504.54480642
0.7508764731935109	57715541.87675682
0.7510016192723765	57019463.21492903
0.7511267862089218	56323268.53999159
0.7512519740066232	55626957.83260807
0.7513771826689577	54930531.07343959
0.7515024121994025	54343354.25397802
0.7516276626014359	53807072.151996136
0.751752933878536	53270700.66966486
0.7518782260341824	52734239.79208634
0.7520035390718548	52197689.504361324
0.7521288729950334	51661049.791588634
0.7522542278071992	51124320.63886377
0.7523796035118337	50587502.03127986
0.7525050001124189	50096251.32142436
0.7526304176124378	49614848.19277999
0.7527558560153731	49133364.830281466
0.752881315324709	48651801.220555395
0.7530067955439299	48170157.350227535
0.7531322966765205	47688433.20592192
0.7532578187259665	47206628.77425878
0.7533833616957542	46724744.04185704
0.75350892558937	46034738.03037332
0.7536345104103016	45334834.33712686
0.7537601161620366	44634813.99326521
0.7538857428480638	43934676.979345575
0.7540113904718717	43234423.275924526
0.7541370590369503	42534052.86355306
0.7542627485467898	41833565.722779095
0.7543884590048808	41135897.088876024
0.7545141904147151	40467382.869608
0.7546399427797842	39798757.23130451
0.7547657161035808	39130020.15539453
0.754891510389598	38461171.62330527
0.7550173256413296	37792211.61646039
0.7551431618622698	37123140.1162812
0.7552690190559135	36453957.104185455
0.7553948972257561	35776787.91927093
0.7555207963752938	35073073.66323058
0.755646716508023	34369242.1214813
0.755772657627441	33665293.274474815
0.7558986197370455	32961227.102660388
0.756024602840335	32257043.58648417
0.7561506069408084	31552742.706388604
0.7562766320419653	30848324.442812383
0.7564026781473054	30159323.997159373
0.75652874526033	29497546.562325396
0.7566548333845401	28835658.831251938
0.7567809425234375	28173660.78555687
0.7569070726805247	27511552.406854562
0.7570332238593047	26849333.676755898
0.7571593960632813	26187004.576868247
0.7572855892959586	25524565.08879725
0.7574118035608413	24894021.435722753
0.7575380388614347	24294685.442711674
0.7576642952012449	23695249.560368195
0.7577905725837782	23095713.772045195
0.7579168710125422	22496078.06108974
0.7580431904910444	21896342.410848897
0.7581695310227928	21296506.804667108
0.7582958926112967	20696571.225883532
0.7584222752600652	20116090.41632607
0.7585486789726085	19546746.322427787
0.7586751037524372	18977307.337846972
0.7588015496030628	18407773.446767617
0.7589280165279966	17838144.633374207
0.7590545045307512	17268420.881845232
0.7591810136148396	16698602.176357683
0.7593075437837755	16128688.501085047
0.7594340950410726	15619888.872719906
0.7595606673902461	15128763.423274182
0.7596872608348112	14637556.119586391
0.7598138753782836	14146266.948015194
0.75994051102418	13654895.894914944
0.7600671677760173	13163442.94663956
0.7601938456373134	12671908.089539086
0.7603205446115863	12180291.309962709
0.7604472647023548	11739367.223271154
0.7605740059131385	11303416.64129041
0.7607007682474575	10867393.400878908
0.7608275517088319	10431297.489928309
0.7609543563007835	9995128.896324914
0.7610811820268336	9558887.607956184
0.7612080288905045	9122573.612706896
0.7613348968953197	8689025.53098736
0.7614617860448022	8313647.662942878
0.7615886963424764	7938207.231919876
0.7617156277918667	7562704.227492068
0.7618425803964988	7187138.639229879
0.7619695541598982	6811510.456703079
0.7620965490855914	6435819.669479469
0.7622235651771058	6060066.267124219
0.7623506024379685	5700871.17854172
0.7624776608717082	5414467.615557374
0.7626047404818536	5128016.318645853
0.7627318412719337	4841517.279852005
0.762858963245479	4554970.491218177
0.7629861064060198	4268375.944786218
0.7631132707570876	3981733.6325962227
0.7632404563022137	3695043.5466877865
0.7633676630449308	3430609.1417261623
0.7634948909887717	3213607.3311150633
0.7636221401372697	2996569.353535812
0.7637494104939593	2779495.2029600926
0.7638767020623748	2562384.8733595903
0.7640040148460518	2345238.3587039076
0.7641313488485262	2128055.6529624565
0.7642587040733344	1910836.750103136
0.7643860805240132	1723055.527616193
0.7645134782041005	1570414.1867076994
0.7646408971171346	1417747.4055756577
0.764768337266654	1265055.1799801495
0.7648957986561985	1112337.5056803264
0.7650232812893079	959594.3784348068
0.7651507851695227	806825.7940014115
0.7652783103003843	654031.7481372962
0.7654058566854343	550448.6293653088
