#wavelength	surface flux
0.8	50626804.36825858
0.8002000000000001	51312980.99266007
0.8004000500000003	52101255.9068867
0.8006001500125003	52890757.450329795
0.8008003000500035	53680456.369158804
0.8010005001250161	54470352.71271789
0.8012007502500472	55260446.53036173
0.8014010504376099	56072072.05441552
0.8016014007002193	56891046.78435636
0.8018018010503944	57710226.25797968
0.8020022515006572	58529610.526471786
0.8022027520635323	59349199.6410303
0.8024033027515483	60163164.25546172
0.8026039035772362	60971619.77877751
0.8028045545531306	61780277.41597417
0.8030052556917691	62589137.21758051
0.803206007005692	63398199.23413655
0.8034068085074435	64206476.25115698
0.8036076602095705	65012187.88870818
0.8038085621246229	65818100.95416813
0.8040095142651542	66624215.49789495
0.8042105166437206	67430531.57025743
0.8044115692728815	68236083.8978676
0.8046126721651998	69000317.33742791
0.8048138253332411	69764741.83534752
0.8050150287895745	70529357.4393923
0.805216282546772	71294164.19733788
0.8054175866174087	72059162.15697256
0.8056189410140631	72904653.83247945
0.8058203457493168	73773087.68718909
0.8060218008357541	74641738.65036127
0.8062233062859632	75510606.7762747
0.8064248621125346	76379692.119219
0.806626468328063	77299068.79718095
0.8068281249451449	78261682.88234319
0.8070298319763813	79224537.6210279
0.8072315894343755	80187633.07339658
0.8074333973317341	81150969.29962869
0.8076352556810671	82120975.99732256
0.8078371644949874	83106702.40755703
0.8080391237861113	84092675.24939428
0.8082411335670578	85078894.58444138
0.8084431938504498	86065360.47432327
0.8086453046489125	87054218.94276465
0.8088474659750746	88083278.59522235
0.8090496778415686	89112595.51259454
0.809251940261029	90142169.75919533
0.8094542532460944	91172001.39935865
0.8096566168094059	92202090.49743082
0.8098590309636085	93160815.5976783
0.8100614957213493	94103016.77761053
0.8102640110952797	95045453.50783785
0.8104665770980536	95988125.84724809
0.8106691937423283	96931033.85474356
0.8108718610407639	97841138.73035681
0.8110745790060241	98726208.05088913
0.8112773476507757	99611498.63875237
0.8114801669876885	100497010.54926234
0.8116830370294355	101382743.83774942
0.8118859577886929	102316312.98713998
0.8120889292781401	103349012.77698003
0.8122919515104597	104381970.74176745
0.8124950244983374	105415186.94604613
0.8126981482544621	106448661.45437573
0.8129013227915257	107487387.57622834
0.8131045481222237	108583546.79706189
0.8133078242592543	109679980.05770075
0.8135111512153191	110776687.4266545
0.813714529003123	111873668.97245061
0.8139179576353739	112970924.76363336
0.8141214371247829	113907634.4061665
0.8143249674840641	114813392.43344057
0.814528548725935	115719376.9002209
0.8147321808631167	116625587.86311917
0.8149358639083326	117532025.37875788
0.8151395978743097	118066930.16108082
0.8153433827737784	118350792.45999889
0.8155472186194719	118634725.7244916
0.8157511054241268	118918729.97230037
0.815955043200483	119202805.22117129
0.8161590319612831	118591236.90514626
0.8163630717192736	116338227.90550715
0.8165671624872033	114084655.65362063
0.8167713042778252	111830520.00866893
0.8169754971038948	109575820.82980487
0.8171797409781707	106820065.21030712
0.8173840359134155	100068031.89490454
0.8175883819223938	93314310.57118088
0.8177927790178745	86558900.81712243
0.8179972272126291	79801802.21062371
0.8182017265194322	73043014.32948017
0.8184062769510622	70982104.53030172
0.8186108785203001	69643873.42775676
0.8188155312399301	68305307.76743796
0.8190202351227402	66966407.4657026
0.819224990181521	65627172.43889265
0.8194297964290664	70214374.78381206
0.8196346538781738	78375075.34815729
0.8198395625416434	86537816.08764037
0.8200445224322789	94702597.51231179
0.820249533562887	102869420.13233693
0.8204545959462778	109463905.5320784
0.8206597095952644	113526119.17451563
0.8208648745226633	117589348.37036663
0.8210700907412941	121653593.37351593
0.8212753582639793	125718854.4379119
0.8214806771035456	129494161.91377123
0.8216860472728215	131477684.10722774
0.8218914687846397	133461702.18123272
0.822096941651836	135446216.25975722
0.822302465887249	137431226.4668002
0.8225080415037209	139416732.926396
0.8227136685140968	141088329.32846972
0.8229193469312254	142724651.92830837
0.8231250767679583	144361383.60879755
0.8233308580371503	145998524.47220597
0.8235366907516598	147636074.62083143
0.8237425749243477	149442102.77735716
0.8239485105680789	151337661.7642654
0.824154497695721	153233694.64091912
0.824360536320145	155130201.5257924
0.8245666264542252	157027182.53738678
0.8247727681108388	158428140.574636
0.8249789613028664	159118371.3858187
0.8251852060431922	159808774.7547047
0.825391502344703	160499350.72443268
0.8255978502202894	161190099.33815372
0.8258042496828445	161699066.100461
0.8260107007452654	161324485.0739572
0.8262172034204517	160949810.40219718
0.8264237577213068	160575042.06176913
0.8266303636607373	160200180.02925578
0.8268370212516525	159825224.2812345
0.8270437305069654	160164011.0665331
0.8272504914395923	160558664.21387824
0.8274573040624523	160953416.02451032
0.8276641683884679	161348266.5230947
0.8278710844305652	161743215.73430422
0.8280780522016729	162168628.62105995
0.8282850717147234	162608027.61807814
0.8284921429826521	163047536.46484515
0.8286992660183978	163487155.18882415
0.8289064408349024	163926883.81748387
0.8291136674451112	164356765.32724372
0.8293209458619727	164774198.9649396
0.8295282760984382	165191736.96104434
0.829735658167463	165609379.3416486
0.8299430920820048	166027126.1328475
0.8301505778550254	166544596.93528795
0.8303581154994891	167459807.99980888
0.8305657050283641	168375247.86709684
0.8307733464546212	169290916.59435093
0.8309810397912352	170206814.23878834
0.8311887850511829	171122940.85763502
0.8313965822474458	172437408.87974718
0.8316044313930077	173770684.01994473
0.8318123325008561	175104292.47892854
0.8320202855839813	176438234.34002647
0.8322282906553774	177772509.68658978
0.8324363477280413	178869848.61389711
0.8326444568149735	179871937.81578678
0.8328526179291771	180874277.53997573
0.8330608310836596	181876867.84909728
0.8332690962914304	182879708.80579475
0.8334774135655034	183566289.0912037
0.833685782918895	183899487.4145146
0.8338942043646247	184232769.03740612
0.834102677915716	184566133.9807036
0.834311203585195	184899582.26523662
0.8345197813860912	185291861.97240564
0.8347284113314379	185881991.21524975
0.8349370934342709	186472267.99040422
0.8351458277076294	187062692.33475178
0.8353546141645565	187653264.2851864
0.8355634528180977	188243983.87860838
0.8357723436813022	189135366.5728151
0.8359812867672226	190030682.71242723
0.8361902820889144	190926222.68107384
0.8363993296594368	191821986.53471285
0.8366084294918518	192717974.3293156
0.8368175815992247	193163912.75734442
0.8370267859946247	193454883.89875734
0.8372360426911234	193745927.7829555
0.8374453517017962	194037044.4281247
0.8376547130397217	194328233.85245514
0.8378641267179816	195062656.26108572
0.8380735927496613	196236992.3806399
0.8382831111478488	197411622.0842233
0.8384926819256358	198586545.44523194
0.8387023050961173	199761762.53708184
0.8389119806723914	200685176.94348076
0.8391217086675596	200899340.30628392
0.8393314890947265	201113557.20992765
0.8395413219670003	201327827.6677973
0.8397512072974922	201542151.6932816
0.8399611450993165	201769933.18066496
0.8401711353855914	202663403.54828143
0.8403811781694378	203557097.28348958
0.8405912734639802	204451014.44213176
0.8408014212823464	205345155.080064
0.8410116216376671	206239519.25315562
0.8412218745430766	205826569.04054388
0.8414321800117124	205033072.49529603
0.8416425380567154	204239377.57591152
0.8418529486912297	203445484.23279694
0.8420634119284025	202651392.41634727
0.8422739277813847	203032356.4335394
0.8424844962633302	204448860.38415134
0.842695117387396	205865718.46074915
0.8429057911667428	207282930.75186616
0.8431165176145345	208700497.34605664
0.8433272967439382	208242193.859434
0.8435381285681244	203207144.03127575
0.8437490131002665	198170835.44066155
0.8439599503535415	193133267.77290288
0.84417094034113	188094440.71322358
0.8443819830762154	183215426.04826072
0.8445930785719846	181580002.883552
0.8448042268416277	179944170.863053
0.8450154278983382	178307929.88454908
0.8452266817553128	176671279.8458007
0.8454379884257517	175034220.6445424
0.8456493479228583	175175332.7798276
0.845860760259839	175744783.77772772
0.846072225449904	176314377.13837728
0.8462837435062666	176884112.89736715
0.8464953144421433	177453991.0902971
0.8467069382707537	178260855.81597546
0.8469186150053215	179252534.93119812
0.847130344659073	180244461.96619985
0.8473421272452377	181236636.9829594
0.8475539627770492	182229060.04347408
0.8477658512677435	183238897.74380502
0.8479777927305605	184285438.77809456
0.8481897871787432	185332241.44764245
0.848401834625538	186379305.81785828
0.8486139350841944	187426631.95416602
0.8488260885679657	188391306.0003015
0.8490382950901076	188345529.94390818
0.8492505546638802	188299742.44350073
0.8494628673025462	188253943.4962182
0.8496752330193721	188208133.0991988
0.8498876518276269	188162311.24958017
0.8501001237405839	183824674.20259944
0.8503126487715191	178629233.34321624
0.850525226933712	173432493.6236211
0.8507378582404455	168234454.7190961
0.8509505427050057	163035116.30484197
0.8511632803406821	157995090.55839562
0.8513760711607672	153063794.95882726
0.8515889151785576	148131266.53535134
0.8518018124073523	143197504.97977367
0.8520147628604541	138262509.98381004
0.8522277665511693	136824976.4303872
0.8524408234928071	141857497.338084
0.8526539336986805	146891276.37600908
0.8528670971821053	151926313.858694
0.8530803139564007	156962610.1007436
0.8532935840348901	162265772.04393148
0.8535069074308987	169813443.4684307
0.8537202841577566	177363001.81079242
0.8539337142287962	184914447.54274055
0.8541471976573534	192467781.13611695
0.8543607344567677	200023003.0628931
0.8545743246403821	202151648.67615396
0.8547879682215422	203418724.1456644
0.8550016652135977	204686116.38404205
0.8552154156299011	205953825.4704794
0.8554292194838088	207221851.48418924
0.8556430767886797	207838401.6224509
0.855856987557877	208059354.4751963
0.8560709518047664	208280362.56615478
0.8562849695427177	208501425.9091361
0.8564990407851035	208722544.5179532
0.8567131655452999	208712149.66563952
0.8569273438366862	208322319.1047293
0.8571415756726455	207932391.08617875
0.8573558610665638	207542365.5856234
0.8575702000318304	207152242.5786934
0.8577845925818384	207085241.1099012
0.857999038729984	209037168.26994243
0.8582135384896665	210989583.41177323
0.858428091874289	212942486.65738958
0.8586426988972576	214895878.12881684
0.8588573595719821	216849757.9481126
0.8590720739118751	216723558.37243646
0.8592868419303532	216352022.07887644
0.8595016636408359	215980392.90124306
0.8597165390567462	215608670.81631535
0.8599314681915105	215236855.80086634
0.8601464510585584	212373256.2574111
0.860361487671323	208186368.3201074
0.8605765780432408	203998433.6608206
0.8607917221877518	199809452.01786554
0.8610069201182988	195619423.12950087
0.8612221718483286	186951545.21826258
0.8614374773912907	171827585.10671574
0.8616528367606385	156699844.0051451
0.8618682499698288	141568320.9682895
0.8620837170323213	126433015.0506772
0.8622992379615795	113777863.68214406
0.8625148127710699	113411607.9034672
0.8627304414742627	113045260.56084563
0.8629461240846313	112678821.63138835
0.8631618606156526	112312291.09219867
0.8633776510808066	111945668.92037426
0.8635934954935769	117195672.57741258
0.8638093938674504	122907401.2261583
0.8640253462159173	128620557.80706604
0.8642413525524714	134335142.67711887
0.8644574128906095	140051156.19338802
0.8646735272438323	143925112.89023852
0.8648896956256433	146942766.08809367
0.8651059180495498	149961173.69924843
0.8653221945290621	152980335.91230312
0.8655385250776946	156000252.9159153
0.8657549097089641	159322918.2205415
0.8659713484363913	163033032.02914605
0.8661878412735006	166744073.36620447
0.866404388233819	170456042.46359664
0.8666209893308775	174168939.55326146
0.8668376445782103	177151648.67835987
0.8670543539893549	177151047.1699215
0.8672711175778525	177150445.51110598
0.8674879353572469	177149843.7018758
0.8677048073410862	177149241.7421933
0.8679217335429217	177148639.6320209
0.8681387139763074	176433957.90888023
0.8683557486548015	175683623.86689246
0.8685728375919655	174933102.24139327
0.8687899808013633	174182392.98548934
0.8690071782965637	173431496.05227047
0.869224430091138	171446396.45455593
0.8694417361986609	168958681.46272287
0.8696590966327107	166470344.5421424
0.869876511406869	163981385.5373316
0.8700939805347206	161491804.29277086
0.8703115040298544	159630312.26875958
0.870529081905862	158487154.12816763
0.8707467141763385	157343710.1980409
0.8709644008548827	156199980.4069317
0.8711821419550964	155055964.68337545
0.8713999374905854	154374571.36213362
0.871617787474958	155290665.21371895
0.8718356919218269	156206988.08876798
0.8720536508448075	157123540.04453585
0.8722716642575187	158040321.13829213
0.8724897321735832	158957331.42732227
0.8727078546066265	161351158.03547147
0.8729260315702784	163768046.83333793
0.873144263078171	166185539.85340127
0.8733625491439405	168603637.24671987
0.8735808897812266	171022339.16438773
0.8737992850036719	171464033.89741105
0.874017734824923	171205401.45068198
0.8742362392586293	170946704.34584135
0.874454798318444	170687942.56672454
0.8746734120180236	170429116.09716296
0.8748920803710283	170672165.21821168
0.875110803391121	171419677.27200577
0.8753295810919689	172167376.20381367
0.875548413487242	172915262.06035456
0.8757673005906139	173663334.8883596
0.8759862424157616	175800973.78587025
0.8762052389763657	181959380.94660687
0.8764242902861098	188119327.7091294
0.8766433963586814	194280814.45834422
0.8768625572077712	200443841.57924822
0.8770817728470732	206559501.11046317
0.8773010432902849	208858049.27155274
0.8775203685511077	211157172.0696859
0.8777397486432454	213456869.64851573
0.8779591835804065	215757142.15174305
0.8781786733763015	218057989.72309312
0.8783982180446457	215112346.71154127
0.878617817599157	210605063.29045805
0.8788374720535569	206096653.04852173
0.8790571814215703	201587115.704026
0.8792769457169257	197076450.9751941
0.879496764953355	195008653.0660207
0.8797166391445934	195137649.77458528
0.8799365683043796	195266678.73232698
0.8801565524464557	195395739.94730815
0.8803765915845676	195524833.42759317
0.8805966857324639	196383073.49863517
0.880816834903897	199072844.7154505
0.881037039112623	201763288.37507108
0.8812572983724012	204454404.6456063
0.8814776126969944	207146193.69521037
0.8816979821001687	209745365.66040066
0.8819184065956938	210149124.37046748
0.8821388861973429	210552984.02021223
0.8823594209188923	210956944.63486904
0.882580010774122	211361006.23967934
0.8828006557768155	211765168.85989103
0.8830213559407598	217142710.516138
0.8832421112797452	223772426.45597497
0.8834629218075651	230403799.82479292
0.8836837875380171	237036831.03695506
0.8839047084849018	243671520.5069213
0.884125684662023	242674081.3075837
0.8843467160831886	235558887.14093697
0.8845678027622095	228441914.1757486
0.8847889447129001	221323161.96731758
0.8850101419490785	214202630.07083574
0.8852313944845657	210373121.7486847
0.885452702333187	213750199.50015923
0.8856740655087704	217128121.52107117
0.8858954840251476	220506888.0224874
0.8861169578961539	223886499.21552742
0.886338487135628	226572246.12747747
0.886560071757412	220013886.7403517
0.8867817117753515	213453887.76337934
0.8870034072032955	206892248.78665975
0.8872251580550963	200328969.40020368
0.8874469643446101	193764049.19389695
0.8876688260856963	193706490.66543254
0.8878907432922178	194996039.3168675
0.8881127159780409	196285910.35546446
0.8883347441570356	197576103.86182266
0.8885568278430749	198866619.9165561
0.8887789670500358	198652820.80164713
0.8890011617917983	197371617.83789384
0.8892234120822464	196090094.57339904
0.8894457179352669	194808250.92808917
0.8896680793647509	193526086.82186693
0.8898904963845921	193241612.23825243
0.8901129690086883	194861296.00791883
0.8903354972509405	196481384.69852728
0.8905580811252535	198101878.4113096
0.8907807206455347	199722777.24751797
0.8910034158256963	201372801.07438403
0.8912261666796527	203279904.9177462
0.8914489732213227	205187485.53706974
0.8916718354646282	207095543.05155
0.8918947534234944	209004077.58040702
0.8921177271118502	210913089.24289507
0.8923407565436284	209417099.18087646
0.8925638417327644	207365208.90079182
0.8927869826931977	205312805.64813647
0.8930101794388711	203259889.2946681
0.8932334319837308	201206459.7121117
0.8934567403417267	199819272.82582211
0.8936801045268123	198846049.54294434
0.8939035245529441	197872582.95424652
0.8941270004340824	196898872.99890116
0.894350532184191	195924919.6160672
0.8945741198172371	198426750.13069192
0.8947977633471915	206693782.88882327
0.8950214627880284	214962882.40514383
0.8952452181537254	223234049.19633853
0.8954690294582639	231507283.77923602
0.8956928967156286	239471812.649499
0.8959168199398075	245421519.96038604
0.8961407991447926	251372714.6981023
0.8963648343445789	257325397.23450285
0.896588925553165	263279567.94153413
0.8968130727845534	269235227.19124293
0.8970372760527496	270934287.3788131
0.8972615353717629	272100999.7754874
0.8974858507556059	273268003.8502611
0.8977102222182949	274435299.6760531
0.8979346497738496	275602887.3258022
0.8981591334362931	276784735.35501564
0.8983836732196523	277974517.880897
0.8986082691379572	279164597.85240906
0.8988329212052417	280354975.343914
0.8990576294355432	281545650.4297928
0.8992823938429022	282337879.1197072
0.8995072144413631	282537424.1151411
0.8997320912449734	282737018.9968237
0.8999570242677847	282936663.77722675
0.9001820135238516	283136358.46882486
0.9004070590272328	284094865.18904847
0.9006321607919896	289031301.3518128
0.9008573188321878	293968971.62362283
0.9010825331618959	298907876.3129985
0.9013078037951865	303848015.7285472
0.9015331307461353	308789390.17894727
0.9017585140288219	311376446.5839269
0.9019839536573292	313761259.83402294
0.9022094496457435	316146669.2874297
0.9024350020081551	318532675.09320253
0.9026606107586572	320919277.4004261
0.902886275911347	322979137.89788073
0.9031119974803249	324881713.437709
0.9033377754796951	326784764.62142223
0.903563609923565	328688291.5679305
0.903789500826046	330592294.39617676
0.9040154482012526	331119311.2191779
0.904241452063303	329862078.04035884
0.9044675124263188	328604530.55324537
0.9046936293044254	327346668.6792603
0.9049198027117517	326088492.33980614
0.9051460326624297	324234628.38609976
0.9053723191705955	319845063.92844105
0.9055986622503881	315454402.07967204
0.9058250619159507	311062642.56544065
0.9060515181814298	306669785.111328
0.9062780310609752	302275829.4428548
0.9065046005687405	306872654.9152996
0.906731226718883	311972259.97401357
0.9069579095255627	317073139.9339856
0.907184649002944	322175295.113948
0.907411445165195	327278725.8327105
0.9076382980264862	331265379.77411723
0.907865207600993	334788705.19041747
0.9080921739028933	338312911.4380707
0.9083191969463691	341837998.7372854
0.9085462767456058	345363967.3083265
0.9087734133147922	348688036.76326823
0.9090006066681211	351778723.1195467
0.909227856819788	354870182.1474102
0.9094551637839932	357962414.0400349
0.9096825275749393	361055418.99063176
0.9099099482068329	363962195.2648049
0.9101374256938848	366205090.13961005
0.9103649600503083	368448545.73813283
0.9105925512903209	370692562.20055485
0.9108201994281437	372937139.66709477
0.9110479044780008	375182278.27799875
0.9112756664541204	381278600.18592244
0.911503485370734	387464586.2333378
0.9117313612420768	393652118.77726513
0.9119592940823873	399841198.2043265
0.912187283905908	406031824.9012466
0.9124153307268845	407187266.062896
0.9126434345595664	406514956.3411197
0.9128715954182063	405842478.54191357
0.9130998133170609	405169832.6232573
0.9133280882703902	404497018.54312134
0.913556420292458	404925926.5966258
0.9137848093975312	406491337.65170556
0.9140132555998806	408057140.0595489
