#wavelength	surface flux
0.676892	10734.363225936351
0.678297	11286.900793731402
0.679702	11851.060520618928
0.681109	12421.777699784432
0.682517	13002.983628649317
0.683926	13590.150463006965
0.685337	14180.876048516946
0.686749	14773.760519916113
0.688164	15366.673975597394
0.689581	15943.475303853853
0.691	16448.456331437614
0.692422	16856.25052974361
0.693847	17423.06502353167
0.695274	18063.324452270484
0.696705	18716.050679815282
0.698139	19265.15397879545
0.699576	19731.928952162605
0.701017	20124.56253138152
0.702461	20526.486243403015
0.70391	20990.236670634287
0.705362	21344.78556131839
0.706819	21641.01210941737
0.70828	21921.325492932596
0.709745	22105.57773772341
0.711216	22275.598762497506
0.71269	22319.10306218978
0.71417	22277.391601710795
0.715655	22017.577821906878
0.717145	21496.831447694964
0.71864	21207.445537569998
0.72014	21049.30943521835
0.721647	20902.074623222405
0.723158	20406.812923195845
0.724676	19742.980359837806
0.726199	19112.672286344143
0.727728	18574.243893099425
0.729264	17769.383658331928
0.730805	17036.176656105403
0.732353	16418.24221293255
0.733907	15645.627719355278
0.735468	14817.59919806831
0.737035	13896.412575980186
0.738609	12964.513148529342
0.74019	12127.100161221426
0.741777	11195.312622836405
0.743372	10273.383738634247
0.744973	9385.862326954122
0.746582	8500.216559848646
0.748197	7639.9670761275665
0.74982	6797.473570461495
0.751451	5984.041974584555
0.753088	5212.3052066031605
0.754734	4465.546858604147
0.756386	3751.2762484238037
0.758047	3062.4891013318975
0.759715	2410.0624882797924
0.76139	1774.2820985660153
0.763074	1151.7655891460947
0.764765	570.6453296787776
0.766464	202.0354368962358
0.768172	275.70472166669606
0.769887	280.43983287215445
0.77161	828.0328527252872
0.773341	1745.8292192108274
0.775081	2742.1562596659887
0.776829	3833.393680491449
0.778585	4749.288887702849
0.780349	5537.37517797536
0.782121	7709.4038538121695
0.783902	9830.5823021719
0.785691	11912.909300269623
0.787489	14216.522221630796
0.789295	16736.887770016863
0.79111	19219.58311769792
0.792933	18669.04883712887
0.794764	14466.083676922262
0.796604	25490.78683365314
0.798453	33814.96417098865
0.80031	39273.298720203966
0.802176	44736.60333783734
0.804051	50665.33846198677
0.805934	57014.287305480415
0.807826	63651.60528125279
0.809727	70125.01517267223
0.811636	76862.61305815495
0.813554	84370.45346076041
0.81548	94538.95810595319
0.817416	105294.77988467709
0.81936	116642.55963582086
0.821313	129636.34026926123
0.823274	140424.06694540504
0.825244	156054.06951497734
0.827223	171415.53542769185
0.829211	186192.16283423433
0.831208	203107.73293685447
0.833213	222162.54397793862
0.835227	239853.73610686586
0.837249	261267.7933594533
0.83928	284430.0671087823
0.841321	307949.097350415
0.843369	336376.48345558596
0.845427	364096.7041859037
0.847493	394492.07421978726
0.849567	400303.1193950456
0.851651	353771.19089574955
0.853742	423051.54609215853
0.855843	529323.1036140921
0.857952	581923.6461484773
0.86007	628656.1841332908
0.862196	674671.4475502716
0.864331	726074.2062483759
0.866474	780824.6113288195
0.868626	839531.3108750399
0.870786	902819.9972636446
0.872955	968100.519945782
0.875132	1035621.6572315178
0.877317	1106862.7865208671
0.879511	1177231.825037492
0.881713	1236554.969099159
0.883923	1301074.8919687376
0.886142	1378782.8077271672
0.888369	1437683.5028436314
0.890604	1470638.06298639
0.892847	1260554.321026488
0.895099	1220135.5210106387
0.897358	1620431.0044601583
0.899626	1902809.2475037344
0.901901	2083154.2885045365
0.904185	2287936.7176738144
0.906476	2392691.475761805
0.908776	2505074.270082506
0.911083	2633136.7616078584
0.913398	2769200.156090297
0.915721	2881523.9865520783
0.918051	2923886.8758355877
0.92039	3169018.1098902076
0.922736	3367039.090016185
0.925089	3209669.4274962815
0.927451	2299333.8211385803
0.929819	1661459.8941979022
0.932195	1991949.218580108
0.934579	2229842.834406643
0.93697	2830858.982736405
0.939369	3456243.5882885205
0.941774	3393416.9930148306
0.944187	2397125.3961934736
0.946607	2600286.4924560115
0.949035	2657654.174672908
0.951469	3174012.4346351307
0.953911	3482047.66562737
0.956359	3910772.8013767516
0.958814	3662549.771997539
0.961277	3417328.0412024693
0.963746	3526538.1694895513
0.966222	3863679.0978714055
0.968705	4306279.96069182
0.971194	5332348.794723943
0.97369	5816916.556850942
0.976193	5837987.566179974
0.978702	6063326.3065902395
0.981217	6025817.904557798
0.983739	6484428.839177256
0.986268	6911990.479311962
0.988802	7198287.45233412
0.991343	7519604.458626742
0.99389	7691442.581603206
0.996444	7899583.83624375
0.999003	7953369.563726101
1.00157	7992166.196799906
1.00414	8057913.37833449
1.00672	8282702.31498238
1.0093	8448087.34234404
1.01189	8587133.199169524
1.01448	8692377.300746795
1.01708	8701256.885583924
1.01969	8617023.263072755
1.0223	8492655.79600315
1.02492	8361557.66690097
1.02754	8196335.441293519
1.03017	8175068.266224589
1.0328	8243087.396329739
1.03544	8257705.619907161
1.03808	8185587.3173537785
1.04073	8060468.154183849
1.04339	7935634.363226564
1.04604	7816894.615613182
1.04871	7685525.96118567
1.05138	7575093.46573335
1.05405	7484642.307315636
1.05673	7431793.16657464
1.05941	7379183.008289637
1.0621	7312262.191954962
1.06479	7145211.531077756
1.06749	6956220.239942849
1.07019	6758145.305507445
1.07289	6633912.556170967
1.0756	6527278.702326448
1.07832	6414648.503125472
1.08104	6328795.157760155
1.08376	6262356.648812484
1.08649	6161609.856440428
1.08922	5980624.781818982
1.09195	5697305.376693943
1.09469	5324390.206453668
1.09743	5099317.031442427
1.10018	4338858.583750763
1.10293	3523545.9770414787
1.10568	2848500.531268718
1.10844	3149922.547147305
1.1112	2238029.4868751117
1.11396	1746403.4908260226
1.11673	1687144.4256009024
1.1195	1812395.6276026075
1.12228	1235352.4681724277
1.12505	1269583.913879926
1.12783	2336628.706539271
1.13062	2302581.9754582588
1.13341	1136998.2985814842
1.1362	1958913.2111657285
1.13899	3505092.8797093458
1.14178	3245448.0499531776
1.14458	2580796.676285018
1.14738	2981497.324824632
1.15019	2835979.891246653
1.153	1647974.5990423565
1.1558	1893353.7524687634
1.15862	2193817.8430208247
1.16143	2191047.3747133827
1.16425	2798621.3198535866
1.16707	3138087.1564698755
1.16989	3315980.857634681
1.17271	3757078.026945906
1.17554	4683106.131287581
1.17837	5282653.9678549655
1.1812	5812359.698833688
1.18403	6653404.517708583
1.18686	6872556.806130337
1.1897	6801378.874489169
1.19253	7429873.600084736
1.19537	7820415.0428784145
1.19822	7805413.4338809
1.20106	7959343.7641753545
1.2039	8150647.645171029
1.20675	8294028.857559657
1.2096	8288583.143043286
1.21245	8346248.930856172
1.2153	8556843.652700905
1.21815	8759912.102984674
1.221	8982166.761722624
1.22385	9206118.598758223
1.22671	9483073.979042923
1.22957	9717647.592692032
1.23242	9973619.131137311
1.23528	10293847.855387587
1.23814	10677993.993433936
1.241	11042496.589231411
1.24387	11389996.104556784
1.24673	11701715.840304922
1.24959	11972405.592881288
1.25245	12286325.658951463
1.25532	12756086.471163072
1.25818	13324580.888344413
1.26105	13804782.95590303
1.26392	14278671.722142141
1.26678	14800247.93456533
1.26965	15324201.50021208
1.27252	15722707.102436831
1.27538	16216233.577583035
1.27825	16480205.006020298
1.28112	16523682.795460531
1.28399	16688911.447551446
1.28686	16741565.215883419
1.28973	16402904.0232222
1.2926	16268166.231856646
1.29546	16529960.528461318
1.29833	16759707.167526549
1.3012	16255683.543674212
1.30407	17076992.54225809
1.30694	17012479.63504229
1.30981	17558041.028639156
1.31267	16785114.530811884
1.31554	17324520.63377715
1.31841	18084505.301911324
1.32128	17416774.800401233
1.32414	15409969.351116912
1.32701	13972309.416752988
1.32987	9575751.379507149
1.33274	4608275.762764852
1.3356	2634897.611602124
1.33847	756927.8765995358
1.34133	224882.13016760946
1.34419	260047.28465224814
1.34705	232345.46593138945
1.34991	66316.42540315443
1.35277	16755.279038168326
1.35563	55132.792502020835
1.35849	78561.23858712844
1.36135	46968.644679796846
1.3642	75780.11660153947
1.36706	74638.82874791435
1.36991	88972.49306836493
1.37277	203386.91539738787
1.37562	244550.64801423915
1.37847	136626.85673647907
1.38132	27299.711936650296
1.38417	6469.422002297275
1.38701	28040.45750931585
1.38986	49786.04751855593
1.39271	76936.10495016769
1.39555	117831.90905766688
1.39839	135349.6560860155
1.40123	271117.18185346026
1.40407	356845.30824374314
1.40691	403070.6488652354
1.40974	201456.71131861157
1.41258	59580.31460079629
1.41541	97409.53868288553
1.41824	120932.89814115978
1.42107	144356.8947428817
1.4239	127401.75203203618
1.42673	231390.69279141707
1.42955	340946.38915024704
1.43237	239898.08499433368
1.43519	381585.92597217974
1.43801	345695.30984715524
1.44083	574722.353516168
1.44365	974308.3632633633
1.44646	865302.8649976529
1.44927	1405406.6556785186
1.45208	1689681.6930614002
1.45489	1796889.0557976016
1.45769	2243516.903996826
1.4605	2904950.4558090717
1.4633	2419071.6058318573
1.4661	2684354.787711666
1.4689	2313056.1172832367
1.47169	2232300.0274973297
1.47449	2306494.782983679
1.47728	2268604.8219684865
1.48007	1886633.3329192416
1.48286	2065852.6984620697
1.48564	2124233.5132985264
1.48842	1585600.895543283
1.4912	1391065.5791951562
1.49398	1609135.308864445
1.49676	1862516.7737424858
1.49953	2864833.91289688
1.5023	3698454.0833702465
1.50507	3775577.7318392303
1.50784	3250230.3215712565
1.51061	2840848.3296624096
1.51337	3110511.9032573574
1.51613	3860240.004484713
1.51888	4429836.52718652
1.52164	5084346.042096742
1.52439	5404003.481063956
1.52714	5883813.66728463
1.52989	6335260.024343917
1.53263	6276809.854495994
1.53538	6637629.865338244
1.53812	7203977.845409476
1.54086	7676316.751779736
1.54359	7728322.500775431
1.54632	8052248.963718404
1.54905	8482614.69037867
1.55178	9047134.493859025
1.5545	9587553.064026065
1.55723	9879789.746934159
1.55995	10180302.97515486
1.56266	10564392.0205893
1.56538	10786442.778705418
1.56809	10735490.177425632
1.5708	10555737.743089579
1.57351	10308861.938123666
1.57621	10154496.378822323
1.57891	9993617.779962324
1.58161	9932992.543412732
1.5843	9901005.387032019
1.587	9816373.645790102
1.58969	9602999.114066036
1.59238	9284112.087565657
1.59506	9058796.202807933
1.59774	8881403.387375938
1.60042	8625116.335163463
1.6031	8238810.716144493
1.60577	7903222.66303956
1.60844	7653501.146786166
1.61111	7428062.387763468
1.61378	7127512.880809096
1.61644	6728567.681298682
1.6191	6307971.917964286
1.62176	5862246.736958935
1.62441	5399030.352474878
1.62707	5085748.837331667
1.62971	4724963.902710876
1.63236	4584336.215629883
1.635	4950378.280105256
1.63764	5516430.003305669
1.64028	5660659.875342123
1.64292	5080171.386150492
1.64555	3908954.5450315922
1.64818	3402380.143441274
1.65081	3944032.5937969713
1.65343	4634012.497968778
1.65605	4685544.326409859
1.65867	4577396.072852125
1.66128	4408750.702422051
1.6639	3590267.064878228
1.66651	2146046.713605551
1.66911	1935921.2275829695
1.67172	2906643.3690106613
1.67432	3353070.915570926
1.67692	3108242.492933337
1.67951	2840137.249559169
1.68211	2948140.395103138
1.6847	2840159.885714163
1.68728	2510723.839317548
1.68987	2442069.595043763
1.69245	2189243.3885554518
1.69503	1707235.6849341954
1.6976	1637830.7547244346
1.70018	1822344.4689728175
1.70275	1730500.0189541755
1.70531	1770580.356920844
1.70788	2000973.703163925
1.71044	2098169.371874708
1.713	2308607.731386814
1.71556	2468584.2010621573
1.71811	2531693.4039687417
1.72066	2568136.1768194307
1.72321	2427686.355290827
1.72575	2272325.378852597
1.7283	2201062.161420928
1.73084	2122332.3112267302
1.73337	2058712.2875563707
1.73591	2048207.867682963
1.73844	2037047.608440553
1.74097	2020161.8143057053
1.74349	1971055.0480301105
1.74602	1897944.9693945548
1.74854	1853901.7659503662
1.75105	1766815.4726109356
1.75357	1569832.8119019808
1.75608	1452317.2659850812
1.75859	1451333.835620063
1.7611	1419062.1799196932
1.7636	1328587.9351091166
1.7661	1161448.1301046307
1.7686	1027544.0651729454
1.7711	987683.5856072345
1.77359	886806.7106459471
1.77608	719199.6328022765
1.77857	624734.4355190025
1.78105	622545.9483034202
1.78354	600383.1070407567
1.78602	491221.6207565318
1.78849	398830.9453159269
1.79097	341668.11856174323
1.79344	296731.5121974676
1.79591	323490.188493113
1.79837	373026.55436795286
1.80084	242437.08422456472
1.8033	126502.98265513314
1.80576	97177.32022028112
1.80821	89995.22312041666
1.81067	71348.09728652275
1.81312	54243.94191378228
1.81557	48440.51584804742
1.81801	48012.02399624618
1.82046	44892.82488928798
1.8229	45833.62568054511
1.82533	39594.98111531111
1.82777	30713.851310319365
1.8302	30931.571172066346
1.83263	35486.259227735565
1.83506	33645.75281374542
1.83749	31976.501065822926
1.83991	64534.22152544989
1.84233	138368.73359546685
1.84475	209877.28829451237
1.84716	205909.61190056358
1.84957	148968.25450225372
1.85198	108964.74816595143
1.85439	80503.82923138089
1.8568	111399.26591122069
1.8592	147700.04133589257
1.8616	109482.83350231091
1.864	71637.81545866617
1.86639	77241.32419144925
1.86878	74772.99894444854
1.87118	49782.92146408548
1.87356	56959.6193520822
1.87595	125678.07383171422
1.87833	258808.05747103968
1.88071	370731.59194469324
1.88309	316260.3243668625
1.88547	225134.86341845937
1.88784	202099.1037897231
1.89021	185644.61669368652
1.89258	282667.89369806525
1.89494	404371.5938458032
1.89731	311580.4356793059
1.89967	141657.1373759152
1.90203	56154.82743556999
1.90439	66470.9996236556
1.90674	121244.39941355227
1.90909	136381.19564346535
1.91144	93884.25428591738
1.91379	51837.91186225076
1.91613	41517.16731347031
1.91848	37746.75877229166
1.92082	27307.36641445809
1.92315	26751.207661919663
1.92549	38943.40836278796
1.92782	45733.35983178577
1.93015	49526.6390379235
1.93248	58754.44756551758
1.93481	68539.7291648259
1.93713	77512.69824068857
1.93945	86317.59557668552
1.94177	98181.45093132932
1.94409	102674.89580774888
1.94641	101390.6382272066
1.94872	121698.70898683496
1.95103	145750.998896669
1.95334	116811.98856632847
1.95564	82869.25049288891
1.95795	81928.3958058949
1.96025	116970.01336434162
1.96255	173424.11282846087
1.96484	222150.85080054423
1.96714	247188.20457537193
1.96943	254073.9911149275
1.97172	258320.0028173111
1.97401	262931.7216812994
1.97629	246829.76419436614
1.97858	211432.4733696454
1.98086	220116.2872286298
1.98314	284642.2917654477
1.98541	350796.401876277
1.98769	379053.87295432994
1.98996	376656.041440045
1.99223	356994.35165363934
1.9945	333105.72245108295
1.99677	358663.97234286123
1.99903	428894.4827928536
2.00129	454670.3902370342
2.00355	402421.9199868772
2.00581	335883.11126400874
2.00806	375445.02470874623
2.01031	470313.1232916435
2.01256	472712.2026931235
2.01481	435501.4748374741
2.01706	424669.7185201657
2.0193	442805.9757353277
2.02154	453113.4972486974
2.02378	426093.19561094575
2.02602	433522.85025963356
2.02825	471804.19020536926
2.03049	489817.3214718241
2.03272	495736.7010517192
2.03494	509704.7557617821
2.03717	540722.5592587171
2.03939	560851.2013739236
2.04162	567908.4854500017
2.04384	591542.9927429375
2.04605	623151.3956939186
2.04827	646680.202200397
2.05048	648677.9891621445
2.05269	641158.214452289
2.0549	639776.8191955484
2.05711	647927.5465841724
2.05931	659846.7410092719
2.06151	667618.2356522392
2.06371	666031.7809882628
2.06591	663581.4796540281
2.06811	661563.5611409406
2.0703	659090.9159095272
2.07249	656023.1204865479
2.07468	653654.563117148
2.07686	651921.1460098001
2.07905	648902.1368107215
2.08123	646101.0779263309
2.08341	644821.4121312199
2.08559	646191.172291947
2.08776	646466.6581470233
2.08994	644977.0116745078
2.09211	642300.4964495992
2.09428	639109.3138492499
2.09645	636295.9637227257
2.09861	633098.7697211847
2.10077	629956.0782661068
2.10293	626991.983224245
2.10509	624188.7111915348
2.10725	620949.6613810848
2.1094	618679.1542185548
2.11155	616939.426871318
2.1137	615343.8725452629
2.11585	613351.5817276356
2.11799	610811.9858718469
2.12013	608418.29841673
2.12227	606472.3536015358
2.12441	605099.0707279509
2.12655	603308.9619787849
2.12868	601501.8191676246
2.13081	599834.7250121562
2.13294	597959.2763807058
2.13507	594021.2952460524
2.13719	590506.880124139
2.13931	587051.145724191
2.14143	582924.4376536137
2.14355	576152.0458294401
2.14567	575513.7572629467
2.14778	573234.7169629398
2.14989	567472.9105608009
2.152	556669.24200992
2.1541	553875.1429905032
2.15621	553278.4254099394
2.15831	552307.4898012049
2.16041	545769.405877535
2.16251	541576.8397188402
2.1646	536189.2658795309
2.1667	529740.617784914
2.16879	527491.214871911
2.17087	527174.6544318246
2.17296	526147.7497150426
2.17504	522852.53642971796
2.17713	509918.06530936394
2.1792	496655.01394532947
2.18128	485303.2973643616
2.18336	478998.8179616926
2.18543	467848.66033280693
2.1875	446022.9494073122
2.18957	412747.00126948993
2.19163	365368.73721895716
2.1937	325436.27229699004
2.19576	292533.02108180884
2.19782	267219.4559044161
2.19987	239257.24163739057
2.20193	218610.87003704818
2.20398	206315.1283161307
2.20603	206978.75548587998
2.20808	221486.1504014429
2.21012	241434.1135989835
2.21217	263757.84077145817
2.21421	274592.88966909994
2.21625	277256.1189333653
2.21828	272492.602089483
2.22032	264675.08960720076
2.22235	256905.75240784718
2.22438	247667.28141014389
2.22641	233100.7416136176
2.22843	221975.76249085547
2.23046	215333.18747721982
2.23248	215769.6568739966
2.2345	215772.69743079078
2.23651	212487.05545263638
2.23853	205009.13353630522
2.24054	189022.1941978206
2.24255	166860.2514396404
2.24456	140018.7976753183
2.24657	126530.50495240004
2.24857	131279.52851419486
2.25057	147206.06249363246
2.25257	154402.64529187698
2.25457	153744.03503507804
2.25656	149757.16036951126
2.25856	150655.3090691192
2.26055	149094.83968673064
2.26254	146808.26859440497
2.26453	146206.77110008735
2.26651	151795.61267256556
2.2685	161007.41936196754
2.27048	173835.46656180243
2.27246	182703.52629367213
2.27443	187435.30151733276
2.27641	182340.77892937648
2.27838	173759.94948411622
2.28036	164141.5116391183
2.28233	157477.26635793952
2.28429	153952.95786198738
2.28626	151567.29953384816
2.28823	146254.8110709756
2.29019	141625.23925154735
2.29215	137698.08159905885
2.29411	136999.44173400637
2.29607	135287.61280746222
2.29802	132769.06854559315
2.29998	134721.9370783951
2.30193	143654.67771885858
2.30388	160575.80204231807
2.30583	188136.7881277358
2.30778	214894.0503756505
2.30972	238531.73181000882
2.31167	237244.58898931526
2.31361	219179.15008225822
2.31555	168711.78442255475
2.31749	130562.68616979013
2.31943	103704.30204738778
2.32137	117752.6779806172
2.32331	129695.41795777707
2.32524	139908.53014205483
2.32718	132538.07674767147
2.32911	127805.76241770893
2.33104	127223.23851320526
2.33297	126776.80341967949
2.3349	124917.29423617947
2.33683	118577.83767113088
2.33876	112329.1152822665
2.34068	106196.20224485059
2.34261	100582.05548383639
2.34453	96714.44461252881
2.34646	94783.26762876165
2.34838	101356.46345042642
2.3503	111628.08325529318
2.35223	128678.27725555442
2.35415	146642.5566859881
2.35607	165208.37717558423
2.35799	185453.94268421285
2.35991	204045.7651141279
2.36183	220641.69072490334
2.36375	211620.3964945957
2.36566	190905.85043470282
2.36758	145790.97330486734
2.3695	108994.3423969524
2.37142	77529.9206056595
2.37334	86732.76019021642
2.37526	102209.58246440117
2.37718	127788.17988992058
2.3791	146072.75607624525
2.38101	160383.39872904654
2.38293	164048.60653037988
2.38485	169438.4802244776
2.38677	176589.32856697537
2.3887	185153.52950581626
2.39062	192198.31238900273
2.39254	194063.93900808625
2.39446	194391.9149069496
2.39639	193730.7917586699
2.39831	201142.18183014623
2.40024	207193.44806067465
2.40216	210273.68604396415
2.40409	211809.32669787595
2.40602	214089.08473226518
2.40795	232769.09011862363
2.40989	254072.2339810696
2.41182	278356.672936386
2.41376	286122.2083179043
2.4157	288653.35509389814
2.41764	284856.0815613576
2.41958	286520.2175550998
2.42152	292624.93886460597
2.42347	300016.49652848236
2.42542	310661.66360112245
