#wavelength	surface flux
0.676892	70490.80126430684
0.678297	74793.64770113453
0.679702	79031.90998289258
0.681109	83250.89026193105
0.682517	87525.37150621582
0.683926	91785.12730687094
0.685337	95992.73114537902
0.686749	100190.02263014526
0.688164	104304.21105709097
0.689581	108196.37884133469
0.691	110932.57060610878
0.692422	112347.63124828273
0.693847	116502.93485981447
0.695274	121447.63725662776
0.696705	126300.77386289593
0.698139	130069.12332476811
0.699576	132878.0241679206
0.701017	134706.70926115866
0.702461	136719.81164815076
0.70391	139731.69481716183
0.705362	141801.5527762044
0.706819	143234.6738748436
0.70828	144503.69465965813
0.709745	144930.13317401244
0.711216	145585.34043065045
0.71269	144800.52437105967
0.71417	143303.43032593955
0.715655	139714.92410705093
0.717145	133376.28381214925
0.71864	130222.8310185639
0.72014	128533.51266091407
0.721647	127115.77815216448
0.723158	122807.09011445532
0.724676	117106.0241350487
0.726199	111320.9755314695
0.727728	106875.086395849
0.729264	99871.13438681832
0.730805	93788.83972537845
0.732353	88716.16028535964
0.733907	82570.44711411076
0.735468	76145.51363964827
0.737035	68854.98190342901
0.738609	61664.62182733572
0.74019	55578.53731245489
0.741777	48781.75021813891
0.743372	42203.1734357611
0.744973	36151.21813132319
0.746582	30383.98219509314
0.748197	25116.721873947914
0.74982	20308.635833945766
0.751451	16034.99247070946
0.753088	12442.210039329442
0.754734	9392.407157325992
0.756386	6886.311439757307
0.758047	4903.38657916157
0.759715	3365.671849358733
0.76139	2161.5539038749366
0.763074	1240.0356313089783
0.764765	547.5237850146256
0.766464	153.22708878436993
0.768172	214.81593793408308
0.769887	205.05887131474813
0.77161	816.0492214219356
0.773341	1970.4157752214567
0.775081	3546.7270639541593
0.776829	5634.356315204752
0.778585	7466.358834780225
0.780349	9187.850872108487
0.782121	16151.868418806918
0.783902	23857.55536462775
0.785691	32230.487020668254
0.787489	42363.260182263446
0.789295	54127.826268193
0.79111	65700.7855428043
0.792933	55604.66531854203
0.794764	30131.06449042095
0.796604	95434.85203477427
0.798453	144215.49612269533
0.80031	176127.91636196646
0.802176	207819.81208316216
0.804051	242255.4102010588
0.805934	278862.615927392
0.807826	316014.8470122038
0.809727	348064.8043041686
0.811636	380687.9422121174
0.813554	419397.4383793182
0.81548	482021.71408713295
0.817416	544002.5160636813
0.81936	602927.1469480695
0.821313	681248.5969433483
0.823274	730884.7027768814
0.825244	824502.4035528817
0.827223	908704.66804898
0.829211	982066.2443051067
0.831208	1068627.0335064344
0.833213	1169676.7924933548
0.835227	1239788.8110518933
0.837249	1343882.7278442085
0.83928	1459154.9481980822
0.841321	1559392.564804416
0.843369	1717353.3545852022
0.845427	1843707.3167025552
0.847493	2023833.3146992945
0.849567	1971437.8232182553
0.851651	1471845.884612946
0.853742	1911730.4115239275
0.855843	2650843.2539733704
0.857952	2922661.430813352
0.86007	3103763.969525645
0.862196	3098765.1781552476
0.864331	3287415.602942688
0.866474	3579612.1173171797
0.868626	3830977.1926485687
0.870786	4069468.0923451725
0.872955	4305816.621568683
0.875132	4537668.264880518
0.877317	4835728.332198555
0.879511	5024569.633047289
0.881713	5176079.558680695
0.883923	5360453.738789374
0.886142	5642480.41269898
0.888369	5640891.9765411
0.890604	5468696.48890072
0.892847	4070479.269210696
0.895099	3784656.000157703
0.897358	5740853.946956665
0.899626	7066366.20410153
0.901901	7886724.267541852
0.904185	8854259.582937779
0.906476	9016871.76387137
0.908776	9500659.990835326
0.911083	9634235.257434484
0.913398	10142090.949323438
0.915721	10177498.692478254
0.918051	9433032.737220861
0.92039	10595245.881983679
0.922736	11406976.87283163
0.925089	9606650.725562979
0.927451	4559694.930828238
0.929819	2564736.96417969
0.932195	4165708.9280618415
0.934579	3878799.4337737947
0.93697	5504494.654302448
0.939369	7620233.73634504
0.941774	7009121.519758147
0.944187	3333399.3643474104
0.946607	3678921.3895544056
0.949035	3645688.0305443066
0.951469	4964190.46709947
0.953911	6157861.122753293
0.956359	8207252.894493298
0.958814	6161464.966258348
0.961277	4621905.447571635
0.963746	4593012.522559053
0.966222	5201862.215533986
0.968705	5797496.49606743
0.971194	10019906.365590049
0.97369	12831567.833545621
0.976193	11925049.411197118
0.978702	12452125.953225015
0.981217	11466100.81202191
0.983739	13591944.237248087
0.986268	15113905.56381405
0.988802	15984838.74010517
0.991343	17325166.307571314
0.99389	17922148.309523858
0.996444	18537137.42549012
0.999003	17489842.425606478
1.00157	17693803.734377466
1.00414	18510017.762100123
1.00672	19970836.586141184
1.0093	21146891.297204662
1.01189	22613307.25744874
1.01448	24081789.472847603
1.01708	24693236.786755044
1.01969	25154177.33089514
1.0223	24967547.824161023
1.02492	24587522.514528945
1.02754	24544718.945525985
1.03017	25273814.021194275
1.0328	26719092.483364224
1.03544	27385337.597364593
1.03808	27776789.086516544
1.04073	27694054.900585923
1.04339	27721906.226211213
1.04604	27803149.43228246
1.04871	27641847.152151883
1.05138	27334706.189908873
1.05405	27601726.975029953
1.05673	28163214.88109855
1.05941	28206525.28302086
1.0621	28506300.22410384
1.06479	28011625.533790518
1.06749	27600520.91145601
1.07019	26742875.25366005
1.07289	26764105.101574797
1.0756	26797177.49443286
1.07832	26554479.57285222
1.08104	26509537.386818923
1.08376	26257260.1096763
1.08649	25364647.394994833
1.08922	23212511.52814013
1.09195	19639250.140886575
1.09469	15976086.891459398
1.09743	15140511.223375814
1.10018	10490740.35853187
1.10293	6036670.908810463
1.10568	4128023.347338358
1.10844	7361271.707626463
1.1112	4112593.267382807
1.11396	3175085.662320957
1.11673	3541256.050602842
1.1195	3214281.171114944
1.12228	1272332.5772218523
1.12505	1234089.6464262141
1.12783	3520129.990587256
1.13062	3091541.1788531663
1.13341	1177424.1288170563
1.1362	3591162.341608663
1.13899	6542968.708037206
1.14178	4863870.373715172
1.14458	3509973.1393747833
1.14738	4969545.440238879
1.15019	4971423.877714937
1.153	1794764.895146517
1.1558	1929137.8049426586
1.15862	2282300.8810815816
1.16143	2354950.57756691
1.16425	3334050.0140070696
1.16707	3857870.276014976
1.16989	3621300.9187981305
1.17271	4380905.600187449
1.17554	6616952.880769558
1.17837	8446900.016265867
1.1812	10360256.49204306
1.18403	15075756.221005358
1.18686	15698546.864625335
1.1897	14392708.075440394
1.19253	18691292.981508773
1.19537	22091286.74505655
1.19822	20931123.230337918
1.20106	22869985.791133843
1.2039	24664954.1317345
1.20675	25855027.17692809
1.2096	25035890.686602294
1.21245	25185581.23674519
1.2153	27440699.88928393
1.21815	28809368.421320077
1.221	30216141.333554994
1.22385	31562239.254491065
1.22671	32671279.562282115
1.22957	33007816.909003556
1.23242	33727193.64975912
1.23528	34909847.29122772
1.23814	36159922.19341332
1.241	36164157.272837505
1.24387	36115946.32980015
1.24673	38311393.714776285
1.24959	37784180.96807057
1.25245	36153408.73043012
1.25532	39993500.67748199
1.25818	42293632.1462341
1.26105	42179515.2447967
1.26392	42112848.342292815
1.26678	42745871.53910878
1.26965	43471847.8266815
1.27252	43232402.70112299
1.27538	44464179.268128976
1.27825	43543027.609399855
1.28112	40673621.89599242
1.28399	39792027.65011167
1.28686	39565241.27336564
1.28973	35065853.63050305
1.2926	33133874.38059185
1.29546	33890879.87855352
1.29833	34770924.04747718
1.3012	30853439.66813068
1.30407	34799892.69929675
1.30694	33210525.78982727
1.30981	35020214.12559471
1.31267	30321085.031810995
1.31554	31331830.264615916
1.31841	33167626.34204696
1.32128	30338581.771579035
1.32414	22563444.21576428
1.32701	18297153.065459967
1.32987	12095936.94716092
1.33274	3983135.070439579
1.3356	1979962.060552377
1.33847	509015.37997493654
1.34133	151740.85417379253
1.34419	310714.17264547496
1.34705	332325.79009015334
1.34991	75931.08457399675
1.35277	18524.749167541617
1.35563	93080.1682540609
1.35849	116628.4402449439
1.36135	55002.27130332026
1.3642	76145.41650113922
1.36706	62616.89595087487
1.36991	70856.17217391888
1.37277	159549.00451949003
1.37562	169897.1438787418
1.37847	88205.6275793806
1.38132	19021.16221674237
1.38417	6036.68997772377
1.38701	24049.109604051242
1.38986	44038.567349114426
1.39271	86701.5387290006
1.39555	133221.42932348675
1.39839	107480.71496239613
1.40123	250295.57200621735
1.40407	382442.107283865
1.40691	496698.87391370727
1.40974	234729.44967536122
1.41258	56368.53500872955
1.41541	77519.37391871659
1.41824	97035.27780804543
1.42107	117660.21558749699
1.4239	103583.673389476
1.42673	222534.40468384992
1.42955	379156.7887695011
1.43237	220239.09601650594
1.43519	278840.9589184099
1.43801	240664.31342397782
1.44083	474715.75647874235
1.44365	834658.6306672728
1.44646	654057.3250197996
1.44927	1067882.0144003634
1.45208	1201560.064877628
1.45489	1243147.8220990114
1.45769	1754269.7458152026
1.4605	2485456.8447097917
1.4633	1872934.8457045667
1.4661	1951870.1184978494
1.4689	1825072.9621514701
1.47169	2156486.6602423517
1.47449	2150872.9716349463
1.47728	2149660.121174315
1.48007	1730727.8709774273
1.48286	2044868.71630569
1.48564	2233750.613913811
1.48842	1652342.4066763802
1.4912	1607755.2589971481
1.49398	2126700.145030401
1.49676	2056085.4061411065
1.49953	2912503.957059867
1.5023	4401303.750263136
1.50507	5197333.281225503
1.50784	4574241.814303793
1.51061	4378627.678948589
1.51337	5717491.096682919
1.51613	7194306.28195094
1.51888	7243727.59002259
1.52164	8787665.779446121
1.52439	9454830.849019729
1.52714	9733840.5313903
1.52989	11266024.09624786
1.53263	12101267.584141096
1.53538	12150756.682979811
1.53812	13395844.496955784
1.54086	15072195.511957107
1.54359	15060598.852971502
1.54632	16444639.038907094
1.54905	17128793.382581312
1.55178	17431359.655728947
1.5545	18612065.212990586
1.55723	19049704.794092923
1.55995	20202901.715954017
1.56266	21939034.686431702
1.56538	22916016.08416417
1.56809	23395493.374289583
1.5708	23225256.02171744
1.57351	22453170.01665588
1.57621	22601692.58884979
1.57891	22422852.40263428
1.58161	23088653.036864907
1.5843	24111606.95619012
1.587	24293721.300237395
1.58969	23509200.317350693
1.59238	22344745.871880602
1.59506	21938224.279357202
1.59774	21716867.848505057
1.60042	21210498.479559045
1.6031	20010032.14835335
1.60577	18995018.349832427
1.60844	18417866.389352668
1.61111	17912693.640451327
1.61378	17023006.961736936
1.61644	15785418.425122267
1.6191	14458005.563203547
1.62176	13016947.557542637
1.62441	11680272.384365117
1.62707	10954453.629165204
1.62971	9955432.081802666
1.63236	9718890.417497326
1.635	11822087.909773972
1.63764	14765295.127700668
1.64028	15640655.24332386
1.64292	13467790.937925797
1.64555	8998949.94489921
1.64818	7177464.885650266
1.65081	9329155.108009622
1.65343	12106129.13511101
1.65605	12267793.56223813
1.65867	11906927.444570469
1.66128	11602502.978435088
1.6639	9387186.677283904
1.66651	4867730.508387154
1.66911	3374696.2625868805
1.67172	6120596.4690784095
1.67432	7884394.431873463
1.67692	7226216.795463128
1.67951	6415714.284147527
1.68211	6987332.695311523
1.6847	6735430.406863411
1.68728	5547631.0755578065
1.68987	5274981.510162836
1.69245	4503968.65465014
1.69503	3063010.859124544
1.6976	2883393.801500285
1.70018	3480185.1779535054
1.70275	3296663.105148803
1.70531	3596654.780444256
1.70788	4430449.16985975
1.71044	4766414.645844688
1.713	5650556.120959467
1.71556	6261485.250409019
1.71811	6509334.41383505
1.72066	6821261.036078624
1.72321	6331520.749051944
1.72575	5749743.188164147
1.7283	5541156.581064367
1.73084	5230144.7953742845
1.73337	4956050.563918162
1.73591	4908013.9483637065
1.73844	4794982.770809466
1.74097	4646062.1026351815
1.74349	4421232.010219617
1.74602	4205354.972417542
1.74854	4136445.2096713916
1.75105	3819881.0519495006
1.75357	3001176.679908025
1.75608	2529708.14278316
1.75859	2609343.667454199
1.7611	2665211.148203447
1.7636	2553417.3834258774
1.7661	2099869.8420985118
1.7686	1673288.8847713063
1.7711	1564536.6976634902
1.77359	1351533.464063773
1.77608	981806.5087194927
1.77857	795935.4540640997
1.78105	843186.4192504111
1.78354	869035.5064591324
1.78602	680584.7642269654
1.78849	491406.6051473318
1.79097	404751.8267110258
1.79344	362646.2732256383
1.79591	444593.56407211174
1.79837	564702.5123443693
1.80084	358060.76678147493
1.8033	159623.39662406035
1.80576	114158.06242996376
1.80821	103606.5471623697
1.81067	82539.94549752522
1.81312	64016.241306922355
1.81557	59418.44626421006
1.81801	61005.105755552715
1.82046	59387.92051993368
1.8229	62143.0012174212
1.82533	53825.68288906912
1.82777	41736.06896842594
1.8302	42207.55640957118
1.83263	48972.53659769033
1.83506	47285.745008565566
1.83749	47632.36826389856
1.83991	100665.15279628098
1.84233	227449.20687483012
1.84475	370430.7190150525
1.84716	373781.20242529747
1.84957	244838.09939009976
1.85198	156430.90805383137
1.85439	119454.83671271175
1.8568	177531.32130602747
1.8592	232911.92048414532
1.8616	164394.98978688056
1.864	106664.3266569913
1.86639	126860.43560962645
1.86878	130422.67911139743
1.87118	85994.79574249678
1.87356	94687.05462268743
1.87595	222416.14204645774
1.87833	498664.10136812454
1.88071	731355.6182922168
1.88309	585897.5054098276
1.88547	387089.2747599639
1.88784	354651.1992231194
1.89021	341292.68709318485
1.89258	663553.9549788495
1.89494	1066446.1220155824
1.89731	796797.8216814576
1.89967	324453.5736095497
1.90203	107707.38615160128
1.90439	141218.39063756814
1.90674	274032.73015303904
1.90909	298147.99392763537
1.91144	186637.5444697902
1.91379	86831.73653801534
1.91613	62984.5617401524
1.91848	57016.07584793389
1.92082	41555.243330485006
1.92315	39965.557284936316
1.92549	56447.91557452199
1.92782	65967.47760336676
1.93015	72720.65238870765
1.93248	87688.79664047294
1.93481	112245.93442778703
1.93713	142206.41884253197
1.93945	162102.65124551777
1.94177	179096.51855544993
1.94409	184840.20125319235
1.94641	193632.18628586794
1.94872	261982.9564722095
1.95103	329615.05012912984
1.95334	242364.826353761
1.95564	153485.98469644666
1.95795	148740.1966834745
1.96025	206451.53557151946
1.96255	306874.94146730175
1.96484	446100.2133004372
1.96714	629587.264451029
1.96943	803595.0407234828
1.97172	846630.0172274057
1.97401	723137.8471085094
1.97629	585326.9610938646
1.97858	523657.8361577249
1.98086	696623.7738830076
1.98314	1048056.4651149019
1.98541	1285688.6573043466
1.98769	1247887.2231831974
1.98996	1036799.1933630542
1.99223	810459.5193719462
1.9945	836824.6025288132
1.99677	1155419.554093525
1.99903	1468879.3229184903
2.00129	1514548.07086492
2.00355	1271436.31716884
2.00581	1077744.3893267387
2.00806	1466071.4031315958
2.01031	2163776.1504126317
2.01256	2361461.3311837055
2.01481	2192772.474266747
2.01706	2033989.9215609136
2.0193	2017121.652515194
2.02154	2039028.9265136272
2.02378	1911698.821848764
2.02602	1988531.8589469662
2.02825	2302388.3134733653
2.03049	2491065.730036258
2.03272	2502228.2251145956
2.03494	2446766.1307786657
2.03717	2503406.5195890665
2.03939	2795842.1072337423
2.04162	2988256.543610454
2.04384	3196763.592822231
2.04605	3438950.904180688
2.04827	3634904.482268604
2.05048	3615440.5206240606
2.05269	3403400.2444616277
2.0549	3306729.7434643023
2.05711	3418031.465342619
2.05931	3624641.022697626
2.06151	3771196.1322463774
2.06371	3789619.925798898
2.06591	3803486.4001891706
2.06811	3813722.710251102
2.0703	3810293.330989509
2.07249	3789507.5415993636
2.07468	3757926.1137116747
2.07686	3736717.2953290306
2.07905	3722768.9799521593
2.08123	3710839.9542616373
2.08341	3703247.7535306197
2.08559	3711533.570798505
2.08776	3723126.881018838
2.08994	3719782.1373175937
2.09211	3701430.89880816
2.09428	3674994.3938730415
2.09645	3658932.4559736233
2.09861	3629266.475740618
2.10077	3589893.4746259097
2.10293	3545833.5637748484
2.10509	3501010.3641367066
2.10725	3453613.5898239594
2.1094	3430932.6349652805
2.11155	3419213.4765118174
2.1137	3408238.732414985
2.11585	3384910.106398634
2.11799	3351155.514040798
2.12013	3321022.37159638
2.12227	3297772.311622806
2.12441	3281946.3769482607
2.12655	3256726.373980665
2.12868	3230568.6732047624
2.13081	3208260.217238214
2.13294	3185504.623547061
2.13507	3134204.3266803026
2.13719	3081560.807372486
2.13931	3029184.490952042
2.14143	2967568.6731886496
2.14355	2866416.3569455124
2.14567	2837007.3167683785
2.14778	2803959.6069572503
2.14989	2745940.958197482
2.152	2639530.876467094
2.1541	2631692.5000074753
2.15621	2640282.173606375
2.15831	2635885.50711684
2.16041	2567144.763151692
2.16251	2530218.416031081
2.1646	2487312.7106551896
2.1667	2437234.005171523
2.16879	2421566.1791035794
2.17087	2413384.674948107
2.17296	2401547.1283143344
2.17504	2379185.623734262
2.17713	2308515.598092806
2.1792	2227472.9214066924
2.18128	2150224.5139364838
2.18336	2094838.933090401
2.18543	2028827.1664621038
2.1875	1917114.6526476473
2.18957	1747807.9634475089
2.19163	1476725.0749862003
2.1937	1220713.8671117143
2.19576	1008625.4179589017
2.19782	859801.7251672274
2.19987	723832.4567744577
2.20193	625802.9224661537
2.20398	573151.0406330772
2.20603	600540.2305121751
2.20808	690415.8393413019
2.21012	798662.2109712092
2.21217	906049.8859651956
2.21421	955169.3634096587
2.21625	956334.8041114471
2.21828	911054.82385403
2.22032	820931.0943904894
2.22235	746523.4892940333
2.22438	687768.026834445
2.22641	655885.004083744
2.22843	640530.6193395117
2.23046	627653.5469068212
2.23248	610568.0624958583
2.2345	583607.388126949
2.23651	556251.2091179118
2.23853	529626.1567271492
2.24054	471352.11968508863
2.24255	386498.29705909797
2.24456	282069.7591305617
2.24657	245154.37664828892
2.24857	273834.61136176175
2.25057	341511.9272450187
2.25257	368657.72581529384
2.25457	365817.4558230319
2.25656	350595.8705288356
2.25856	355651.1782812844
2.26055	353134.4765807778
2.26254	347030.11659310514
2.26453	340549.36585247406
2.26651	355593.08014905354
2.2685	384864.5602117258
2.27048	433096.20498221554
2.27246	474185.0520730382
2.27443	502516.68435998337
2.27641	492174.5120601774
2.27838	462394.752415116
2.28036	423955.1170256551
2.28233	387969.0078554738
2.28429	361236.090251279
2.28626	339580.08553205186
2.28823	320935.11831598484
2.29019	311241.0926946896
2.29215	308220.1909070012
2.29411	317170.81547305227
2.29607	316061.1512831467
2.29802	306588.7853829628
2.29998	288653.2457177414
2.30193	302650.93175236403
2.30388	353039.15246629313
2.30583	490114.04297025234
2.30778	636504.6841743536
2.30972	784808.2110353262
2.31167	818449.5629853342
2.31361	772210.080107523
2.31555	569676.4404905828
2.31749	397548.0546308815
2.31943	259036.59003660342
2.32137	262210.4109220805
2.32331	271720.11927555304
2.32524	286200.045827358
2.32718	267548.9138724979
2.32911	258391.1762189696
2.33104	263542.78712955245
2.33297	268004.6025651346
2.3349	267912.5558927598
2.33683	254132.67164028663
2.33876	237042.62893888852
2.34068	218326.46897518935
2.34261	199462.4674376449
2.34453	188211.44498046392
2.34646	185463.45412038968
2.34838	206239.12056536198
2.3503	235865.5898258938
2.35223	280510.3795089093
2.35415	327655.75918154087
2.35607	376825.074397826
2.35799	436340.5926487325
2.35991	493434.9335595579
2.36183	547607.1638875161
2.36375	526382.1292203317
2.36566	471480.2537522205
2.36758	347447.4304963102
2.3695	245723.96032567022
2.37142	158301.3575174006
2.37334	168853.76620945797
2.37526	194847.79706295754
2.37718	245722.93455987243
2.3791	283289.96719753573
2.38101	313608.48676786467
2.38293	324701.8844415549
2.38485	341580.01167740807
2.38677	364364.6522556758
2.3887	389035.40254417626
2.39062	409438.0253525386
2.39254	416260.1676234232
2.39446	419467.5710170113
2.39639	420362.4708915536
2.39831	438828.62478185224
2.40024	451931.99632534693
2.40216	454051.30379723693
2.40409	454161.4752539155
2.40602	457808.82479314395
2.40795	513229.76065867906
2.40989	576420.1853975863
2.41182	648439.8616849338
2.41376	666813.6154729166
2.4157	668409.4415816086
2.41764	650387.8887639596
2.41958	649897.066102344
2.42152	663660.2016049827
2.42347	680983.2925295237
2.42542	711595.4619396768
2.42737	774418.9242860216
