#wavelength	surface flux
0.676892	159550.2687401447
0.678297	167178.930108165
0.679702	174823.49600278353
0.681109	182498.2104060146
0.682517	190225.933313535
0.683926	197944.65679985596
0.685337	205560.59887047857
0.686749	213191.36321454908
0.688164	220709.85436208142
0.689581	227613.80750335148
0.691	231673.8683136379
0.692422	233158.22335232893
0.693847	241441.54804274565
0.695274	251653.77852350287
0.696705	261589.59549083133
0.698139	269185.6328129911
0.699576	274862.9690976145
0.701017	278570.3571307255
0.702461	282856.81651887525
0.70391	289678.4737238168
0.705362	294846.2871994447
0.706819	298896.5500207359
0.70828	302840.5151994162
0.709745	305302.24290111894
0.711216	308648.58560592216
0.71269	309086.9917917437
0.71417	308291.21071528835
0.715655	302745.4214920248
0.717145	290871.9946625784
0.71864	287406.92116980144
0.72014	287655.6349829631
0.721647	288612.16171627794
0.723158	283698.4234948305
0.724676	275650.99936375127
0.726199	266895.06824257976
0.727728	262135.6583706891
0.729264	250312.06710001806
0.730805	241098.8344369318
0.732353	234582.05284567582
0.733907	225441.20981695811
0.735468	215084.86247517928
0.737035	201440.88458470083
0.738609	187790.72922135796
0.74019	177355.72705108082
0.741777	163266.5507445099
0.743372	148831.46257512673
0.744973	134876.16710093943
0.746582	120618.79212646458
0.748197	106507.32610143286
0.74982	92354.71563101225
0.751451	78526.7147973903
0.753088	65576.55699461623
0.754734	53313.55838130498
0.756386	41998.36005840726
0.758047	31786.773919694362
0.759715	22892.620410547665
0.76139	15150.382766343117
0.763074	8702.331724787367
0.764765	3750.508131674544
0.766464	996.4194737643903
0.768172	1390.5476667085875
0.769887	1327.1028493440256
0.77161	5529.754296126698
0.773341	13479.29195255643
0.775081	23689.341173407265
0.776829	35986.78503408079
0.778585	45672.91024471959
0.780349	53212.6894774105
0.782121	84363.85828142622
0.783902	114482.13842563816
0.785691	143212.27348329834
0.787489	174807.15695763787
0.789295	208468.0106913529
0.79111	239159.06207490063
0.792933	201547.27122452966
0.794764	110038.58788945898
0.796604	300711.03605715075
0.798453	419741.2709803171
0.80031	485163.3231612433
0.802176	546676.4490532386
0.804051	610735.0060067674
0.805934	675697.2354365358
0.807826	737023.3765342897
0.809727	779675.9115583065
0.811636	821887.1827752893
0.813554	877329.0730101396
0.81548	985992.4496724493
0.817416	1085128.5693335817
0.81936	1168625.1393392438
0.821313	1295526.3271648958
0.823274	1354793.5276780957
0.825244	1501350.240742839
0.827223	1621582.5361273147
0.829211	1716345.3419555922
0.831208	1832080.9450549139
0.833213	1972284.4221194524
0.835227	2043987.9822872903
0.837249	2175371.2645211504
0.83928	2323559.7852465184
0.841321	2435778.901978763
0.843369	2652905.704089586
0.845427	2805836.0390116917
0.847493	3074609.468961119
0.849567	3047638.4901257823
0.851651	2479484.854842631
0.853742	3012099.8320921436
0.855843	3870142.5564335175
0.857952	4181171.2188621243
0.86007	4423122.2336024735
0.862196	4539978.872606427
0.864331	4792601.461830146
0.866474	5094987.138402629
0.868626	5371277.349562439
0.870786	5680874.999491716
0.872955	5967639.928477776
0.875132	6205723.33001783
0.877317	6507667.658163505
0.879511	6703911.069527564
0.881713	6887357.583637357
0.883923	7087906.738626039
0.886142	7331685.354126519
0.888369	7267769.085617614
0.890604	6980634.191492919
0.892847	5345944.175717641
0.895099	5081629.61681869
0.897358	7105722.098454951
0.899626	8631573.915449489
0.901901	9423071.04963179
0.904185	10574812.966179254
0.906476	10724201.592366919
0.908776	11141642.388896627
0.911083	11122840.61092557
0.913398	11616933.120184558
0.915721	11543762.194977907
0.918051	10349005.239806127
0.92039	11654076.261215672
0.922736	12535537.754907297
0.925089	10253166.81121203
0.927451	4557711.612607234
0.929819	2622757.592762695
0.932195	4451725.188745349
0.934579	3781273.3401696496
0.93697	5348295.319655006
0.939369	7489275.770022246
0.941774	6840938.739978821
0.944187	3163938.882745732
0.946607	3467099.6222024774
0.949035	3404040.699457489
0.951469	4648171.327433395
0.953911	5956002.245089803
0.956359	8117316.410596847
0.958814	5843936.471712766
0.961277	4235695.551510974
0.963746	4204188.018439946
0.966222	4792740.923886004
0.968705	5263327.156564969
0.971194	9655702.171274357
0.97369	12853417.135824637
0.976193	11695135.531124167
0.978702	12275437.254063824
0.981217	11143814.537752373
0.983739	13482383.565081129
0.986268	15173857.48658139
0.988802	16357724.808632508
0.991343	18386147.96445254
0.99389	19304115.615134206
0.996444	21061122.374916974
0.999003	21071109.616319794
1.00157	21861198.630997982
1.00414	23004758.57557327
1.00672	25313506.307285644
1.0093	27065924.049548734
1.01189	29315953.431886222
1.01448	32250229.898097232
1.01708	33831008.817685194
1.01969	35143778.09636241
1.0223	35605067.64390355
1.02492	35571361.22593058
1.02754	35990690.1704696
1.03017	37265441.8961413
1.0328	41601070.7460634
1.03544	43321086.24220205
1.03808	44978132.29534148
1.04073	45897410.94561614
1.04339	47149968.03422306
1.04604	48287683.876831375
1.04871	48644639.90370843
1.05138	48560940.34448373
1.05405	50550646.68606436
1.05673	53300832.078373455
1.05941	53574920.97266139
1.0621	55197746.401834406
1.06479	55327867.39283021
1.06749	55887460.28463003
1.07019	54477768.59381871
1.07289	56264320.56093825
1.0756	57934700.8051176
1.07832	58447617.609543666
1.08104	59684184.90910077
1.08376	59400605.41112019
1.08649	56284236.97611466
1.08922	48818698.884246945
1.09195	37099288.64196106
1.09469	26964561.312568497
1.09743	25679122.64567864
1.10018	16297814.580078157
1.10293	7538224.593345081
1.10568	5025661.208927154
1.10844	10908310.122989492
1.1112	5612888.27878317
1.11396	4497294.9329865305
1.11673	5180307.199171192
1.1195	4326107.631038055
1.12228	1560198.4746792875
1.12505	1529224.9562678258
1.12783	4516999.081471885
1.13062	3743002.9041102547
1.13341	1399097.7879237137
1.1362	4465896.055290814
1.13899	8170964.916463595
1.14178	5879596.699193627
1.14458	4243170.281076255
1.14738	6488751.233955575
1.15019	6734998.805417883
1.153	2281629.258167239
1.1558	2307295.129845494
1.15862	2692199.5598273305
1.16143	2800533.394315624
1.16425	3940618.198160562
1.16707	4445586.040698933
1.16989	4000583.1119662127
1.17271	4904619.998188871
1.17554	7582724.7288465975
1.17837	10308657.84185702
1.1812	13263273.514816338
1.18403	22205526.30077359
1.18686	22762153.25001143
1.1897	19698219.677155778
1.19253	28865251.834190626
1.19537	36969283.373081185
1.19822	33213275.569130085
1.20106	38832017.15778228
1.2039	43674854.93115604
1.20675	47907523.2861253
1.2096	44665241.41723314
1.21245	45018544.13551237
1.2153	52444671.92768628
1.21815	56766007.121542476
1.221	61843829.53847884
1.22385	66812499.492309414
1.22671	69759277.0820492
1.22957	69820782.37346834
1.23242	71574945.70723863
1.23528	74920717.04865582
1.23814	77581423.48621942
1.241	72888386.32718673
1.24387	67936467.33052038
1.24673	79344749.28658643
1.24959	74787348.93714027
1.25245	62314731.34259697
1.25532	80191389.40303007
1.25818	87591487.86125244
1.26105	83873026.5677034
1.26392	80274152.17569667
1.26678	79414687.99657287
1.26965	79408891.63080792
1.27252	76403961.68862222
1.27538	78395145.09537034
1.27825	75123401.21854246
1.28112	66794813.12104863
1.28399	63362146.122433886
1.28686	62762350.268413335
1.28973	51802813.406312145
1.2926	47520536.89402437
1.29546	49219319.00546713
1.29833	50966663.2534643
1.3012	42552094.456444696
1.30407	50192910.1208397
1.30694	47614602.064814866
1.30981	50367872.06623485
1.31267	40890292.13012896
1.31554	40914591.21539737
1.31841	42676453.4497833
1.32128	38793960.032857865
1.32414	26497806.341138635
1.32701	20133154.937954146
1.32987	13737150.98695379
1.33274	4344765.572107557
1.3356	2150881.4874767363
1.33847	600308.6338711581
1.34133	201298.4923631093
1.34419	417224.0900137772
1.34705	450389.32122707553
1.34991	110101.24669821419
1.35277	30106.564063293834
1.35563	139004.3432395007
1.35849	178046.23425776587
1.36135	88605.54684081585
1.3642	123067.5518921692
1.36706	104487.24576976674
1.36991	114903.47026471942
1.37277	239568.82499259687
1.37562	255267.0000448085
1.37847	141997.17969941607
1.38132	33968.29441898888
1.38417	11936.932086280798
1.38701	41563.46701813933
1.38986	71428.5367110084
1.39271	131491.13127156868
1.39555	196258.1760272752
1.39839	150623.183008416
1.40123	332836.52861519076
1.40407	518180.53551993944
1.40691	669875.6858013823
1.40974	326351.16434067104
1.41258	87187.36370296407
1.41541	118094.55362877877
1.41824	145525.71180605033
1.42107	172894.43337400642
1.4239	151991.15354986978
1.42673	317176.55880119593
1.42955	526600.3123403996
1.43237	306492.02026741405
1.43519	371630.9566100773
1.43801	327001.76845164393
1.44083	600851.2122531842
1.44365	1032154.3726710894
1.44646	823339.3852794205
1.44927	1300889.9563652705
1.45208	1419804.7596156527
1.45489	1458847.4834709198
1.45769	2066150.2831874187
1.4605	2894907.864274493
1.4633	2247049.3657601625
1.4661	2363838.3794147605
1.4689	2271614.629425324
1.47169	2770393.390060265
1.47449	2813330.803897307
1.47728	2842241.157107626
1.48007	2360980.0292653586
1.48286	2913746.266161093
1.48564	3552253.3607307356
1.48842	3075417.609650554
1.4912	3218034.46664966
1.49398	3866988.1568073365
1.49676	4018101.0958274943
1.49953	5777307.2135568615
1.5023	7499436.376851171
1.50507	7744417.36105018
1.50784	6893676.011184952
1.51061	7083363.637252491
1.51337	9107018.232503315
1.51613	10957638.992062781
1.51888	10932204.525693825
1.52164	14867208.114258334
1.52439	17183413.08466529
1.52714	15126216.160162881
1.52989	15580991.643908717
1.53263	18505004.02084723
1.53538	20381533.875481404
1.53812	19800251.356621534
1.54086	20191937.094033174
1.54359	21053751.13696566
1.54632	24887169.04097129
1.54905	26300606.473983143
1.55178	26032099.54275708
1.5545	26573297.451266345
1.55723	26457900.58583888
1.55995	28164508.861261602
1.56266	31257845.43694272
1.56538	33974282.82517494
1.56809	36623625.50607817
1.5708	37356746.94716146
1.57351	35780336.17331946
1.57621	36809190.74118354
1.57891	36715299.66929356
1.58161	39617760.98118255
1.5843	44132183.335301645
1.587	45891371.72949935
1.58969	44479729.33874774
1.59238	42156421.19401889
1.59506	42096366.643734135
1.59774	42274323.1199121
1.60042	42197725.955669455
1.6031	40200784.823030666
1.60577	38313385.329607464
1.60844	37891110.31045774
1.61111	37497540.4440086
1.61378	35657092.939272374
1.61644	33191361.239361353
1.6191	30375502.007022217
1.62176	27491148.474529985
1.62441	25408746.259438984
1.62707	24379910.234507635
1.62971	22101301.96499817
1.63236	21610223.69294615
1.635	28620085.517388213
1.63764	38301697.32556715
1.64028	41232708.28655724
1.64292	34740899.75895303
1.64555	22342826.977118485
1.64818	17586327.89570583
1.65081	23621922.24255743
1.65343	31598048.827267364
1.65605	32188355.13182407
1.65867	31174178.12141079
1.66128	30363768.55885032
1.6639	24696514.17362245
1.66651	12264231.776917635
1.66911	6864462.274158971
1.67172	13825231.140789948
1.67432	19567260.783972394
1.67692	18473571.062873717
1.67951	16445822.105469108
1.68211	18232418.358926482
1.6847	17461321.524198603
1.68728	13376168.842698097
1.68987	11885582.649693666
1.69245	9840866.126871768
1.69503	6357318.238269732
1.6976	5967145.060773392
1.70018	7504852.692063022
1.70275	7168075.598222718
1.70531	8231996.405442017
1.70788	10436464.378888918
1.71044	11041776.959824
1.713	13225941.14244707
1.71556	14526520.694897978
1.71811	14880595.728111068
1.72066	15716328.242759254
1.72321	14246205.36773001
1.72575	12574459.12211258
1.7283	11977751.36286008
1.73084	10993262.649733752
1.73337	10014807.056360234
1.73591	9648238.279115602
1.73844	9022604.9092064
1.74097	8356941.553278035
1.74349	7689902.192609501
1.74602	7243718.4114181595
1.74854	7170377.502792143
1.75105	6495953.492532762
1.75357	4761228.713645698
1.75608	3769152.1098443074
1.75859	3924799.341941354
1.7611	4120881.9735122863
1.7636	4046344.710728972
1.7661	3279227.9083950063
1.7686	2486117.743731137
1.7711	2281910.8378728386
1.77359	1957308.4546979873
1.77608	1386408.870000271
1.77857	1105010.2826778465
1.78105	1178371.0405113176
1.78354	1225152.296450083
1.78602	959020.9120304028
1.78849	688882.2909314812
1.79097	574378.4097239163
1.79344	523817.6009163855
1.79591	640467.0489171472
1.79837	810162.3252875056
1.80084	521690.38989542937
1.8033	244314.55284103128
1.80576	179689.59385778633
1.80821	164368.42567573683
1.81067	135238.92094556685
1.81312	109461.42744514436
1.81557	103833.80629989381
1.81801	107407.91112315144
1.82046	105566.08123182735
1.8229	110715.23117492399
1.82533	98336.7339008071
1.82777	80257.2881796222
1.8302	82586.06531840662
1.83263	94636.0209947137
1.83506	91381.60968722778
1.83749	91668.6484193175
1.83991	178614.52648752206
1.84233	375194.48147337436
1.84475	587934.0733933486
1.84716	588095.0293145123
1.84957	389364.69227164105
1.85198	252999.5869857024
1.85439	192536.38335127576
1.8568	267267.89290851867
1.8592	342442.4800597668
1.8616	249224.3308076534
1.864	176008.32106931624
1.86639	216763.6109501932
1.86878	227088.82633849862
1.87118	158133.90005015847
1.87356	174428.22130014718
1.87595	377004.3319510447
1.87833	803764.9425283165
1.88071	1160537.1283062657
1.88309	934640.7796814379
1.88547	643586.3204972316
1.88784	614120.1903751366
1.89021	606530.9533884514
1.89258	1228405.2342232985
1.89494	2007779.0163421202
1.89731	1498233.6783740087
1.89967	610328.2849742667
1.90203	212685.35811387852
1.90439	293484.5646968641
1.90674	561033.7378447131
1.90909	600736.2845825194
1.91144	369286.51828931645
1.91379	168765.36860898233
1.91613	121249.39771145557
1.91848	109779.56599130764
1.92082	82826.44685925698
1.92315	81499.50449618346
1.92549	113517.32559939062
1.92782	132777.91605473467
1.93015	151378.7492794976
1.93248	195456.94794588722
1.93481	255414.40851304
1.93713	315471.2170290712
1.93945	400088.8594223977
1.94177	517950.78995208535
1.94409	540296.4360821258
1.94641	455379.1182408866
1.94872	505427.7341573429
1.95103	617433.8304962463
1.95334	449043.86500963365
1.95564	316241.04027825926
1.95795	346308.878749699
1.96025	424718.6801981939
1.96255	568054.2966718498
1.96484	890103.1582497897
1.96714	1419440.817654096
1.96943	1902234.0832928151
1.97172	1931306.7505570583
1.97401	1569527.2606598253
1.97629	1528545.3640936734
1.97858	1656281.8564544993
1.98086	2003248.748552955
1.98314	2867325.9126112936
1.98541	3604056.170679522
1.98769	3534202.7396641104
1.98996	2845347.4086015066
1.99223	2702073.135664371
1.9945	3247303.7356270864
1.99677	3402932.5644499706
1.99903	3485766.428306957
2.00129	3842805.2980770646
2.00355	4336947.632256418
2.00581	4776474.730243104
2.00806	5354773.827757369
2.01031	6399744.204715863
2.01256	7061296.368172856
2.01481	6801542.552270733
2.01706	6541162.772161962
2.0193	7190902.1460629655
2.02154	8815805.719976181
2.02378	10168824.951373866
2.02602	9910837.541417077
2.02825	9462129.911275128
2.03049	9530954.332506474
2.03272	10207106.35528992
2.03494	11125237.175552405
2.03717	11707103.890505271
2.03939	11969953.763389328
2.04162	12385327.061295263
2.04384	13846247.140612287
2.04605	16071364.299795518
2.04827	17808130.993180104
2.05048	17092431.04960759
2.05269	15471440.857794745
2.0549	16256080.287852325
2.05711	18269425.490583055
2.05931	19939313.311780326
2.06151	20198520.60598697
2.06371	19784637.54642964
2.06591	20693173.099186644
2.06811	21963881.933309574
2.0703	22763199.0340846
2.07249	22629149.82688138
2.07468	21600861.291763443
2.07686	21096714.742681414
2.07905	21232691.727392048
2.08123	21490588.756703988
2.08341	21654019.661327202
2.08559	21861426.556364946
2.08776	22315016.597640097
2.08994	22732235.379617725
2.09211	22874026.893369786
2.09428	22771036.521369964
2.09645	22869132.94010293
2.09861	22640999.29552173
2.10077	22092144.151553895
2.10293	21357292.32391537
2.10509	20587611.86774344
2.10725	19984853.781458013
2.1094	20064065.9640002
2.11155	20372036.98429365
2.1137	20609915.096862547
2.11585	20423091.74136188
2.11799	20071563.62127317
2.12013	19902776.497579817
2.12227	19880050.549427237
2.12441	19924697.78354158
2.12655	19668764.489639845
2.12868	19371344.862883843
2.13081	19173302.133415144
2.13294	19024167.065270513
2.13507	18439626.623766966
2.13719	17651225.34799825
2.13931	16877838.607708026
2.14143	16040616.032030001
2.14355	14740539.27905217
2.14567	14217933.865922093
2.14778	13910919.873523647
2.14989	13574580.857958846
2.152	12821529.531167358
2.1541	12829595.12558121
2.15621	12877913.238016056
2.15831	12729382.09235283
2.16041	11992244.659863206
2.16251	11739290.560674205
2.1646	11523677.886806212
2.1667	11240982.952371184
2.16879	10894304.692180356
2.17087	10395040.719229458
2.17296	9876915.890408503
2.17504	9404047.480342474
2.17713	8999853.27521419
2.1792	8600052.823333375
2.18128	8184828.959386998
2.18336	7737970.033029254
2.18543	7245297.531598269
2.1875	6756720.065698779
2.18957	6213875.804396851
2.19163	5353998.833790149
2.1937	4281072.627284489
2.19576	3226928.362640563
2.19782	2300696.3578647533
2.19987	1715849.672226367
2.20193	1336621.7345669416
2.20398	1163499.3129222486
2.20603	1261550.7256040126
2.20808	1558163.7628588104
2.21012	1893733.4576614883
2.21217	2189279.637338044
2.21421	2276662.9631982087
2.21625	2243202.089000985
2.21828	2105713.170086246
2.22032	1954177.2081153565
2.22235	1855269.0795736948
2.22438	1765727.6790162513
2.22641	1609185.4189667073
2.22843	1466572.5380378424
2.23046	1345591.7199502094
2.23248	1261848.5641744097
2.2345	1180887.146450982
2.23651	1111239.5659034543
2.23853	1054891.9527082336
2.24054	973844.9332868578
2.24255	868677.192200622
2.24456	748450.5951547374
2.24657	732935.5858516305
2.24857	783254.7683480972
2.25057	867538.6411612503
2.25257	872664.4759917962
2.25457	856489.9823628385
2.25656	831456.9094355372
2.25856	820076.358876403
2.26055	767502.0402314941
2.26254	700447.6240800674
2.26453	652382.6197520131
2.26651	666653.0468507482
2.2685	719225.3644808203
2.27048	816549.2602172628
2.27246	905892.9828176837
2.27443	971959.779377041
2.27641	959141.9806555293
2.27838	909197.5535415156
2.28036	842963.8115990696
2.28233	782307.0251112134
2.28429	737579.0661798997
2.28626	699869.3444102424
2.28823	656441.6634400373
2.29019	623410.9898548758
2.29215	599855.3655070915
2.29411	610386.038664025
2.29607	624124.3864797404
2.29802	640624.7485074826
2.29998	691851.457185607
2.30193	794174.8448199881
2.30388	955193.1349855636
2.30583	1263040.1439723838
2.30778	1603327.5234738337
2.30972	1974698.811574232
2.31167	2038050.5351859643
2.31361	1897361.7569588972
2.31555	1367515.534438501
2.31749	919652.2519221222
2.31943	554817.9889794118
2.32137	518085.4293477557
2.32331	520888.6248835027
2.32524	554997.2671140899
2.32718	551730.4549685522
2.32911	544681.4361069344
2.33104	532997.0020273582
2.33297	516706.91042978206
2.3349	498298.97220153234
2.33683	476371.5360788553
2.33876	449917.7078739116
2.34068	421178.24376613024
2.34261	391043.75948544685
2.34453	372369.9378427972
2.34646	366477.38028277276
2.34838	398357.38272776455
2.3503	446001.1564326321
2.35223	521963.2740083902
2.35415	603786.2129382654
2.35607	690092.5801520123
2.35799	797833.2007288624
2.35991	904406.4159075546
2.36183	1009570.6935367221
2.36375	977955.6392503515
2.36566	883463.3930236121
2.36758	657539.7565951955
2.3695	470285.4302216492
2.37142	307819.12311407726
2.37334	319384.5823948411
2.37526	355937.5875571225
2.37718	432617.900720993
2.3791	491138.8279063828
2.38101	540478.198908215
2.38293	569111.6371692237
2.38485	605214.8178935541
2.38677	648944.9988172669
2.3887	687309.6314782547
2.39062	717930.9019496675
2.39254	727830.8807861034
2.39446	736142.1320595556
2.39639	743472.9517502415
2.39831	778277.251940173
2.40024	801050.8042886824
2.40216	799758.6563691789
2.40409	795500.8413129945
2.40602	797753.8214222844
2.40795	891620.8827536349
2.40989	998432.4203095968
2.41182	1119936.456928564
2.41376	1148005.8672859105
2.4157	1147359.294724833
2.41764	1114745.6446551036
2.41958	1112061.4316924214
2.42152	1133712.3685270634
2.42347	1158066.2883064582
2.42542	1206904.2284185772
2.42737	1315940.0616256082
