#wavelength	surface flux
0.8	24244909.618865952
0.8002000000000001	24552014.79556089
0.8004000500000003	24888204.712286554
0.8006001500125003	25224771.685486212
0.8008003000500035	25561422.8004292
0.8010005001250161	25898158.078151077
0.8012007502500472	26234977.539691895
0.8014010504376099	26573959.00004658
0.8016014007002193	26913721.203259796
0.8018018010503944	27253568.34702381
0.8020022515006572	27593500.452573918
0.8022027520635323	27933517.541150123
0.8024033027515483	28268747.595860783
0.8026039035772362	28599287.050587665
0.8028045545531306	28929909.140178245
0.8030052556917691	29260613.885291383
0.803206007005692	29591401.30659051
0.8034068085074435	29921404.80232583
0.8036076602095705	30249061.529173918
0.8038085621246229	30576800.17020346
0.8040095142651542	30904620.74589346
0.8042105166437206	31232523.276727274
0.8044115692728815	31560425.5551117
0.8046126721651998	31884873.03438414
0.8048138253332411	32209401.625526138
0.8050150287895745	32534011.348816223
0.805216282546772	32858702.224537045
0.8054175866174087	33183474.272976622
0.8056189410140631	33544928.373459697
0.8058203457493168	33916833.25445063
0.8060218008357541	34288831.11166133
0.8062233062859632	34660921.96833652
0.8064248621125346	35033105.84772563
0.806626468328063	35416300.14094391
0.8068281249451449	35808966.931005895
0.8070298319763813	36201731.887765884
0.8072315894343755	36594595.03576476
0.8074333973317341	36987556.39955079
0.8076352556810671	37378090.07169873
0.8078371644949874	37762641.03720767
0.8080391237861113	38147288.14045808
0.8082411335670578	38532031.40548406
0.8084431938504498	38916870.8563267
0.8086453046489125	39302855.83910993
0.8088474659750746	39708473.815283984
0.8090496778415686	40114193.195952624
0.809251940261029	40520014.00646614
0.8094542532460944	40925936.27218263
0.8096566168094059	41331960.01846509
0.8098590309636085	41754143.67866794
0.8100614957213493	42180191.48629541
0.8102640110952797	42606345.80587484
0.8104665770980536	43032606.66403433
0.8106691937423283	43458974.08740853
0.8108718610407639	43882533.23992761
0.8110745790060241	44303969.4397102
0.8112773476507757	44725510.9985431
0.8114801669876885	45147157.9427656
0.8116830370294355	45568910.29872391
0.8118859577886929	45991049.11881917
0.8120889292781401	46413877.177009396
0.8122919515104597	46836810.942214146
0.8124950244983374	47259850.44086021
0.8126981482544621	47682995.69938088
0.8129013227915257	48110441.05308055
0.8131045481222237	48586018.74586184
0.8133078242592543	49061715.33306638
0.8135111512153191	49537530.844417594
0.813714529003123	50013465.3096467
0.8139179576353739	50489518.7584922
0.8141214371247829	51009158.54294551
0.8143249674840641	51537357.282240495
0.814528548725935	52065688.07121997
0.8147321808631167	52594150.94289742
0.8149358639083326	53122745.93029262
0.8151395978743097	53553006.82012691
0.8153433827737784	53916847.34789132
0.8155472186194719	54280778.83578755
0.8157511054241268	54644801.30655568
0.815955043200483	55008914.78294175
0.8161590319612831	55065690.359194465
0.8163630717192736	54559154.09190346
0.8165671624872033	54052491.19054621
0.8167713042778252	53545701.62346311
0.8169754971038948	53038785.35898799
0.8171797409781707	52296913.737348385
0.8173840359134155	49680146.98107109
0.8175883819223938	47062726.03310775
0.8177927790178745	44444650.72990592
0.8179972272126291	41825920.9078776
0.8182017265194322	39206536.40339642
0.8184062769510622	38414228.51270219
0.8186108785203001	37902983.36493232
0.8188155312399301	37391610.405876204
0.8190202351227402	36880109.60357975
0.819224990181521	36368480.92608305
0.8194297964290664	38631408.691016495
0.8196346538781738	42567338.25785849
0.8198395625416434	46504251.80709064
0.8200445224322789	50442149.584711745
0.820249533562887	54381031.83677609
0.8204545959462778	57455656.36102333
0.8206597095952644	59138465.17920985
0.8208648745226633	60821694.69960222
0.8210700907412941	62505345.02737442
0.8212753582639793	64189416.26772685
0.8214806771035456	65743713.360897645
0.8216860472728215	66496238.18931224
0.8218914687846397	67248951.14893398
0.822096941651836	68001852.28679602
0.822302465887249	68754941.64994207
0.8225080415037209	69508219.28542933
0.8227136685140968	70154971.17123601
0.8229193469312254	70789770.46785986
0.8231250767679583	71424728.46430811
0.8233308580371503	72059845.2002551
0.8235366907516598	72695120.71538655
0.8237425749243477	73451020.488988
0.8239485105680789	74270958.03822918
0.824154497695721	75091100.57185715
0.824360536320145	75911448.14111868
0.8245666264542252	76732000.79727249
0.8247727681108388	77418863.9731191
0.8249789613028664	77914136.57043327
0.8251852060431922	78409532.98589721
0.825391502344703	78905053.2504648
0.8255978502202894	79400697.39509897
0.8258042496828445	79861288.99072945
0.8260107007452654	80151158.77881354
0.8262172034204517	80441101.03434436
0.8264237577213068	80731115.77543913
0.8266303636607373	81021203.02021931
0.8268370212516525	81311362.78681053
0.8270437305069654	81687087.90047808
0.8272504914395923	82069587.6526714
0.8274573040624523	82452183.02980284
0.8276641683884679	82834874.05577825
0.8278710844305652	83217660.7545106
0.8280780522016729	83626810.34991287
0.8282850717147234	84048068.92118979
0.8284921429826521	84469432.8071091
0.8286992660183978	84890902.03400022
0.8289064408349024	85312476.62819776
0.8291136674451112	85739045.93843034
0.8293209458619727	86171887.08151923
0.8295282760984382	86604836.43489334
0.829735658167463	87037894.02560629
0.8299430920820048	87471059.88071635
0.8301505778550254	87921189.04597129
0.8303581154994891	88438704.05885825
0.8305657050283641	88956348.45049895
0.8307733464546212	89474122.25323716
0.8309810397912352	89992025.4994269
0.8311887850511829	90510058.22142716
0.8313965822474458	91139672.84054393
0.8316044313930077	91774617.95824057
0.8318123325008561	92409721.81221722
0.8320202855839813	93044984.44215706
0.8322282906553774	93680405.88775446
0.8324363477280413	94255592.72552124
0.8326444568149735	94806609.16477646
0.8328526179291771	95357763.35814086
0.8330608310836596	95909055.34005444
0.8332690962914304	96460485.14496276
0.8334774135655034	96920901.32705225
0.833685782918895	97279613.4163772
0.8338942043646247	97638415.18372425
0.834102677915716	97997306.6515134
0.834311203585195	98356287.84216921
0.8345197813860912	98733612.591482
0.8347284113314379	99172475.71477497
0.8349370934342709	99611448.55384849
0.8351458277076294	100050531.13613126
0.8353546141645565	100489723.48906034
0.8355634528180977	100929025.64007746
0.8357723436813022	101408081.63765384
0.8359812867672226	101887746.90187635
0.8361902820889144	102367532.08241464
0.8363993296594368	102847437.20924823
0.8366084294918518	103327462.31236367
0.8368175815992247	103800475.7706995
0.8370267859946247	104271151.26852669
0.8372360426911234	104741944.4352282
0.8374453517017962	105212855.30022132
0.8376547130397217	105683883.89293064
0.8378641267179816	106208032.64225066
0.8380735927496613	106784904.58704497
0.8382831111478488	107361920.74982513
0.8384926819256358	107939081.1666457
0.8387023050961173	108516385.87357096
0.8389119806723914	109037589.64302722
0.8391217086675596	109400631.16281062
0.8393314890947265	109763763.44297369
0.8395413219670003	110126986.50620684
0.8397512072974922	110490300.37520605
0.8399611450993165	110855633.98721193
0.8401711353855914	111316848.13931237
0.8403811781694378	111778177.5949507
0.8405912734639802	112239622.38295308
0.8408014212823464	112701182.53215265
0.8410116216376671	113162858.07138948
0.8412218745430766	113342584.51637924
0.8414321800117124	113440286.00415285
0.8416425380567154	113538011.91729845
0.8418529486912297	113635762.26192236
0.8420634119284025	113733537.04413235
0.8422739277813847	114246623.64818987
0.8424844962633302	115125722.81875038
0.842695117387396	116005041.76410241
0.8429057911667428	116884580.53919081
0.8431165176145345	117764339.1989734
0.8433272967439382	118037067.06078084
0.8435381285681244	116828610.16472818
0.8437490131002665	115619851.15445177
0.8439599503535415	114410789.95442356
0.84417094034113	113201426.48909447
0.8443819830762154	112040228.57022394
0.8445930785719846	111855130.08541347
0.8448042268416277	111669985.3259819
0.8450154278983382	111484794.2803605
0.8452266817553128	111299556.93697771
0.8454379884257517	111114273.28425905
0.8456493479228583	111486759.02343763
0.845860760259839	111993666.61177434
0.846072225449904	112500700.92700814
0.8462837435062666	113007862.00082085
0.8464953144421433	113515149.86490229
0.8467069382707537	114034350.63220686
0.8469186150053215	114562868.0880728
0.847130344659073	115091517.67330286
0.8473421272452377	115620299.42092872
0.8475539627770492	116149213.363992
0.8477658512677435	116646544.23390435
0.8479777927305605	117076656.16984653
0.8481897871787432	117506875.63377261
0.848401834625538	117937202.65256491
0.8486139350841944	118367637.25311163
0.8488260885679657	118737059.78429435
0.8490382950901076	118361547.49369663
0.8492505546638802	117985941.32502605
0.8494628673025462	117610241.25481345
0.8496752330193721	117234447.25958273
0.8498876518276269	116858559.31585371
0.8501001237405839	112919345.2630917
0.8503126487715191	108267862.69178988
0.850525226933712	103615217.24984783
0.8507378582404455	98961408.64654534
0.8509505427050057	94306436.59108931
0.8511632803406821	90090861.65999487
0.8513760711607672	86175936.35523865
0.8515889151785576	82260032.31915015
0.8518018124073523	78343149.30705592
0.8520147628604541	74425287.07421097
0.8522277665511693	73114241.77391078
0.8524408234928071	76625672.92796917
0.8526539336986805	80137981.93981704
0.8528670971821053	83651169.02891809
0.8530803139564007	87165234.41478726
0.8532935840348901	90901817.33190224
0.8535069074308987	96511189.1332591
0.8537202841577566	102121963.27757101
0.8539337142287962	107734140.11541963
0.8541471976573534	113347719.99747421
0.8543607344567677	118962703.27450033
0.8545743246403821	120059613.34852588
0.8547879682215422	120439053.05555646
0.8550016652135977	120818587.62251373
0.8552154156299011	121198217.07311277
0.8554292194838088	121577941.43107472
0.8556430767886797	121645422.4934016
0.855856987557877	121523276.90406801
0.8560709518047664	121401100.77833714
0.8562849695427177	121278894.1085748
0.8564990407851035	121156656.88714498
0.8567131655452999	120783718.0026288
0.8569273438366862	119999952.91423506
0.8571415756726455	119215991.88456906
0.8573558610665638	118431834.86464538
0.8575702000318304	117647481.80546755
0.8577845925818384	117182469.26666062
0.857999038729984	118713283.85054485
0.8582135384896665	120244481.13807471
0.858428091874289	121776061.22492653
0.8586426988972576	123308024.20679966
0.8588573595719821	124840370.17941877
0.8590720739118751	124306763.65182039
0.8592868419303532	123529396.58272763
0.8595016636408359	122751835.17186758
0.8597165390567462	121974079.37065509
0.8599314681915105	121196129.13049209
0.8601464510585584	118924620.66291128
0.860361487671323	115859877.26976082
0.8605765780432408	112794367.69076295
0.8607917221877518	109728091.73436783
0.8610069201182988	106661049.20898443
0.8612221718483286	101120032.12853056
0.8614374773912907	92012166.05865332
0.8616528367606385	82902023.02226108
0.8618682499698288	73789602.450104
0.8620837170323213	64674903.77280537
0.8622992379615795	57056296.180851124
0.8625148127710699	56850641.82601338
0.8627304414742627	56644936.0575869
0.8629461240846313	56439178.862718284
0.8631618606156526	56233370.228550926
0.8633776510808066	56027510.14222507
0.8635934954935769	59006375.3589319
0.8638093938674504	62247047.20372165
0.8640253462159173	65488529.21647249
0.8642413525524714	68730821.59972644
0.8644574128906095	71973924.55607554
0.8646735272438323	73852603.15086745
0.8648896956256433	75096879.24759479
0.8651059180495498	76341466.4133464
0.8653221945290621	77586364.72588824
0.8655385250776946	78831574.26300997
0.8657549097089641	80474403.46587473
0.8659713484363913	82626285.41959813
0.8661878412735006	84778705.34381096
0.866404388233819	86931663.37300456
0.8666209893308775	89085159.64170446
0.8668376445782103	90784614.77113666
0.8670543539893549	90629125.00747356
0.8672711175778525	90473596.37136942
0.8674879353572469	90318028.85310644
0.8677048073410862	90162422.44296384
0.8679217335429217	90006777.1312186
0.8681387139763074	90366266.48576227
0.8683557486548015	90751438.22346017
0.8685728375919655	91136706.25409298
0.8687899808013633	91522070.6017326
0.8690071782965637	91907531.29045963
0.869224430091138	91401561.75479937
0.8694417361986609	90532704.68448177
0.8696590966327107	89663630.3998968
0.869876511406869	88794338.84674062
0.8700939805347206	87924829.97069658
0.8703115040298544	87403638.23437642
0.870529081905862	87280791.98026866
0.8707467141763385	87157915.0145974
0.8709644008548827	87035007.32968475
0.8711821419550964	86912068.91785093
0.8713999374905854	86833024.78009544
0.871617787474958	86905561.32653356
0.8718356919218269	86978116.00710835
0.8720536508448075	87050688.8263533
0.8722716642575187	87123279.788803
0.8724897321735832	87195888.89899336
0.8727078546066265	88488616.54389867
0.8729260315702784	89800229.09993747
0.873144263078171	91112169.55911389
0.8733625491439405	92424438.00340521
0.8735808897812266	93737034.51480812
0.8737992850036719	93841335.91882473
0.874017734824923	93517588.9138511
0.8742362392586293	93193760.97212633
0.874454798318444	92869852.07341617
0.8746734120180236	92545862.19748135
0.8748920803710283	92333140.6966348
0.875110803391121	92232261.52471599
0.8753295810919689	92131357.13300414
0.875548413487242	92030427.51519437
0.8757673005906139	91929472.66498014
0.8759862424157616	92716634.67155677
0.8762052389763657	96073874.53580986
0.8764242902861098	99431953.71002668
0.8766433963586814	102790872.40403795
0.8768625572077712	106150630.82772377
0.8770817728470732	109475883.86035508
0.8773010432902849	110042293.97289363
0.8775203685511077	110608845.6879611
0.8777397486432454	111175539.04095666
0.8779591835804065	111742374.06729114
0.8781786733763015	112309350.80238147
0.8783982180446457	110498880.10601845
0.878617817599157	107980668.4527754
0.8788374720535569	105461827.24662025
0.8790571814215703	102942356.33016418
0.8792769457169257	100422255.54597893
0.879496764953355	99611146.22142287
0.8797166391445934	100336896.12435147
0.8799365683043796	101062827.46475585
0.8801565524464557	101788940.28799532
0.8803765915845676	102515234.6394413
0.8805966857324639	103214655.87401229
0.880816834903897	103846298.69211398
0.881037039112623	104478099.42092045
0.8812572983724012	105110058.09990905
0.8814776126969944	105742174.76856768
0.8816979821001687	106365539.91940068
0.8819184065956938	106779328.67567237
0.8821388861973429	107193220.87913354
0.8823594209188923	107607216.55564518
0.882580010774122	108021315.73107576
0.8828006557768155	108435518.43130043
0.8830213559407598	110796281.48608913
0.8832421112797452	113647188.375752
0.8834629218075651	116498807.99213558
0.8836837875380171	119351140.51342413
0.8839047084849018	122204186.11784343
0.884125684662023	122050125.99026574
0.8843467160831886	119485644.56714028
0.8845678027622095	116920522.02365905
0.8847889447129001	114354758.19954146
0.8850101419490785	111788352.93446831
0.8852313944845657	111835250.6332472
0.885452702333187	117603764.10755618
0.8856740655087704	123373719.71023288
0.8858954840251476	129145117.8018087
0.8861169578961539	134917958.74290475
0.886338487135628	140007551.692026
0.886560071757412	135986952.6613227
0.8867817117753515	131965348.48086186
0.8870034072032955	127942738.89935409
0.8872251580550963	123919123.66545564
0.8874469643446101	119894502.52774625
0.8876688260856963	119678529.5820513
0.8878907432922178	120250959.43386453
0.8881127159780409	120823532.39314035
0.8883347441570356	121396248.49565665
0.8885568278430749	121969107.777198
0.8887789670500358	121154800.010469
0.8890011617917983	119356167.3292515
0.8892234120822464	117557084.98986289
0.8894457179352669	115757552.87989087
0.8896680793647509	113957570.88688996
0.8898904963845921	112816629.88844568
0.8901129690086883	112933729.82348572
0.8903354972509405	113050859.03350951
0.8905580811252535	113168017.52583589
0.8907807206455347	113285205.30778518
0.8910034158256963	113489370.91491188
0.8912261666796527	114470643.41856334
0.8914489732213227	115452161.24034098
0.8916718354646282	116433924.44157502
0.8918947534234944	117415933.08360843
0.8921177271118502	118398187.22780174
0.8923407565436284	117498146.7326021
0.8925638417327644	116290787.731503
0.8927869826931977	115083126.89065321
0.8930101794388711	113875164.13459328
0.8932334319837308	112666899.38784453
0.8934567403417267	112017465.5155791
0.8936801045268123	111715304.58911431
0.8939035245529441	111413068.1224181
0.8941270004340824	111110756.0966051
0.894350532184191	110808368.49278572
0.8945741198172371	113123223.92255536
0.8947977633471915	119779168.8113467
0.8950214627880284	126436777.68635994
0.8952452181537254	133096050.96358798
0.8954690294582639	139756989.05913934
0.8956928967156286	146088448.7370843
0.8959168199398075	150272486.94037968
0.8961407991447926	154457571.15322694
0.8963648343445789	158643701.6371273
0.896588925553165	162830878.6536463
0.8968130727845534	167019102.46441993
0.8970372760527496	167117824.0620966
0.8972615353717629	166704760.2505091
0.8974858507556059	166291593.1729687
0.8977102222182949	165878322.80365896
0.8979346497738496	165464949.1167567
0.8981591334362931	165295158.2804468
0.8983836732196523	165258591.24600726
0.8986082691379572	165222015.06980914
0.8988329212052417	165185429.74956694
0.8990576294355432	165148835.2829947
0.8992823938429022	165053779.1863959
0.8995072144413631	164871787.914089
0.8997320912449734	164689751.14396408
0.8999570242677847	164507668.86464664
0.9001820135238516	164325541.06475937
0.9004070590272328	164865065.11129892
0.9006321607919896	169188107.91288278
0.9008573188321878	173512231.47517145
0.9010825331618959	177837436.06834862
0.9013078037951865	182163721.96267477
0.9015331307461353	186491089.42847222
0.9017585140288219	190142127.61154875
0.9019839536573292	193735731.37816265
0.9022094496457435	197330233.5457156
0.9024350020081551	200925634.3388145
0.9026606107586572	204521933.9821105
0.902886275911347	205963664.45573452
0.9031119974803249	206366669.6336195
0.9033377754796951	206769775.56279895
0.903563609923565	207172982.2684605
0.903789500826046	207576289.77579877
0.9040154482012526	206767771.8586854
0.904241452063303	204389107.1724753
0.9044675124263188	202009847.82009423
0.9046936293044254	199629993.65287542
0.9049198027117517	197249544.52211362
0.9051460326624297	195077189.5451515
0.9053723191705955	193792938.92304933
0.9055986622503881	192508367.23829284
0.9058250619159507	191223474.41061512
0.9060515181814298	189938260.35972965
0.9062780310609752	188652725.00533235
0.9065046005687405	192927375.56125516
0.906731226718883	197513299.04202333
0.9069579095255627	202100369.0036557
0.907184649002944	206688585.73277882
0.907411445165195	211277949.51608887
0.9076382980264862	214335352.06768647
0.907865207600993	216756821.81915402
0.9080921739028933	219178896.93805873
0.9083191969463691	221601577.57574275
0.9085462767456058	224024863.88358742
0.9087734133147922	224896416.41494665
0.9090006066681211	223975215.35706392
0.909227856819788	223053783.99891797
0.9094551637839932	222132122.2829312
0.9096825275749393	221210230.15151575
0.9099099482068329	220905856.37358034
0.9101374256938848	222796896.54315504
0.9103649600503083	224688409.47277126
0.9105925512903209	226580395.28061947
0.9108201994281437	228472854.08492166
0.9110479044780008	230365786.00392276
0.9112756664541204	234745864.73903546
0.911503485370734	239183958.01375967
0.9117313612420768	243623160.8118026
0.9119592940823873	248063473.41054368
0.912187283905908	252504896.08743587
0.9124153307268845	253436582.767885
0.9126434345595664	253094270.35866684
0.9128715954182063	252751872.37134668
0.9130998133170609	252409388.78452954
0.9133280882703902	252066819.5768157
0.913556420292458	251827317.05342808
0.9137848093975312	251694137.17194653
0.9140132555998806	251560923.9954946
0.9142417589137806	251427677.51574856
0.9144703193535092	251294397.7243825
