#wavelength	surface flux
0.8	1239651.0319245919
0.8002000000000001	1256961.3239779035
0.8004000500000003	1275316.8733475255
0.8006001500125003	1293687.5260197883
0.8008003000500035	1312062.7713552203
0.8010005001250161	1330442.610501995
0.8012007502500472	1348827.0446085297
0.8014010504376099	1365969.4287981552
0.8016014007002193	1382698.5102517207
0.8018018010503944	1399431.7739756496
0.8020022515006572	1416169.221015517
0.8022027520635323	1432910.8524171298
0.8024033027515483	1450674.9508269068
0.8026039035772362	1469441.3665441645
0.8028045545531306	1488212.473865352
0.8030052556917691	1506988.273963379
0.803206007005692	1525768.768011414
0.8034068085074435	1544519.191526049
0.8036076602095705	1563176.8494106405
0.8038085621246229	1581839.1717096884
0.8040095142651542	1600506.1595893227
0.8042105166437206	1619177.8142159204
0.8044115692728815	1637850.2586994804
0.8046126721651998	1656360.5692433624
0.8048138253332411	1674875.5073648652
0.8050150287895745	1693395.0742209158
0.805216282546772	1711919.2709686754
0.8054175866174087	1730448.0987656119
0.8056189410140631	1748487.0003024945
0.8058203457493168	1766390.4194423044
0.8060218008357541	1784298.3144368764
0.8062233062859632	1802210.6864052059
0.8064248621125346	1820127.5364665152
0.806626468328063	1839315.2223337616
0.8068281249451449	1859595.352239704
0.8070298319763813	1879880.5521781475
0.8072315894343755	1900170.8234165607
0.8074333973317341	1920466.1672227911
0.8076352556810671	1938849.2917927199
0.8078371644949874	1952621.7675663684
0.8080391237861113	1966397.686458964
0.8082411335670578	1980177.049331274
0.8084431938504498	1993959.8570443166
0.8086453046489125	2007546.2395722484
0.8088474659750746	2017414.7808651973
0.8090496778415686	2027285.789293483
0.809251940261029	2037159.2654738682
0.8094542532460944	2047035.2100233072
0.8096566168094059	2056913.6235588721
0.8098590309636085	2070900.5763451017
0.8100614957213493	2085852.0849976775
0.8102640110952797	2100807.3315274185
0.8104665770980536	2115766.316868798
0.8106691937423283	2130729.0419565183
0.8108718610407639	2145930.177252968
0.8110745790060241	2161314.5523039396
0.8112773476507757	2176702.773448688
0.8114801669876885	2192094.8416487183
0.8116830370294355	2207490.75786579
0.8118859577886929	2221005.3455641004
0.8120889292781401	2230607.715811609
0.8122919515104597	2240212.486651679
0.8124950244983374	2249819.658684459
0.8126981482544621	2259429.2325102463
0.8129013227915257	2269945.5844789287
0.8131045481222237	2290819.8061318737
0.8133078242592543	2311699.2463402348
0.8135111512153191	2332583.906408642
0.813714529003123	2353473.7876420687
0.8139179576353739	2374368.8913458074
0.8141214371247829	2409491.577929175
0.8143249674840641	2447380.9998318935
0.814528548725935	2485279.894090065
0.8147321808631167	2523188.2630718523
0.8149358639083326	2561106.109145873
0.8151395978743097	2591867.272038264
0.8153433827737784	2617794.365073456
0.8155472186194719	2643727.939881897
0.8157511054241268	2669667.9980840352
0.815955043200483	2695614.541300742
0.8161590319612831	2726947.079224541
0.8163630717192736	2768144.743088462
0.8165671624872033	2809352.7063683034
0.8167713042778252	2850570.9716390055
0.8169754971038948	2891799.5414760457
0.8171797409781707	2925892.174393925
0.8173840359134155	2902942.6508682305
0.8175883819223938	2879987.389961682
0.8177927790178745	2857026.390239893
0.8179972272126291	2834059.6502681677
0.8182017265194322	2811087.1686114725
0.8184062769510622	2832582.6155230836
0.8186108785203001	2860927.276125954
0.8188155312399301	2889279.0228939373
0.8190202351227402	2917637.857598644
0.819224990181521	2946003.782012009
0.8194297964290664	2997693.470229837
0.8196346538781738	3063450.1637533447
0.8198395625416434	3129223.2964502065
0.8200445224322789	3195012.8724302705
0.820249533562887	3260818.89580431
0.8204545959462778	3314920.0177685497
0.8206597095952644	3350169.4639304834
0.8208648745226633	3385427.7224539844
0.8210700907412941	3420694.795542111
0.8212753582639793	3455970.685398474
0.8214806771035456	3487362.3281029616
0.8216860472728215	3494775.78829314
0.8218914687846397	3502191.101848366
0.822096941651836	3509608.2692319853
0.822302465887249	3517027.290907446
0.8225080415037209	3524448.1673383294
0.8227136685140968	3531965.2631379776
0.8229193469312254	3539494.9505147696
0.8231250767679583	3547026.520313408
0.8233308580371503	3554559.9730044925
0.8235366907516598	3562095.309058755
0.8237425749243477	3607653.4467518446
0.8239485105680789	3673374.728801371
0.824154497695721	3739112.441171367
0.824360536320145	3804866.587969469
0.8245666264542252	3870637.1733042668
0.8247727681108388	3923192.6750331395
0.8249789613028664	3956811.2797021465
0.8251852060431922	3990438.28902235
0.825391502344703	4024073.705094869
0.8255978502202894	4057717.530021436
0.8258042496828445	4091773.9331912054
0.8260107007452654	4127801.717354176
0.8262172034204517	4163838.508463151
0.8264237577213068	4199884.308769912
0.8266303636607373	4235939.120526766
0.8268370212516525	4272002.945986542
0.8270437305069654	4287123.672866221
0.8272504914395923	4300610.908347465
0.8274573040624523	4314101.515637583
0.8276641683884679	4327595.495579512
0.8278710844305652	4341092.849016442
0.8280780522016729	4369804.75613998
0.8282850717147234	4405476.843151794
0.8284921429826521	4441157.848185325
0.8286992660183978	4476847.773470142
0.8289064408349024	4512546.621236254
0.8291136674451112	4543532.277769942
0.8293209458619727	4568571.329134085
0.8295282760984382	4593616.640261036
0.829735658167463	4618668.212715799
0.8299430920820048	4643726.048063642
0.8301505778550254	4669405.039255187
0.8303581154994891	4697544.661774834
0.8305657050283641	4725691.319200139
0.8307733464546212	4753845.0132897785
0.8309810397912352	4782005.745802986
0.8311887850511829	4810173.518499267
0.8313965822474458	4869252.750778847
0.8316044313930077	4929781.190365745
0.8318123325008561	4990324.762062595
0.8320202855839813	5050883.46965234
0.8322282906553774	5111457.316918988
0.8324363477280413	5149404.730555668
0.8326444568149735	5178246.211985023
0.8328526179291771	5207094.903784701
0.8330608310836596	5235950.807757373
0.8332690962914304	5264813.925706
0.8334774135655034	5281387.091010938
0.833685782918895	5284228.058648486
0.8338942043646247	5287069.73652794
0.834102677915716	5289912.124826867
0.834311203585195	5292755.223722867
0.8345197813860912	5303776.488202687
0.8347284113314379	5342326.585609269
0.8349370934342709	5380886.320540181
0.8351458277076294	5419455.695404779
0.8353546141645565	5458034.712613158
0.8355634528180977	5496623.374575822
0.8357723436813022	5512363.946647323
0.8359812867672226	5527826.219051014
0.8361902820889144	5543292.357022799
0.8363993296594368	5558762.36152908
0.8366084294918518	5574236.233536494
0.8368175815992247	5625635.703637115
0.8370267859946247	5689419.836245798
0.8372360426911234	5753219.914887613
0.8374453517017962	5817035.943549082
0.8376547130397217	5880867.926217708
0.8378641267179816	5931283.506400017
0.8380735927496613	5968383.297125668
0.8382831111478488	6005492.362798978
0.8384926819256358	6042610.705738687
0.8387023050961173	6079738.328264162
0.8389119806723914	6114172.116052945
0.8391217086675596	6141007.058786146
0.8393314890947265	6167848.71025501
0.8395413219670003	6194697.072136744
0.8397512072974922	6221552.146108967
0.8399611450993165	6248323.551554464
0.8401711353855914	6270613.297373072
0.8403811781694378	6292908.61562813
0.8405912734639802	6315209.507712756
0.8408014212823464	6337515.975020415
0.8410116216376671	6359828.018944898
0.8412218745430766	6384960.763714535
0.8414321800117124	6410918.88378325
0.8416425380567154	6436883.493381996
0.8418529486912297	6462854.594133146
0.8420634119284025	6488832.187659463
0.8422739277813847	6567094.353777699
0.8424844962633302	6691435.100910509
0.842695117387396	6815806.933229944
0.8429057911667428	6940209.858507463
0.8431165176145345	7064643.884516361
0.8433272967439382	7144825.56056507
0.8435381285681244	7117007.647022818
0.8437490131002665	7089182.779002187
0.8439599503535415	7061350.954764567
0.84417094034113	7033512.172570869
0.8443819830762154	7009465.259775112
0.8445930785719846	7061940.072091011
0.8448042268416277	7114428.003109961
0.8450154278983382	7166929.056111658
0.8452266817553128	7219443.234376602
0.8454379884257517	7271970.541186118
0.8456493479228583	7359893.143153575
0.845860760259839	7456358.175940296
0.846072225449904	7552847.324985211
0.8462837435062666	7649360.596317408
0.8464953144421433	7745897.995967493
0.8467069382707537	7817009.256231294
0.8469186150053215	7868300.587556258
0.847130344659073	7919604.741714067
0.8473421272452377	7970921.721910366
0.8475539627770492	8022251.531351765
0.8477658512677435	8069232.315357568
0.8479777927305605	8106963.013712935
0.8481897871787432	8144703.144742882
0.848401834625538	8182452.710805607
0.8486139350841944	8220211.714259825
0.8488260885679657	8251788.309968954
0.8490382950901076	8207896.3769667875
0.8492505546638802	8163993.470981347
0.8494628673025462	8120079.589269428
0.8496752330193721	8076154.729087014
0.8498876518276269	8032218.887689615
0.8501001237405839	7705787.982488738
0.8503126487715191	7322886.686002479
0.850525226933712	6939889.66419231
0.8507378582404455	6556796.893126693
0.8509505427050057	6173608.348868087
0.8511632803406821	5877537.754108701
0.8513760711607672	5641118.587845844
0.8515889151785576	5404640.316791054
0.8518018124073523	5168102.926168699
0.8520147628604541	4931506.401198827
0.8522277665511693	4864593.818958275
0.8524408234928071	5111583.838932365
0.8526539336986805	5358635.606411516
0.8528670971821053	5605749.136832551
0.8530803139564007	5852924.445635901
0.8532935840348901	6133846.519047227
0.8535069074308987	6699325.6142683
0.8537202841577566	7264946.079263654
0.8539337142287962	7830707.94937532
0.8541471976573534	8396611.25995416
0.8543607344567677	8962656.046360748
0.8545743246403821	9177331.74193791
0.8547879682215422	9336237.205271706
0.8550016652135977	9495182.394971317
0.8552154156299011	9654167.32096836
0.8554292194838088	9813191.993197018
0.8556430767886797	9926305.830520542
0.855856987557877	10011547.961030904
0.8560709518047664	10096811.402073842
0.8562849695427177	10182096.158977069
0.8564990407851035	10267402.237069549
0.8567131655452999	10343829.988657484
0.8569273438366862	10405694.46869657
0.8571415756726455	10467574.414855676
0.8573558610665638	10529469.831001345
0.8575702000318304	10591380.721000984
0.8577845925818384	10655006.45841604
0.857999038729984	10729262.991420347
0.8582135384896665	10803538.08855789
0.858428091874289	10877831.754469723
0.8586426988972576	10952143.993798012
0.8588573595719821	11026474.811186159
0.8590720739118751	11073075.337899763
0.8592868419303532	11116415.839660345
0.8595016636408359	11159767.176546365
0.8597165390567462	11203129.351266593
0.8599314681915105	11246502.366530512
0.8601464510585584	11191722.604442885
0.860361487671323	11084824.582844239
0.8605765780432408	10977899.836740224
0.8607917221877518	10870948.359449593
0.8610069201182988	10763970.14428967
0.8612221718483286	10528069.325662667
0.8614374773912907	10106288.707717355
0.8616528367606385	9684402.644617671
0.8618682499698288	9262411.110001946
0.8620837170323213	8840314.077502638
0.8622992379615795	8493798.13933578
0.8625148127710699	8521739.650639385
0.8627304414742627	8549688.14732082
0.8629461240846313	8577643.631126428
0.8631618606156526	8605606.103802992
0.8633776510808066	8633575.567097718
0.8635934954935769	8816385.016748153
0.8638093938674504	9011932.10931484
0.8640253462159173	9207528.088654663
0.8642413525524714	9403172.966989318
0.8644574128906095	9598866.756543513
0.8646735272438323	9727727.022956997
0.8648896956256433	9825517.313548954
0.8651059180495498	9923332.051713565
0.8653221945290621	10021171.243562624
0.8655385250776946	10119034.895209782
0.8657549097089641	10247020.834519273
0.8659713484363913	10413570.59841771
0.8661878412735006	10580161.999757202
0.866404388233819	10746795.048947005
0.8666209893308775	10913469.756399028
0.8668376445782103	11049139.507387158
0.8670543539893549	11058126.138090173
0.8672711175778525	11067115.015450869
0.8674879353572469	11076106.140030894
0.8677048073410862	11085099.51239207
0.8679217335429217	11094095.13309634
0.8681387139763074	11189772.575252842
0.8683557486548015	11289779.957098352
0.8685728375919655	11389812.340789447
0.8687899808013633	11489869.732576247
0.8690071782965637	11589952.138711123
0.869224430091138	11612631.960166479
0.8694417361986609	11603812.256867982
0.8696590966327107	11594990.348643662
0.869876511406869	11586166.234942285
0.8700939805347206	11577339.915212488
0.8703115040298544	11589293.56818216
0.870529081905862	11625010.252542013
0.8707467141763385	11660735.866072947
0.8709644008548827	11696470.411007259
0.8711821419550964	11732213.889577784
0.8713999374905854	11765598.746283378
0.871617787474958	11790820.686010512
0.8718356919218269	11816048.931222599
0.8720536508448075	11841283.483495992
0.8722716642575187	11866524.34440744
0.8724897321735832	11891771.515534125
0.8727078546066265	11987868.3838576
0.8729260315702784	12085067.036684133
0.873144263078171	12182289.989173768
0.8733625491439405	12279537.247401536
0.8735808897812266	12376808.817443898
0.8737992850036719	12391279.411578085
0.874017734824923	12376418.266173994
0.8742362392586293	12361553.405483559
0.874454798318444	12346684.82857795
0.8746734120180236	12331812.534528118
0.8748920803710283	12335845.480776392
0.875110803391121	12358881.13665193
0.8753295810919689	12381922.551441448
0.875548413487242	12404969.726584665
0.8757673005906139	12428022.663521668
0.8759862424157616	12516032.093465487
0.8762052389763657	12792001.527564993
0.8764242902861098	13068039.954022834
0.8766433963586814	13344147.390087362
0.8768625572077712	13620323.853010993
0.8770817728470732	13893292.426364712
0.8773010432902849	13910474.528164228
0.8775203685511077	13927660.92548922
0.8777397486432454	13944851.619413523
0.8779591835804065	13962046.611011326
0.8781786733763015	13979245.901357008
0.8783982180446457	13855012.187552638
0.878617817599157	13688672.461053686
0.8788374720535569	13522291.14962319
0.8790571814215703	13355868.242864877
0.8792769457169257	13189403.73037987
0.879496764953355	13136811.881914953
0.8797166391445934	13186623.305365592
0.8799365683043796	13236447.1816721
0.8801565524464557	13286283.513947682
0.8803765915845676	13336132.30530638
0.8805966857324639	13391282.69453671
0.880816834903897	13459731.594559023
0.881037039112623	13528197.60680637
0.8812572983724012	13596680.73555677
0.8814776126969944	13665180.985089388
0.8816979821001687	13732477.608839098
0.8819184065956938	13771054.376371808
0.8821388861973429	13809640.788096443
0.8823594209188923	13848236.84642397
0.882580010774122	13886842.553766062
0.8828006557768155	13925457.91253501
0.8830213559407598	14047299.0655976
0.8832421112797452	14190100.382976133
0.8834629218075651	14332937.400683926
0.8836837875380171	14475810.12764619
0.8839047084849018	14618718.572790215
0.884125684662023	14639675.841783462
0.8843467160831886	14562881.426649874
0.8845678027622095	14486067.812912501
0.8847889447129001	14409234.995771682
0.8850101419490785	14332382.970426591
0.8852313944845657	14451949.406370435
0.885452702333187	15001523.709743828
0.8856740655087704	15551235.406692982
0.8858954840251476	16101084.531566227
0.8861169578961539	16651071.118720435
0.886338487135628	17134777.35286854
0.886560071757412	16734755.167729387
0.8867817117753515	16334632.97704396
0.8870034072032955	15934410.755810684
0.8872251580550963	15534088.479022568
0.8874469643446101	15133666.121665008
0.8876688260856963	15080713.011050604
0.8878907432922178	15099680.593985066
0.8881127159780409	15118652.91881525
0.8883347441570356	15137629.986726664
0.8885568278430749	15156611.798905035
0.8887789670500358	15058696.49368748
0.8890011617917983	14877829.609131653
0.8892234120822464	14696917.507854607
0.8894457179352669	14515960.178552385
0.8896680793647509	14334957.609917697
0.8898904963845921	14187987.499035902
0.8901129690086883	14106001.810267761
0.8903354972509405	14023995.62507745
0.8905580811252535	13941968.938340778
0.8907807206455347	13859921.74493253
0.8910034158256963	13769931.834995408
0.8912261666796527	13609118.970155727
0.8914489732213227	13448265.90209979
0.8916718354646282	13287372.62077668
0.8918947534234944	13126439.116133397
0.8921177271118502	12965465.378114052
0.8923407565436284	12442157.05678368
0.8925638417327644	11859617.850292664
0.8927869826931977	11276933.00899983
0.8930101794388711	10694102.49649671
0.8932334319837308	10111126.27636556
0.8934567403417267	9744335.155310664
0.8936801045268123	9511876.49008712
0.8939035245529441	9279359.710197426
0.8941270004340824	9046784.80111267
0.894350532184191	8814151.748300703
0.8945741198172371	8993343.1689264
0.8947977633471915	9855637.601190431
0.8950214627880284	10718147.607062493
0.8952452181537254	11580873.240435509
0.8954690294582639	12443814.555217387
0.8956928967156286	13284703.297789197
0.8959168199398075	13981288.879222214
0.8961407991447926	14678048.607050769
0.8963648343445789	15374982.524811262
0.896588925553165	16072090.6760508
0.8968130727845534	16769373.10432824
0.8970372760527496	16830226.342255864
0.8972615353717629	16811442.87425359
0.8974858507556059	16792654.710384313
0.8977102222182949	16773861.849474074
0.8979346497738496	16755064.290348597
0.8981591334362931	16985435.148894086
0.8983836732196523	17352130.518931385
0.8986082691379572	17718917.56281095
0.8988329212052417	18085796.303451486
0.8990576294355432	18452766.763777502
0.8992823938429022	18671006.71626267
0.8995072144413631	18668021.454719197
0.8997320912449734	18665035.446860336
0.8999570242677847	18662048.692499515
0.9001820135238516	18659061.1914501
0.9004070590272328	18701139.538842764
0.9006321607919896	18979482.873539258
0.9008573188321878	19257895.794069704
0.9010825331618959	19536378.317830153
0.9013078037951865	19814930.462221585
0.9015331307461353	20093552.244648967
0.9017585140288219	20808121.44656618
0.9019839536573292	21560412.572394866
0.9022094496457435	22312891.77100447
0.9024350020081551	23065559.089414578
0.9026606107586572	23818414.574654046
0.902886275911347	24124903.117089
0.9031119974803249	24216197.613027617
0.9033377754796951	24307514.93259022
0.903563609923565	24398855.08148267
0.903789500826046	24490218.06541241
0.9040154482012526	24398798.57623531
0.904241452063303	24070547.909680985
0.9044675124263188	23742215.180460095
0.9046936293044254	23413800.368056953
0.9049198027117517	23085303.45195055
0.9051460326624297	22835656.70423094
0.9053723191705955	22922059.609272264
0.9055986622503881	23008484.115039766
0.9058250619159507	23094930.22693371
0.9060515181814298	23181397.950355686
0.9062780310609752	23267887.290708452
0.9065046005687405	23397971.159764763
0.906731226718883	23530518.35341066
0.9069579095255627	23663098.683854803
0.907184649002944	23795712.15938156
0.907411445165195	23928358.78827734
0.9076382980264862	24439705.278122775
0.907865207600993	25108439.183483645
0.9080921739028933	25777340.272320658
0.9083191969463691	26446408.58642977
0.9085462767456058	27115644.167617742
0.9087734133147922	27250603.17572275
0.9090006066681211	26768306.61533757
0.909227856819788	26285889.48081293
0.9094551637839932	25803351.742003992
0.9096825275749393	25320693.368760504
0.9099099482068329	24926704.036624808
0.9101374256938848	24848176.360795528
0.9103649600503083	24769629.05304733
0.9105925512903209	24691062.10847221
0.9108201994281437	24612475.52216086
0.9110479044780008	24533869.289203025
0.9112756664541204	25299444.88650787
0.911503485370734	26084535.500801887
0.9117313612420768	26869822.387749486
0.9119592940823873	27655305.59641858
0.912187283905908	28440985.175890088
0.9124153307268845	28433897.168444067
0.9126434345595664	28139007.804513875
0.9128715954182063	27844044.71824298
0.9130998133170609	27549007.89120037
0.9133280882703902	27253897.304951016
0.913556420292458	27099811.17947055
0.9137848093975312	27091203.229108244
0.9140132555998806	27082593.126758344
0.9142417589137806	27073980.87188286
0.9144703193535092	27065366.46394365
