#wavelength	surface flux
0.8	17710257.211595714
0.8002000000000001	17923446.32857491
0.8004000500000003	18177590.363451377
0.8006001500125003	18432211.080976393
0.8008003000500035	18686895.453680813
0.8010005001250161	18941643.497478526
0.8012007502500472	19196455.228286818
0.8014010504376099	19435839.253811695
0.8016014007002193	19670093.976870164
0.8018018010503944	19904407.2636094
0.8020022515006572	20138779.12867042
0.8022027520635323	20373209.586697508
0.8024033027515483	20597230.429478396
0.8026039035772362	20811048.82704375
0.8028045545531306	21024920.67920851
0.8030052556917691	21238845.99933641
0.803206007005692	21452824.800794158
0.8034068085074435	21665874.89118287
0.8036076602095705	21876224.977248
0.8038085621246229	22086627.650834482
0.8040095142651542	22297082.92508949
0.8042105166437206	22507590.81316299
0.8044115692728815	22717538.89100416
0.8046126721651998	22901197.452671323
0.8048138253332411	23084901.928978756
0.8050150287895745	23268652.33140544
0.805216282546772	23452448.671432678
0.8054175866174087	23636290.960544825
0.8056189410140631	23855754.276478957
0.8058203457493168	24085342.509336066
0.8060218008357541	24314988.13925109
0.8062233062859632	24544691.18057371
0.8064248621125346	24774451.647656504
0.806626468328063	25007479.593520008
0.8068281249451449	25243322.831249878
0.8070298319763813	25479225.029789466
0.8072315894343755	25715186.203878514
0.8074333973317341	25951206.368261173
0.8076352556810671	26169659.23091978
0.8078371644949874	26345737.243142914
0.8080391237861113	26521859.27486915
0.8082411335670578	26698025.33710321
0.8084431938504498	26874235.44085301
0.8086453046489125	27050484.64027477
0.8088474659750746	27226685.61425857
0.8090496778415686	27402930.6384861
0.809251940261029	27579219.723969556
0.8094542532460944	27755552.881724536
0.8096566168094059	27931930.122768752
0.8098590309636085	28147423.124501348
0.8100614957213493	28372115.04203113
0.8102640110952797	28596863.13254033
0.8104665770980536	28821667.41007224
0.8106691937423283	29046527.888673622
0.8108718610407639	29264641.38814531
0.8110745790060241	29477607.370424163
0.8112773476507757	29690626.594198775
0.8114801669876885	29903699.072779275
0.8116830370294355	30116824.819479294
0.8118859577886929	30313085.399392497
0.8120889292781401	30474254.687683012
0.8122919515104597	30635464.268295586
0.8124950244983374	30796714.15130332
0.8126981482544621	30958004.346781787
0.8129013227915257	31127455.623584412
0.8131045481222237	31389933.19272306
0.8133078242592543	31652476.381254014
0.8135111512153191	31915085.205582034
0.813714529003123	32177759.682116166
0.8139179576353739	32440499.827269476
0.8141214371247829	32844916.080180224
0.8143249674840641	33276894.07998138
0.814528548725935	33708980.07428222
0.8147321808631167	34141174.09008222
0.8149358639083326	34573476.15438604
0.8151395978743097	34923702.67139864
0.8153433827737784	35218490.041344926
0.8155472186194719	35513351.10813359
0.8157511054241268	35808285.890188895
0.815955043200483	36103294.40593992
0.8161590319612831	36304934.919637054
0.8163630717192736	36335405.2190035
0.8165671624872033	36365883.135944754
0.8167713042778252	36396368.67236527
0.8169754971038948	36426861.83016991
0.8171797409781707	36279679.24969464
0.8173840359134155	34713958.56797222
0.8175883819223938	33147846.456081178
0.8177927790178745	31581342.816161264
0.8179972272126291	30014447.550330963
0.8182017265194322	28447160.560685784
0.8184062769510622	28042698.553544316
0.8186108785203001	27817137.280602407
0.8188155312399301	27591519.61734257
0.8190202351227402	27365845.54966666
0.819224990181521	27140115.06347398
0.8194297964290664	28670783.069518976
0.8196346538781738	31260533.83291277
0.8198395625416434	33850932.03399639
0.8200445224322789	36441977.83463136
0.820249533562887	39033671.39671573
0.8204545959462778	40959750.07386815
0.8206597095952644	41813978.267426915
0.8208648745226633	42668420.018034734
0.8210700907412941	43523075.37908007
0.8212753582639793	44377944.403964795
0.8214806771035456	45151619.01982942
0.8216860472728215	45423913.81327161
0.8218914687846397	45696276.68041218
0.822096941651836	45968707.63826967
0.822302465887249	46241206.70386647
0.8225080415037209	46513773.89422981
0.8227136685140968	46802667.66739779
0.8229193469312254	47093479.33686337
0.8231250767679583	47384363.70924642
0.8233308580371503	47675320.802722394
0.8235366907516598	47966350.63547196
0.8237425749243477	48527721.599305145
0.8239485105680789	49232479.89506089
0.824154497695721	49937414.38039012
0.824360536320145	50642525.09934082
0.8245666264542252	51347812.09597122
0.8247727681108388	51916715.10656351
0.8249789613028664	52290180.27976477
0.8251852060431922	52663738.81925966
0.825391502344703	53037390.748389244
0.8255978502202894	53411136.09050146
0.8258042496828445	53787056.78539877
0.8260107007452654	54173182.434325956
0.8262172034204517	54559404.61466499
0.8264237577213068	54945723.350549206
0.8266303636607373	55332138.666117564
0.8268370212516525	55718650.58551462
0.8270437305069654	55964298.17346815
0.8272504914395923	56198991.99046574
0.8274573040624523	56433744.48091763
0.8276641683884679	56668555.659491934
0.8278710844305652	56903425.54086116
0.8280780522016729	57212398.310375206
0.8282850717147234	57555293.77637961
0.8284921429826521	57898274.96625016
0.8286992660183978	58241341.90141845
0.8289064408349024	58584494.60332029
0.8291136674451112	58927336.08075248
0.8293209458619727	59269762.65550271
0.8295282760984382	59612274.836896166
0.829735658167463	59954872.64633538
0.8299430920820048	60297556.1052265
0.8301505778550254	60639811.37342057
0.8303581154994891	60980101.23345875
0.8305657050283641	61320476.16596229
0.8307733464546212	61660936.19219869
0.8309810397912352	62001481.333442196
0.8311887850511829	62342111.61097035
0.8313965822474458	62892353.33993311
0.8316044313930077	63452457.852967456
0.8318123325008561	64012702.392130576
0.8320202855839813	64573086.99242822
0.8322282906553774	65133611.68887599
0.8324363477280413	65606540.70116311
0.8326444568149735	66044265.81596971
0.8328526179291771	66482100.362054504
0.8330608310836596	66920044.366776474
0.8332690962914304	67358097.85749905
0.8334774135655034	67670912.85440302
0.833685782918895	67843788.21468636
0.8338942043646247	68016706.79380968
0.834102677915716	68189668.6025779
0.834311203585195	68362673.65179816
0.8345197813860912	68576915.93063132
0.8347284113314379	68929874.55346061
0.8349370934342709	69282921.4159454
0.8351458277076294	69636056.54014538
0.8353546141645565	69989279.948127
0.8355634528180977	70342591.66196048
0.8357723436813022	70515495.37438852
0.8359812867672226	70686213.64298451
0.8361902820889144	70856974.59114759
0.8363993296594368	71027778.22954774
0.8366084294918518	71198624.56885755
0.8368175815992247	71656487.09117316
0.8370267859946247	72213300.69022545
0.8372360426911234	72770253.49267736
0.8374453517017962	73327345.53332981
0.8376547130397217	73884576.84699236
0.8378641267179816	74317784.69477326
0.8380735927496613	74627899.0967766
0.8382831111478488	74938091.02738026
0.8384926819256358	75248360.50596641
0.8387023050961173	75558707.55192247
0.8389119806723914	75851709.05567628
0.8391217086675596	76095749.43171658
0.8393314890947265	76339850.8178507
0.8395413219670003	76584013.22933136
0.8397512072974922	76828236.68141508
0.8399611450993165	77067954.55048098
0.8401711353855914	77080954.69423288
0.8403811781694378	77093958.08802071
0.8405912734639802	77106964.73265699
0.8408014212823464	77119974.62895444
0.8410116216376671	77132987.77772595
0.8412218745430766	77366261.17930903
0.8414321800117124	77663679.1866795
0.8416425380567154	77961171.54855195
0.8418529486912297	78258738.28351495
0.8420634119284025	78556379.41016144
0.8422739277813847	79287225.20120598
0.8424844962633302	80399858.26464519
0.842695117387396	81512769.48634885
0.8429057911667428	82625958.93585797
0.8431165176145345	83739426.68273002
0.8433272967439382	84341616.29856868
0.8435381285681244	83696128.30856816
0.8437490131002665	83050478.94657029
0.8439599503535415	82404668.17223231
0.84417094034113	81758695.9452003
0.8443819830762154	81150546.53630814
0.8445930785719846	81307442.28629099
0.8448042268416277	81464377.26021127
0.8450154278983382	81621351.467875
0.8452266817553128	81778364.91909064
0.8454379884257517	81935417.62366909
0.8456493479228583	82662432.84278056
0.845860760259839	83526874.1842157
0.846072225449904	84391531.63598618
0.8462837435062666	85256405.25211978
0.8464953144421433	86121495.08665791
0.8467069382707537	86802749.50882758
0.8469186150053215	87340711.60883713
0.847130344659073	87878808.19937184
0.8473421272452377	88417039.31405365
0.8475539627770492	88955404.98651469
0.8477658512677435	89425884.09019655
0.8479777927305605	89752046.83714478
0.8481897871787432	90078291.12477966
0.848401834625538	90404616.97348663
0.8486139350841944	90731024.40365557
0.8488260885679657	91004066.82485527
0.8490382950901076	90625682.29431102
0.8492505546638802	90247203.16763395
0.8494628673025462	89868629.42117535
0.8496752330193721	89489961.03127956
0.8498876518276269	89111197.97428682
0.8501001237405839	86030238.31670885
0.8503126487715191	82409121.4214356
0.850525226933712	78787099.24694055
0.8507378582404455	75164171.56690192
0.8509505427050057	71540338.15494117
0.8511632803406821	68253729.36931989
0.8513760711607672	65197856.464637496
0.8515889151785576	62141219.59172419
0.8518018124073523	59083818.559595205
0.8520147628604541	56025653.17721
0.8522277665511693	54880076.20463188
0.8524408234928071	57272727.840601206
0.8526539336986805	59665977.63948017
0.8528670971821053	62059825.75080901
0.8530803139564007	64454272.324162856
0.8532935840348901	66949030.75823105
0.8535069074308987	70286542.22383747
0.8537202841577566	73624888.06731309
0.8539337142287962	76964068.49724996
0.8541471976573534	80304083.72229221
0.8543607344567677	83644933.95114134
0.8545743246403821	83408739.65486334
0.8547879682215422	82604278.11454502
0.8550016652135977	81799615.45884173
0.8552154156299011	80994751.63747446
0.8554292194838088	80189686.60015127
0.8556430767886797	79746347.47749656
0.855856987557877	79522650.14525701
0.8560709518047664	79298896.88868456
0.8562849695427177	79075087.69379787
0.8564990407851035	78851222.5466124
0.8567131655452999	78525291.41915202
0.8569273438366862	78032131.99662444
0.8571415756726455	77538849.28424112
0.8573558610665638	77045443.25117955
0.8575702000318304	76551913.86661023
0.8577845925818384	76310604.48093924
0.857999038729984	77645464.49126652
0.8582135384896665	78980658.21659608
0.858428091874289	80316185.74035704
0.8586426988972576	81652047.1459986
0.8588573595719821	82988242.516992
0.8590720739118751	82635807.56099302
0.8592868419303532	82084150.54973604
0.8595016636408359	81532355.62422626
0.8597165390567462	80980422.74998528
0.8599314681915105	80428351.89252561
0.8601464510585584	78945153.7462831
0.860361487671323	76967422.19433998
0.8605765780432408	74989196.20950943
0.8607917221877518	73010475.66818105
0.8610069201182988	71031260.44671787
0.8612221718483286	66571297.92016361
0.8614374773912907	58534600.769542396
0.8616528367606385	50495894.444635704
0.8618682499698288	42455178.443142705
0.8620837170323213	34412452.26265065
0.8622992379615795	27690441.643453274
0.8625148127710699	27512415.936416548
0.8627304414742627	27334345.722953048
0.8629461240846313	27156230.991936147
0.8631618606156526	26978071.732236482
0.8633776510808066	26799867.932721924
0.8635934954935769	29207294.30289244
0.8638093938674504	31827274.963049866
0.8640253462159173	34447910.61837224
0.8642413525524714	37069201.432608396
0.8644574128906095	39691147.56954756
0.8646735272438323	40619312.047844
0.8648896956256433	40759748.344128005
0.8651059180495498	40900219.74948609
0.8653221945290621	41040726.27269538
0.8655385250776946	41181267.922535665
0.8657549097089641	42436688.19283076
0.8659713484363913	45119667.04992958
0.8661878412735006	47803316.651743926
0.866404388233819	50487637.16595836
0.8666209893308775	53172628.76030011
0.8668376445782103	55136523.74846616
0.8670543539893549	54155008.699330844
0.8672711175778525	53173248.271432556
0.8674879353572469	52191242.4034284
0.8677048073410862	51208991.03395686
0.8679217335429217	50226494.101642355
0.8681387139763074	50769020.20937598
0.8683557486548015	51387453.40991335
0.8685728375919655	52006041.218751624
0.8687899808013633	52624783.67454075
0.8690071782965637	53243680.815944634
0.869224430091138	52775993.78373294
0.8694417361986609	51865997.146002136
0.8696590966327107	50955773.009112105
0.869876511406869	50045321.3161878
0.8700939805347206	49134642.0103407
0.8703115040298544	48529930.532849014
0.870529081905862	48275137.91096857
0.8707467141763385	48020281.59093275
0.8709644008548827	47765361.556816936
0.8711821419550964	47510377.792692736
0.8713999374905854	47271436.29706994
0.871617787474958	47088022.51007589
0.8718356919218269	46904562.86963493
0.8720536508448075	46721057.36428384
0.8722716642575187	46537505.982556514
0.8724897321735832	46353908.71298368
0.8727078546066265	47665011.67829484
0.8729260315702784	48999182.41139874
0.873144263078171	50333686.6871845
0.8733625491439405	51668524.589039326
0.8735808897812266	53003696.20037013
0.8737992850036719	52991844.282617085
0.874017734824923	52502777.59272536
0.8742362392586293	52013588.63616136
0.874454798318444	51524277.382358246
0.8746734120180236	51034843.80074172
0.8748920803710283	50596037.03881526
0.875110803391121	50208118.66345167
0.8753295810919689	49820103.308494024
0.875548413487242	49431990.949697636
0.8757673005906139	49043781.56281154
0.8759862424157616	49627337.67813108
0.8762052389763657	53023169.84890775
0.8764242902861098	56419850.97772476
0.8766433963586814	59817381.276824884
0.8768625572077712	63215760.958500825
0.8770817728470732	66571342.85609492
0.8773010432902849	66519886.429306835
0.8775203685511077	66468417.138411984
0.8777397486432454	66416934.98019447
0.8779591835804065	66365439.95143734
0.8781786733763015	66313932.04892309
0.8783982180446457	63652304.05339509
0.878617817599157	60213552.54073799
0.8788374720535569	56773941.34020435
0.8790571814215703	53333470.236871436
0.8792769457169257	49892139.01576261
0.879496764953355	48374433.88419879
0.8797166391445934	48586589.02258614
0.8799365683043796	48798797.1997581
0.8801565524464557	49011058.428974345
0.8803765915845676	49223372.72349809
0.8805966857324639	49507580.66118091
0.880816834903897	49972301.61216777
0.881037039112623	50437138.74339255
0.8812572983724012	50902092.083900094
0.8814776126969944	51367161.662742965
0.8816979821001687	51849351.9640341
0.8819184065956938	52731950.547041215
0.8821388861973429	53614769.77969498
0.8823594209188923	54497809.71715607
0.882580010774122	55381070.41460112
0.8828006557768155	56264551.927221015
0.8830213559407598	57735645.32166232
0.8832421112797452	59354841.29127057
0.8834629218075651	60974442.05987025
0.8836837875380171	62594447.728662565
0.8839047084849018	64214858.39887234
0.884125684662023	63953528.29616798
0.8843467160831886	62183833.31935016
0.8845678027622095	60413695.918788135
0.8847889447129001	58643115.98387564
0.8850101419490785	56872093.40397973
0.8852313944845657	57991940.22667633
0.885452702333187	65440794.70409411
0.8856740655087704	72891511.39513016
0.8858954840251476	80344090.76533696
0.8861169578961539	87798533.28038286
0.886338487135628	94404372.3997715
0.886560071757412	89694352.53411245
0.8867817117753515	84983155.1634871
0.8870034072032955	80270779.993517
0.8872251580550963	75557226.7297599
0.8874469643446101	70842495.07768397
0.8876688260856963	69407633.65957382
0.8878907432922178	68651468.64855364
0.8881127159780409	67895114.5962812
0.8883347441570356	67138571.45549476
0.8885568278430749	66381839.178923935
0.8887789670500358	64694102.6338247
0.8890011617917983	62345648.46495102
0.8892234120822464	59996607.18253407
0.8894457179352669	57646978.639798425
0.8896680793647509	55296762.68992523
0.8898904963845921	53670901.82772084
0.8901129690086883	53427844.14316622
0.8903354972509405	53184725.69419052
0.8905580811252535	52941546.46560238
0.8907807206455347	52698306.44220743
0.8910034158256963	52545334.80368993
0.8912261666796527	53199593.67310141
0.8914489732213227	53854016.107230425
0.8916718354646282	54508602.146968625
0.8918947534234944	55163351.833216116
0.8921177271118502	55818265.206884764
0.8923407565436284	56546107.495340355
0.8925638417327644	57286001.724854715
0.8927869826931977	58026080.927926704
0.8930101794388711	58766345.150799416
0.8932334319837308	59506794.43972772
0.8934567403417267	60513210.67840839
0.8936801045268123	61685030.646593064
0.8939035245529441	62857143.569769
0.8941270004340824	64029549.52117618
0.894350532184191	65202248.57407092
0.8945741198172371	67797096.4333608
0.8947977633471915	72750570.96544826
0.8950214627880284	77705283.86616854
0.8952452181537254	82661235.44511107
0.8954690294582639	87618426.0119513
0.8956928967156286	92128747.31296621
0.8959168199398075	93732131.24638179
0.8961407991447926	95335916.02578112
0.8963648343445789	96940101.75137526
0.896588925553165	98544688.5233999
0.8968130727845534	100149676.44211775
0.8970372760527496	98816863.314018
0.8972615353717629	97116088.70571645
0.8974858507556059	95414888.90376264
0.8977102222182949	93713263.8018588
0.8979346497738496	92011213.29367854
0.8981591334362931	91044527.05935565
0.8983836732196523	90479985.2866739
0.8986082691379572	89915302.37854935
0.8988329212052417	89350478.29969779
0.8990576294355432	88785513.014826
0.8992823938429022	88222068.50417718
0.8995072144413631	87660954.33830447
0.8997320912449734	87099699.8938905
0.8999570242677847	86538305.13586555
0.9001820135238516	85976770.02915107
0.9004070590272328	86107809.71259247
0.9006321607919896	89870331.42663214
0.9008573188321878	93633793.77110413
0.9010825331618959	97398196.98116046
0.9013078037951865	101163541.29201989
0.9015331307461353	104929826.93895505
0.9017585140288219	109252175.75271764
0.9019839536573292	113623419.2155703
0.9022094496457435	117995755.4892855
0.9024350020081551	122369184.84707409
0.9026606107586572	126743707.56220071
0.902886275911347	128852961.30013858
0.9031119974803249	129870197.82108864
0.9033377754796951	130887688.65116896
0.903563609923565	131905433.85395634
0.903789500826046	132923433.49304509
0.9040154482012526	131580507.08715875
0.904241452063303	127178541.71954669
0.9044675124263188	122775475.8605937
0.9046936293044254	118371309.23517668
0.9049198027117517	113966041.56810114
0.9051460326624297	110254118.27621435
0.9053723191705955	109498378.31352781
0.9055986622503881	108742449.41585131
0.9058250619159507	107986331.53595035
0.9060515181814298	107230024.62657894
0.9062780310609752	106473528.64048073
0.9065046005687405	110621776.96503997
0.906731226718883	115044694.08648057
0.9069579095255627	119468716.93719575
0.907184649002944	123893845.79362394
0.907411445165195	128320080.93227074
0.9076382980264862	130877646.26237248
0.907865207600993	132659336.32144925
0.9080921739028933	134441471.8030403
0.9083191969463691	136224052.8185014
0.9085462767456058	138007079.4792173
0.9087734133147922	137471699.2473246
0.9090006066681211	134257881.617738
0.909227856819788	131043260.53374824
0.9094551637839932	127827835.79448307
0.9096825275749393	124611607.1990341
0.9099099482068329	122672313.02101912
0.9101374256938848	125273638.713616
0.9103649600503083	127875614.7376348
0.9105925512903209	130478241.25565909
0.9108201994281437	133081518.43031561
0.9110479044780008	135685446.42426285
0.9112756664541204	139707983.29859132
0.911503485370734	143763982.613452
0.9117313612420768	147820995.92814144
0.9119592940823873	151879023.4961583
0.912187283905908	155938065.57106847
0.9124153307268845	157382279.8124449
0.9126434345595664	157877457.145846
0.9128715954182063	158372758.27358
0.9130998133170609	158868183.2265962
0.9133280882703902	159363732.0358506
0.913556420292458	158577287.26284966
0.9137848093975312	156468379.2014302
0.9140132555998806	154358943.9129957
0.9142417589137806	152248981.26573893
0.9144703193535092	150138491.127819
0.9146989369333476	148192676.7589492
0.9149276116675811	146744634.5176517
0.9151563435704979	145296230.26579523
