#wavelength	surface flux
0.8	32620994.146713924
0.8002000000000001	32937608.870396327
0.8004000500000003	33326426.113763705
0.8006001500125003	33716069.078451
0.8008003000500035	34105809.45387949
0.8010005001250161	34495647.264402024
0.8012007502500472	34885582.53437663
0.8014010504376099	35268926.96456442
0.8016014007002193	35650126.84678768
0.8018018010503944	36031422.0289815
0.8020022515006572	36412812.534971036
0.8022027520635323	36794298.38858674
0.8024033027515483	37142183.96298311
0.8026039035772362	37457136.084322244
0.8028045545531306	37772166.94369172
0.8030052556917691	38087276.5607762
0.803206007005692	38402464.95526466
0.8034068085074435	38709964.15208212
0.8036076602095705	38995765.39491445
0.8038085621246229	39281638.08805725
0.8040095142651542	39567582.24937352
0.8042105166437206	39853597.89673002
0.8044115692728815	40139089.81608283
0.8046126721651998	40399051.13500878
0.8048138253332411	40659077.44426427
0.8050150287895745	40919168.7600973
0.805216282546772	41179325.098759234
0.8054175866174087	41439546.47650569
0.8056189410140631	41770924.060760014
0.8058203457493168	42122507.89605474
0.8060218008357541	42474179.62730783
0.8062233062859632	42825939.27649392
0.8064248621125346	43177786.86559206
0.806626468328063	43537304.66917594
0.8068281249451449	43903424.58992637
0.8070298319763813	44269636.04065744
0.8072315894343755	44635939.04425092
0.8074333973317341	45002333.62359543
0.8076352556810671	45346501.28374045
0.8078371644949874	45637030.586569354
0.8080391237861113	45927632.52172403
0.8082411335670578	46218307.107362315
0.8084431938504498	46509054.361647315
0.8086453046489125	46801368.07662646
0.8088474659750746	47121566.26347068
0.8090496778415686	47441844.49986204
0.809251940261029	47762202.80581227
0.8094542532460944	48082641.20133925
0.8096566168094059	48403159.70646476
0.8098590309636085	48779297.10416153
0.8100614957213493	49168527.83716428
0.8102640110952797	49557855.87785033
0.8104665770980536	49947281.25054671
0.8106691937423283	50336803.97958641
0.8108718610407639	50702495.622268066
0.8110745790060241	51049981.8450324
0.8112773476507757	51397554.939352736
0.8114801669876885	51745214.92694656
0.8116830370294355	52092961.82953708
0.8118859577886929	52418629.748995975
0.8120889292781401	52698339.50062298
0.8122919515104597	52978119.17968787
0.8124950244983374	53257968.803672545
0.8126981482544621	53537888.390063174
0.8129013227915257	53831942.84109043
0.8131045481222237	54287115.886309445
0.8133078242592543	54742402.72478981
0.8135111512153191	55197803.38497968
0.813714529003123	55653317.895334646
0.8139179576353739	56108946.28431728
0.8141214371247829	56777665.45943726
0.8143249674840641	57487851.6134292
0.814528548725935	58198215.31395921
0.8147321808631167	58908756.60541532
0.8149358639083326	59619475.53219407
0.8151395978743097	60196165.46757557
0.8153433827737784	60682323.9176007
0.8155472186194719	61168603.907238156
0.8157511054241268	61655005.46687292
0.815955043200483	62141528.62689794
0.8161590319612831	62504146.163508266
0.8163630717192736	62639589.52947262
0.8165671624872033	62775066.75627831
0.8167713042778252	62910577.85239084
0.8169754971038948	63046122.826277465
0.8171797409781707	62857447.28463734
0.8173840359134155	60080101.26016954
0.8175883819223938	57302060.89919883
0.8177927790178745	54523326.02813628
0.8179972272126291	51743896.47335525
0.8182017265194322	48963772.06118832
0.8184062769510622	48202226.08912503
0.8186108785203001	47751226.031039834
0.8188155312399301	47300113.22294073
0.8190202351227402	46848887.63663909
0.819224990181521	46397549.24394116
0.8194297964290664	48973673.161788106
0.8196346538781738	53375306.65901625
0.8198395625416434	57778040.56461696
0.8200445224322789	62181875.15369593
0.820249533562887	66586810.701420866
0.8204545959462778	69777859.02256158
0.8206597095952644	71014213.97903237
0.8208648745226633	72250878.02424324
0.8210700907412941	73487851.23546521
0.8212753582639793	74725133.68998875
0.8214806771035456	75850823.81723045
0.8216860472728215	76287344.88111205
0.8218914687846397	76723975.07525964
0.822096941651836	77160714.426956
0.822302465887249	77597562.96349002
0.8225080415037209	78034520.71215841
0.8227136685140968	78563652.29661332
0.8229193469312254	79103367.4197911
0.8231250767679583	79643217.47174987
0.8233308580371503	80183202.48622133
0.8235366907516598	80723322.4969468
0.8237425749243477	81634090.48953491
0.8239485105680789	82741464.55200848
0.824154497695721	83849115.45799696
0.824360536320145	84957043.27671215
0.8245666264542252	86065248.07738197
0.8247727681108388	86899172.98812765
0.8249789613028664	87340089.16529165
0.8251852060431922	87781115.57150032
0.825391502344703	88222252.23431033
0.8255978502202894	88663499.18128645
0.8258042496828445	89087635.50583532
0.8260107007452654	89428243.18493436
0.8262172034204517	89768936.01595284
0.8264237577213068	90109714.02017917
0.8266303636607373	90450577.21890669
0.8268370212516525	90791525.63343373
0.8270437305069654	91080123.54819103
0.8272504914395923	91364696.10037796
0.8274573040624523	91649339.79570301
0.8276641683884679	91934054.65195164
0.8278710844305652	92218840.68691468
0.8280780522016729	92582683.79168324
0.8282850717147234	92982722.15364347
0.8284921429826521	93382860.52519378
0.8286992660183978	93783098.93133728
0.8289064408349024	94183437.39708205
0.8291136674451112	94574600.48241223
0.8293209458619727	94954165.46189733
0.8295282760984382	95333825.33262679
0.829735658167463	95713580.11832437
0.8299430920820048	96093429.84271789
0.8301505778550254	96476857.89431988
0.8303581154994891	96874284.93182024
0.8305657050283641	97271811.32608038
0.8307733464546212	97669437.10193878
0.8309810397912352	98067162.2842418
0.8311887850511829	98464986.89783959
0.8313965822474458	99202748.77880482
0.8316044313930077	99956468.77071491
0.8318123325008561	100710377.19262366
0.8320202855839813	101464474.09163752
0.8322282906553774	102218759.51487622
0.8324363477280413	102876218.7617326
0.8326444568149735	103494784.57821636
0.8328526179291771	104113505.03615351
0.8330608310836596	104732380.1742061
0.8332690962914304	105351410.03104237
0.8334774135655034	105752368.1008794
0.833685782918895	105909660.19366772
0.8338942043646247	106066991.60947916
0.834102677915716	106224362.35814466
0.834311203585195	106381772.4494972
0.8345197813860912	106594088.44377276
0.8347284113314379	106991143.45659707
0.8349370934342709	107388297.73317437
0.8351458277076294	107785551.29832032
0.8353546141645565	108182904.17685823
0.8355634528180977	108580356.3936156
0.8357723436813022	108791371.25602704
0.8359812867672226	109000135.61899236
0.8361902820889144	109208952.1730483
0.8363993296594368	109417820.93124284
0.8366084294918518	109626741.90662698
0.8368175815992247	110104123.69181575
0.8370267859946247	110674067.49411751
0.8372360426911234	111244153.78236967
0.8374453517017962	111814382.59219383
0.8376547130397217	112384753.95922038
0.8378641267179816	112862012.13481343
0.8380735927496613	113246855.6450288
0.8382831111478488	113631795.36612149
0.8384926819256358	114016831.32214426
0.8387023050961173	114401963.53715634
0.8389119806723914	114735794.15313631
0.8391217086675596	114925057.79179576
0.8393314890947265	115114368.74636473
0.8395413219670003	115303727.02867237
0.8397512072974922	115493132.65055071
0.8399611450993165	115678853.41552974
0.8401711353855914	115679280.4801139
0.8403811781694378	115679707.6514642
0.8405912734639802	115680134.92960732
0.8408014212823464	115680562.31456998
0.8410116216376671	115680989.8063789
0.8412218745430766	115824884.58391173
0.8414321800117124	116010558.74797703
0.8416425380567154	116196279.33058344
0.8418529486912297	116382046.34333554
0.8420634119284025	116567859.79784067
0.8422739277813847	117381033.0300077
0.8424844962633302	118747096.93628763
0.842695117387396	120113502.35854238
0.8429057911667428	121480249.38215277
0.8431165176145345	122847338.0925197
0.8433272967439382	123414815.8339697
0.8435381285681244	122031128.88230954
0.8437490131002665	120647096.00891179
0.8439599503535415	119262717.12729654
0.84417094034113	117877992.1509599
0.8443819830762154	116551673.66480151
0.8445930785719846	116408601.18742143
0.8448042268416277	116265492.94192207
0.8450154278983382	116122348.91936135
0.8452266817553128	115979169.110795
0.8454379884257517	115835953.5072765
0.8456493479228583	116557913.99477893
0.845860760259839	117488408.39520359
0.846072225449904	118419135.41922836
0.8462837435062666	119350095.12500934
0.8464953144421433	120281287.57071729
0.8467069382707537	121051631.0768493
0.8469186150053215	121696608.90143979
0.847130344659073	122341747.97048661
0.8473421272452377	122987048.32430007
0.8475539627770492	123632510.00320262
0.8477658512677435	124216595.6471926
0.8479777927305605	124670160.74636242
0.8481897871787432	125123839.23680693
0.848401834625538	125577631.1468743
0.8486139350841944	126031536.5049189
0.8488260885679657	126435857.70889401
0.8490382950901076	126234483.52121721
0.8492505546638802	126033058.9899934
0.8494628673025462	125831584.10263683
0.8496752330193721	125630058.84655814
0.8498876518276269	125428483.20916569
0.8501001237405839	122845186.13434549
0.8503126487715191	119785819.86606544
0.850525226933712	116725688.75622004
0.8507378582404455	113664792.6135972
0.8509505427050057	110603131.24693693
0.8511632803406821	107381382.70107952
0.8513760711607672	104049722.48433721
0.8515889151785576	100717229.35253553
0.8518018124073523	97383903.0974537
0.8520147628604541	94049743.51081008
0.8522277665511693	92714544.12163606
0.8524408234928071	95077387.72080463
0.8526539336986805	97440822.03087363
0.8528670971821053	99804847.19952027
0.8530803139564007	102169463.37445632
0.8532935840348901	104557414.02811505
0.8535069074308987	107138040.66817282
0.8537202841577566	109719312.46489277
0.8539337142287962	112301229.5795622
0.8541471976573534	114883792.17350867
0.8543607344567677	117467000.4081041
0.8545743246403821	116308683.93274358
0.8547879682215422	114555778.43008497
0.8550016652135977	112802434.70105094
0.8552154156299011	111048652.63608454
0.8554292194838088	109294432.12560064
0.8556430767886797	108284704.44884208
0.855856987557877	107727027.00467138
0.8560709518047664	107169210.14113997
0.8562849695427177	106611253.82339248
0.8564990407851035	106053158.0165654
0.8567131655452999	105361438.99439092
0.8569273438366862	104450829.55937648
0.8571415756726455	103539992.4720031
0.8573558610665638	102628927.67535755
0.8575702000318304	101717635.11251384
0.8577845925818384	101211475.76468731
0.857999038729984	103237224.25763397
0.8582135384896665	105263479.18770342
0.858428091874289	107290240.68150547
0.8586426988972576	109317508.86568046
0.8588573595719821	111345283.86690217
0.8590720739118751	110697261.52998127
0.8592868419303532	109733532.91587155
0.8595016636408359	108769563.36960831
0.8597165390567462	107805352.83095881
0.8599314681915105	106840901.23967442
0.8601464510585584	104920752.58045311
0.860361487671323	102492974.53284483
0.8605765780432408	100064589.54072534
0.8607917221877518	97635597.45235582
0.8610069201182988	95205998.11596487
0.8612221718483286	89580517.86851825
0.8614374773912907	79347212.06788324
0.8616528367606385	69111347.94080085
0.8618682499698288	58872924.84768022
0.8620837170323213	48631942.148788
0.8622992379615795	40066705.35825615
0.8625148127710699	39804621.42457735
0.8627304414742627	39542471.969915114
0.8629461240846313	39280256.977889165
0.8631618606156526	39017976.4321152
0.8633776510808066	38755630.31620482
0.8635934954935769	42445076.13602402
0.8638093938674504	46459385.22586878
0.8640253462159173	50474697.892985865
0.8642413525524714	54491014.38826964
0.8644574128906095	58508334.962676406
0.8646735272438323	59745477.32502136
0.8648896956256433	59689602.02792111
0.8651059180495498	59633712.76199659
0.8653221945290621	59577809.52375563
0.8655385250776946	59521892.30970504
0.8657549097089641	60993000.04575348
0.8659713484363913	64419421.0702692
0.8661878412735006	67846698.70004264
0.866404388233819	71274833.14922304
0.8666209893308775	74703824.63201417
0.8668376445782103	77228606.7254332
0.8670543539893549	76059983.61933628
0.8672711175778525	74891068.35746202
0.8674879353572469	73721860.8667736
0.8677048073410862	72552361.07421207
0.8679217335429217	71382568.90670167
0.8681387139763074	71779681.53744777
0.8683557486548015	72254747.81276044
0.8685728375919655	72729932.85464254
0.8687899808013633	73205236.69278407
0.8690071782965637	73680659.35688575
0.869224430091138	73016689.95240611
0.8694417361986609	71888889.00100546
0.8696590966327107	70760806.0993672
0.869876511406869	69632441.17700349
0.8700939805347206	68503794.16340972
0.8703115040298544	67747141.21841808
0.870529081905862	67415918.53698915
0.8707467141763385	67084613.04988999
0.8709644008548827	66753224.73641907
0.8711821419550964	66421753.57586997
0.8713999374905854	66132887.69983472
0.871617787474958	65991281.23206092
0.8718356919218269	65849639.362670034
0.8720536508448075	65707962.0828118
0.8722716642575187	65566249.38363369
0.8724897321735832	65424501.25628071
0.8727078546066265	67143064.62648286
0.8729260315702784	68890359.61706617
0.873144263078171	70638091.43139528
0.8733625491439405	72386260.17867813
0.8735808897812266	74134865.96814847
0.8737992850036719	74180123.51254931
0.874017734824923	73621939.59884387
0.8742362392586293	73063616.13916022
0.874454798318444	72505153.09861168
0.8746734120180236	71946550.44230305
0.8748920803710283	71422745.88889049
0.875110803391121	70933919.497564
0.8753295810919689	70444970.8996394
0.875548413487242	69955900.06456532
0.8757673005906139	69466706.96178244
0.8759862424157616	70134983.16769958
0.8762052389763657	74152972.38734125
0.8764242902861098	78171966.10428505
0.8766433963586814	82191964.56965917
0.8768625572077712	86212968.03465086
0.8770817728470732	90185511.08996692
0.8773010432902849	90296893.31947456
0.8775203685511077	90408303.39453974
0.8777397486432454	90519741.32212354
0.8779591835804065	90631207.10918939
0.8781786733763015	90742700.76270184
0.8783982180446457	87582609.68347214
0.878617817599157	83448484.9822654
0.8788374720535569	79313326.74988532
0.8790571814215703	75177134.72794817
0.8792769457169257	71039908.65800546
0.879496764953355	69218373.45677862
0.8797166391445934	69479270.96953192
0.8799365683043796	69740233.70666344
0.8801565524464557	70001261.68447925
0.8803765915845676	70262354.91928974
0.8805966857324639	70610932.99235377
0.880816834903897	71179169.94976543
0.881037039112623	71747548.96641667
0.8812572983724012	72316070.07782201
0.8814776126969944	72884733.31950547
0.8816979821001687	73478592.4011164
0.8819184065956938	74662367.65323171
0.8821388861973429	75846438.84916128
0.8823594209188923	77030806.0628887
0.882580010774122	78215469.36841899
0.8828006557768155	79400428.83977634
0.8830213559407598	81373808.50035898
0.8832421112797452	83545902.67914392
0.8834629218075651	85718539.88147226
0.8836837875380171	87891720.24310184
0.8839047084849018	90065443.89982215
0.884125684662023	89761353.00557281
0.8843467160831886	87471098.68885969
0.8845678027622095	85180271.80856739
0.8847889447129001	82888872.22155459
0.8850101419490785	80596899.78464545
0.8852313944845657	81609495.77497378
0.885452702333187	89856894.10563642
0.8856740655087704	98106354.2858805
0.8858954840251476	106357876.83116744
0.8861169578961539	114611462.25708687
0.886338487135628	121941949.06402932
0.886560071757412	116962761.17457059
0.8867817117753515	111982328.48813961
0.8870034072032955	107000650.69353479
0.8872251580550963	102017727.47948715
0.8874469643446101	97033558.53463292
0.8876688260856963	95483373.69123083
0.8878907432922178	94643766.20489837
0.8881127159780409	93803948.81669487
0.8883347441570356	92963921.4741433
0.8885568278430749	92123684.12475696
0.8887789670500358	90185532.75960766
0.8890011617917983	87468214.60033515
0.8892234120822464	84750217.11152162
0.8894457179352669	82031540.12333809
0.8896680793647509	79312183.46590535
0.8898904963845921	77474213.3180843
0.8901129690086883	77318789.48972644
0.8903354972509405	77163326.80541153
0.8905580811252535	77007825.25542541
0.8907807206455347	76852284.83005202
0.8910034158256963	76822178.02935779
0.8912261666796527	77913406.98825961
0.8914489732213227	79004908.75440146
0.8916718354646282	80096683.39598593
0.8918947534234944	81188730.98122972
0.8921177271118502	82281051.57836916
0.8923407565436284	83705261.31943111
0.8925638417327644	85183922.7099935
0.8927869826931977	86662953.76590401
0.8930101794388711	88142354.5795784
0.8932334319837308	89622125.24345598
0.8934567403417267	91185004.8714978
0.8936801045268123	92799687.78168258
0.8939035245529441	94414774.36259383
0.8941270004340824	96030264.71515092
0.894350532184191	97646158.94029576
0.8945741198172371	100546866.45460775
0.8947977633471915	105578338.78661834
0.8950214627880284	110611068.98671171
0.8952452181537254	115645057.36935212
0.8954690294582639	120680304.24909121
0.8956928967156286	125244035.01789582
0.8959168199398075	126740765.8871985
0.8961407991447926	128237870.93921886
0.8963648343445789	129735350.26750222
0.896588925553165	131233203.96561678
0.8968130727845534	132731432.12715606
0.8970372760527496	131634507.58998415
0.8972615353717629	130212556.0928598
0.8974858507556059	128790249.10786103
0.8977102222182949	127367586.54611638
0.8979346497738496	125944568.31873052
0.8981591334362931	125214984.14198326
0.8983836732196523	124864634.90019342
0.8986082691379572	124514198.07109337
0.8988329212052417	124163673.63278605
0.8990576294355432	123813061.56336884
0.8992823938429022	123368911.03353252
0.8995072144413631	122785699.9912353
0.8997320912449734	122202343.14617772
0.8999570242677847	121618840.46190901
0.9001820135238516	121035191.9019692
0.9004070590272328	121195481.58776164
0.9006321607919896	125256554.35567127
0.9008573188321878	129318642.39177702
0.9010825331618959	133381745.94988985
0.9013078037951865	137445865.28389287
0.9015331307461353	141511000.64772722
0.9017585140288219	145590777.6152017
0.9019839536573292	149672748.11102906
0.9022094496457435	153755739.0994774
0.9024350020081551	157839750.8356775
0.9026606107586572	161924783.57481033
0.902886275911347	164185749.5354321
0.9031119974803249	165567461.265978
0.9033377754796951	166949518.42445657
0.903563609923565	168331921.09722415
0.903789500826046	169714669.37066084
0.9040154482012526	168828132.15412393
0.904241452063303	165001264.2855939
0.9044675124263188	161173439.7000976
0.9046936293044254	157344658.1584555
0.9049198027117517	153514919.42142612
0.9051460326624297	150216853.0716323
0.9053723191705955	149186023.895833
0.9055986622503881	148154937.01274067
0.9058250619159507	147123592.3579276
0.9060515181814298	146091989.86695012
0.9062780310609752	145060129.47535065
0.9065046005687405	148916044.01214838
0.906731226718883	153045611.4311558
0.9069579095255627	157176211.2420126
0.907184649002944	161307843.70282242
0.907411445165195	165440509.07175162
0.9076382980264862	167943988.77061477
0.907865207600993	169771067.4759551
0.9080921739028933	171598602.95097125
0.9083191969463691	173426595.30985585
0.9085462767456058	175255044.66683108
0.9087734133147922	175190754.97448838
0.9090006066681211	172939784.17639697
0.909227856819788	170688250.63560897
0.9094551637839932	168436154.2114327
0.9096825275749393	166183494.76315108
0.9099099482068329	165037314.49968436
0.9101374256938848	167825295.39759064
0.9103649600503083	170613973.29072008
0.9105925512903209	173403348.35332224
0.9108201994281437	176193420.75969297
0.9110479044780008	178984190.68416214
0.9112756664541204	183290087.77739173
0.911503485370734	187631726.36861876
0.9117313612420768	191974450.36949363
0.9119592940823873	196318260.05136737
0.912187283905908	200663155.68566298
0.9124153307268845	202351277.7523973
0.9126434345595664	203075174.10142136
0.9128715954182063	203799251.424532
0.9130998133170609	204523509.76697376
0.9133280882703902	205247949.17400113
0.913556420292458	205098218.05592254
0.9137848093975312	204046717.75378335
0.9140132555998806	202994954.57656872
0.9142417589137806	201942928.45855975
0.9144703193535092	200890639.33402058
0.9146989369333476	199847162.6069679
