#wavelength	surface flux
0.7	20006080.61094036
0.7001166666666666	20071399.612441074
0.7002333527777778	20184798.47534557
0.700350058336574	20298216.238060497
0.7004667833462966	20411652.90373573
0.7005835278101878	20525108.475522224
0.7007002917314895	20638582.956570495
0.7008170751134447	20752076.350032263
0.7009338779592968	20865588.65905955
0.7010507002722901	20920006.041052178
0.7011675420556689	20902494.87238718
0.701284403312678	20884980.7851941
0.7014012840465635	20867463.77898646
0.7015181842605713	20849943.853277795
0.701635103957948	20832421.007581517
0.701752043141941	20814895.241410963
0.701869001815798	20797366.554279357
0.7019859799827672	20800625.326654486
0.7021029776460976	20818353.57664345
0.7022199948090387	20836084.781340767
0.7023370314748403	20853818.94123886
0.7024540876467528	20871556.056830265
0.702571163328027	20889296.128607575
0.7026882585219152	20907039.157063562
0.7028053732316688	20924785.14269093
0.7029225074605406	20898075.311785564
0.7030396612117841	20854193.45759274
0.7031568344886527	20810304.289757546
0.7032740272944008	20766407.807061076
0.7033912396322832	20722504.008284133
0.7035084715055552	20678592.892207436
0.7036257229174727	20634674.457611375
0.7037429938712924	20590748.703276176
0.7038602843702709	20658417.63621215
0.7039775944176659	20745026.36458458
0.7040949240167356	20831649.5277451
0.7042122731707383	20918287.128099438
0.7043296418829335	21004939.168053884
0.7044470301565806	21091605.650014974
0.70456443799494	21178286.57638966
0.7046818654012724	21264981.949585456
0.7047993123788394	21116920.437509384
0.7049167789309024	20968564.837990064
0.7050342650607243	20820184.512537263
0.7051517707715678	20671779.45703029
0.7052692960666963	20523349.667347472
0.705386840949374	20374895.139366437
0.7055044054228656	20226415.86896383
0.7056219894904361	20119800.602955278
0.7057395931553511	20279366.120694917
0.705857216420877	20438958.23268764
0.7059748592902804	20598576.943365604
0.7060925217668288	20758222.257162172
0.70621020385379	20917894.178511016
0.7063279055544321	21077592.71184655
0.7064456268720246	21237317.86160455
0.7065633678098366	21368703.970962625
0.7066811283711383	21421992.426745653
0.7067989085592001	21475289.76393798
0.7069167083772933	21528595.9840198
0.7070345278286895	21581911.088471673
0.707152366916661	21635235.0787743
0.7072702256444803	21688567.95640858
0.7073881040154211	21741909.722855873
0.7075060020327569	21779547.314232048
0.7076239196997625	21794307.49720246
0.7077418570197124	21809070.14020335
0.7078598139958823	21823835.24364474
0.7079777906315483	21838602.807936717
0.7080957869299869	21853372.8334894
0.7082138028944751	21868145.320713
0.7083318385282908	21882920.270017814
0.7084498938347124	21885864.961575862
0.708567968817018	21878778.12191812
0.7086860634784875	21871690.101120427
0.7088041778224007	21864600.89898593
0.7089223118520377	21857510.51531775
0.7090404655706796	21850418.949918967
0.709158638981608	21843326.202592604
0.709276832088105	21836232.27314169
0.7093950448934531	21869917.960484415
0.7095132774009353	21923058.065150466
0.7096315296138355	21976207.026500646
0.7097498015354378	22029364.84601104
0.7098680931690269	22082531.525157966
0.7099864045178884	22135707.06541815
0.7101047355853081	22188891.46826837
0.7102230863745722	22242084.735185694
0.7103414568889679	22237737.264380984
0.7104598471317828	22220312.44326644
0.7105782571063047	22202884.718015056
0.7106966868158224	22185454.088142797
0.710815136263625	22168020.553165566
0.7109336054530023	22150584.112599157
0.7110520943872445	22133144.765959326
0.7111706030696424	22115702.512761716
0.7112891315034873	22187014.49727761
0.7114076796920712	22262573.226117972
0.7115262476386865	22338144.54807981
0.7116448353466263	22413728.46526192
0.711763442819184	22489324.979763605
0.711882070059654	22564934.093684435
0.7120007170713306	22640555.80912421
0.7121193838575091	22717759.858987153
0.7122380704214853	22811348.66666779
0.7123567767665555	22904953.072482944
0.7124755028960166	22998573.079032443
0.7125942488131658	23092208.6889163
0.7127130145213015	23185859.904735394
0.7128318000237216	23279526.72909017
0.7129506053237256	23373209.16458247
0.7130694304246129	23449261.68197637
0.7131882753296837	23463631.87929707
0.7133071400422386	23478004.471650664
0.7134260245655789	23492379.4594363
0.7135449289030065	23506756.843053244
0.7136638530578235	23521136.62290078
0.7137827970333332	23535518.799378313
0.7139017608328388	23549903.372885253
0.7140207444596443	23579211.46776041
0.7141397479170543	23635142.251529172
0.7142587712083737	23691082.357095152
0.7143778143369084	23747031.786012102
0.7144968773059646	23802990.539833885
0.7146159601188489	23858958.620114617
0.7147350627788687	23914936.028408736
0.7148541852893318	23970922.766270883
0.7149733276535467	24037702.698874332
0.7150924898748222	24115367.96850583
0.715211671956468	24193046.18234895
0.7153308739017941	24270737.342561103
0.715450095714111	24348441.451299924
0.71556933739673	24426158.510723542
0.7156885989529628	24503888.52299039
0.7158078803861218	24581631.490259398
0.7159271816995193	24622644.923266605
0.7160465028964692	24642099.641688302
0.7161658439802853	24661557.60256307
0.7162852049542819	24681018.806431312
0.7164045858217744	24700483.253833544
0.716523986586078	24719950.945310336
0.7166434072505089	24739421.881402362
0.716762847818384	24758896.062650412
0.7168823082930204	24828823.8781763
0.7170017886777359	24913605.637962133
0.7171212889758488	24998401.52804121
0.7172408091906781	25083211.55076866
0.7173603493255433	25168035.708499923
0.7174799093837642	25252874.00359076
0.7175994893686615	25337726.438397482
0.7177190892835562	25422593.015276633
0.7178387091317702	25526756.49711806
0.7179583489166254	25632872.998428557
0.7180780086414448	25739007.18582269
0.7181976883095517	25845159.06224805
0.7183173879242699	25951328.63065283
0.718437107488924	26057515.893985696
0.7185568470068389	26163720.855195828
0.7186766064813399	26268774.44435159
0.7187963859157535	26344616.1439922
0.7189161853134061	26420470.483916078
0.719036004677625	26496337.466229953
0.7191558440117378	26572217.09304083
0.7192757033190732	26648109.366456285
0.7193955826029597	26724014.288583886
0.7195154818667269	26799931.861531906
0.7196354011137046	26865544.88529636
0.7197553403472235	26883666.601831656
0.7198752995706147	26901791.33865303
0.7199952787872098	26919919.096263893
0.720115278000341	26938049.875167686
0.7202352972133411	26956183.675867967
0.7203553364295432	26974320.498868335
0.7204753956522815	26992460.344672564
0.7205954748848902	27003538.466598663
0.7207155741307044	26999043.307751905
0.7208356933930594	26994547.39971201
0.7209558326752915	26990050.742354114
0.7210759919807375	26985553.335553315
0.7211961713127342	26981055.17918472
0.7213163706746197	26976556.27312339
0.7214365900697322	26972056.617244393
0.7215568295014103	27026947.39966612
0.721677088972994	27152711.02334179
0.7217973684878227	27278495.607621197
0.7219176680492374	27404301.155998133
0.7220379876605789	27530127.67196639
0.722158327325189	27655975.15902069
0.7222786870464099	27781843.620656095
0.7223990668275843	27907733.060368493
0.7225194666720555	27985703.289688144
0.7226398865831676	28029710.09982231
0.7227603265642646	28073724.244424723
0.722880786618692	28117745.724718
0.7230012667497951	28161774.54192463
0.7231217669609201	28205810.697267465
0.7232422872554135	28249854.191969484
0.7233628276366229	28293905.027254034
0.7234833881078956	28293685.70964118
0.7236039686725803	28276655.899484355
0.7237245693340255	28259623.251025863
0.7238451900955812	28242587.763792597
0.7239658309605971	28225549.437311478
0.7240864919324239	28208508.271109257
0.7242071730144127	28191464.26471267
0.724327874209915	28174417.417648382
0.7244485955222832	28285357.267138254
0.7245693369548704	28417477.595342264
0.7246900985110294	28549619.943600778
0.7248108801941148	28681784.31558435
0.7249316820074803	28813970.714962814
0.7250525039544815	28946179.145408057
0.7251733460384739	29078409.61059173
0.7252942082628137	29210461.47635776
0.7254150906308574	29226279.438189816
0.7255359931459625	29242100.036348846
0.7256569158114868	29257923.271274235
0.7257778586307888	29273749.143405456
0.7258988216072273	29289577.65318203
0.7260198047441617	29305408.801043548
0.7261408080449525	29321242.587429736
0.72626183151296	29336456.359657608
0.7263828751515454	29347534.78026311
0.7265039389640706	29358615.047272045
0.726625022953898	29369697.160992157
0.7267461271243904	29380781.121731225
0.7268672514789111	29391866.929797076
0.7269883960208241	29402954.585497595
0.7271095607534942	29414044.08914074
0.7272307456802866	29412295.487958755
0.7273519508045666	29375862.782866452
0.7274731761297006	29339424.005656652
0.7275944216590555	29302979.155317318
0.7277156873959987	29266528.230836246
0.7278369733438982	29230071.231201034
0.727958279506122	29193608.155399315
0.7280796058860397	29157139.00241825
0.7282009524870207	29125937.71433921
0.7283223193124353	29102531.975187343
0.7284437063656539	29079122.335078996
0.7285651136500483	29055708.793363925
0.7286865411689898	29032291.34939195
0.7288079889258514	29008870.00251259
0.7289294569240056	28985444.752075467
0.7290509451668262	28962015.597429916
0.7291724536576875	29027965.26727458
0.7292939823999636	29167989.1418443
0.7294155313970303	29308036.353726722
0.7295371006522632	29448106.906811092
0.7296586901690385	29588200.80498753
0.7297802999507332	29728318.052146938
0.7299019300007252	29868458.652181234
0.7300235803223919	30008622.608981825
0.7301452509191123	30091212.557723098
0.7302669417942654	30147231.085695542
0.7303886529512311	30203258.950089335
0.7305103843933897	30259296.152460538
0.7306321361241218	30315342.69436543
0.7307539081468093	30371398.577360738
0.7308757004648336	30427463.80300309
0.7309975130815778	30483538.372849785
0.7311193460004248	30559952.303636923
0.7312411992247582	30640981.42598192
0.7313630727579622	30722024.05318062
0.7314849666034219	30803080.187483937
0.7316068807645224	30884149.831142917
0.7317288152446498	30965232.986409217
0.7318507700471907	31046329.655534767
0.7319727451755319	31127439.840771805
0.732094740633061	31237319.76666799
0.7322167564231665	31348512.62012011
0.7323387925492371	31459724.005714484
0.7324608490146619	31570953.926539756
0.732582925822831	31682202.385685194
0.7327050229771347	31793469.386240363
0.7328271404809642	31904754.931295738
0.7329492783377112	32001767.300489396
0.7330714365507675	31958293.071868807
0.7331936151235259	31914811.59754346
0.7333158140593796	31871322.876305774
0.7334380333617229	31827826.906947814
0.7335602730339499	31784323.68826161
0.7336825330794556	31740813.21903895
0.7338048135016354	31697295.4980715
0.7339271143038857	31587188.957900684
0.734049435489603	31253970.164441273
0.7341717770621846	30920695.834516227
0.7342941390250283	30587365.958869696
0.7344165213815324	30253980.52824402
0.734538924135096	29920539.533379417
0.7346613472891185	29587042.965016104
0.734783790847	29253490.813891284
0.7349062548121412	28860773.45410674
0.7350287391879431	28363511.97994846
0.7351512439778078	27866167.628876805
0.7352737691851374	27368740.38708057
0.735396314813335	26871230.240743592
0.7355188808658037	26373637.17604972
0.7356414673459482	25875961.17917738
0.7357640742571725	25378202.236305907
0.7358867016028818	25133769.951145183
0.7360093493864824	25139561.777152516
0.7361320176113801	25145354.56846418
0.736254706280982	25151148.32524106
0.7363774153986956	25156943.047644075
0.7365001449679286	25162738.735834148
0.7366228949920899	25168535.389972255
0.7367456654745885	25174333.010219388
0.7368684564188344	25036852.3614306
0.7369912678282374	24818370.39493739
0.7371140997062088	24599852.014783002
0.7372369520561599	24381297.21489838
0.7373598248815024	24162705.989214275
0.7374827181856494	23944078.33165885
0.7376056319720137	23725414.236160487
0.7377285662440091	23506713.696646173
0.7378515210050496	23501221.868934833
0.7379744962585505	23559888.10789836
0.738097492007927	23618564.12456836
0.7382205082565949	23677249.920574438
0.738343545007971	23735945.49754651
0.7384666022654723	23794650.857114796
0.7385896800325165	23853366.00090959
0.7387127783125219	23912090.93056176
0.7388358971089073	23764998.868265253
0.7389590364250921	23597237.353771877
0.7390821962644963	23429447.87902596
0.7392053766305403	23261630.439367827
0.7393285775266454	23093785.0301363
0.7394517989562333	22925911.646669734
0.7395750409227259	22758010.2843062
0.7396983034295463	22610152.81836401
0.739821586480118	22908784.617393658
0.7399448900778645	23207466.18838922
0.7400682142262109	23506197.539647523
0.740191558928582	23804978.67946405
0.7403149241884034	24103809.61613698
0.7404383100091014	24402690.357966095
0.7405617163941028	24701620.913251992
0.7406851433468352	24907574.287459575
0.7408085908707264	24687985.82139317
0.7409320589692048	24468360.75724919
0.7410555476456997	24248699.088927682
0.7411790569036406	24029000.81032828
0.7413025867464579	23809265.915349044
0.7414261371775823	23589494.397887252
0.7415497082004452	23369686.25183939
0.7416732998184786	23227085.95594712
0.741796912035115	23250166.521628737
0.7419205448537874	23273250.934071302
0.7420441982779297	23296339.193915937
0.742167872310976	23319431.3018039
0.7422915669563612	23342527.258376513
0.7424152822175206	23365627.064275213
0.7425390180978901	23388730.72014155
0.7426627746009065	23337327.011898298
0.7427865517300065	23195080.23000991
0.7429103494886282	23052809.74032439
0.7430341678802096	22910515.5388907
0.7431580069081896	22768197.62175678
0.7432818665760077	22625855.984969806
0.7434057468871037	22483490.624576814
0.7435296478449182	22341101.536623843
0.7436535694528923	22229570.296479054
0.7437775117144678	22139159.856074404
0.7439014746330868	22048734.347263154
0.7440254582121922	21958293.767533693
0.7441494624552276	21867838.11437424
0.7442734873656368	21777367.385272615
0.7443975329468645	21686881.577716064
0.7445215992023557	21596380.6891916
0.7446456861355559	21549278.57686739
0.7447697937499119	21518161.127374504
0.7448939220488703	21487038.491640043
0.7450180710358784	21455910.668799654
0.7451422407143843	21424777.657988787
0.7452664310878367	21393639.458342757
0.7453906421596846	21362496.068996817
0.7455148739333779	21331347.48908598
0.7456391264123667	21383656.221710414
0.7457633996001021	21449318.86532305
0.7458876935000356	21514992.452709746
0.7460120081156189	21580676.98569421
0.7461363434503048	21646372.466100868
0.7462606995075466	21712078.895754322
0.7463850762907978	21777796.276479285
0.7465094738035127	21843274.90257336
0.7466338920491467	21843442.34167101
0.746758331031155	21843609.808675174
0.7468827907529935	21843777.303590506
0.7470072712181189	21843944.826421656
0.7471317724299886	21844112.37717328
0.7472562943920602	21844279.955850028
0.7473808371077922	21844447.562456556
0.7475054005806435	21847783.783800427
0.7476299848140736	21870637.81324635
0.7477545898115426	21893495.651697185
0.7478792155765113	21916357.29978777
0.7480038621124406	21939222.758153018
0.7481285294227926	21962092.027427986
0.7482532175110298	21984965.108247858
0.7483779263806148	22007842.001247834
0.7485026560350116	22026042.126043435
0.7486274064776842	22031577.466953132
0.748752177712097	22037113.730419643
0.7488769697417158	22042650.91659674
0.749001782570006	22048189.025638193
0.7491266162004343	22053728.05769782
0.7492514706364677	22059268.01292946
0.7493763458815739	22064808.891486976
0.7495012419392209	22042097.162633274
0.7496261588128773	21978763.83087318
0.7497510965060128	21915419.94355775
0.7498760550220971	21852065.498927787
0.7500010343646007	21788700.495223712
0.7501260345369949	21725324.930685654
0.750251055542751	21661938.80355358
0.7503760973853414	21598542.112066943
0.7505011600682389	21538910.500883836
0.750626243594917	21482421.52952429
0.7507513479688495	21425923.14333627
0.7508764731935109	21369415.34075053
0.7510016192723765	21312898.12019768
0.7511267862089218	21256371.480108123
0.7512519740066232	21199835.418911867
0.7513771826689577	21143289.935038712
0.7515024121994025	21119096.282489266
0.7516276626014359	21109987.233614545
0.751752933878536	21100876.666565023
0.7518782260341824	21091764.58108766
0.7520035390718548	21082650.976929378
0.7521288729950334	21073535.853837073
0.7522542278071992	21064419.211557586
0.7523796035118337	21055301.049837716
0.7525050001124189	21038880.73975327
0.7526304176124378	21020869.969488773
0.7527558560153731	21002856.19742925
0.752881315324709	20984839.423074372
0.7530067955439299	20966819.64592376
0.7531322966765205	20948796.86547698
0.7532578187259665	20930771.081233453
0.7533833616957542	20912742.292692553
0.75350892558937	20844101.061596684
0.7536345104103016	20773068.58988888
0.7537601161620366	20702024.279435825
0.7538857428480638	20630968.128264293
0.7540113904718717	20559900.134400994
0.7541370590369503	20488820.295872062
0.7542627485467898	20417728.610703334
0.7543884590048808	20344031.716367196
0.7545141904147151	20244461.253918312
0.7546399427797842	20144874.196392518
0.7547657161035808	20045270.541023787
0.754891510389598	19945650.285045832
0.7550173256413296	19846013.42569184
0.7551431618622698	19746359.960194647
0.7552690190559135	19646689.88578656
0.7553948972257561	19538773.307882585
0.7555207963752938	19403214.09545978
0.755646716508023	19267632.289834987
0.755772657627441	19132027.88724254
0.7558986197370455	18996400.883916307
0.756024602840335	18860751.276089553
0.7561506069408084	18725079.05999483
0.7562766320419653	18589384.23186397
0.7564026781473054	18430689.0232996
0.75652874526033	18231532.630069684
0.7566548333845401	18032343.04410746
0.7567809425234375	17833120.25988098
0.7569070726805247	17633864.271857243
0.7570332238593047	17434575.074502192
0.7571593960632813	17235252.662280727
0.7572855892959586	17035897.029657215
0.7574118035608413	16834736.872412574
0.7575380388614347	16631810.26916717
0.7576642952012449	16428849.84482115
0.7577905725837782	16225855.59373803
0.7579168710125422	16022827.51027937
0.7580431904910444	15819765.588806724
0.7581695310227928	15616669.823680755
0.7582958926112967	15413540.209260345
0.7584222752600652	15161455.105265612
0.7585486789726085	14881224.37504113
0.7586751037524372	14600946.939694842
0.7588015496030628	14320622.791442113
0.7589280165279966	14040251.922498563
0.7590545045307512	13759834.325076856
0.7591810136148396	13479369.991388919
0.7593075437837755	13198858.913644955
0.7594340950410726	12901189.900500571
0.7595606673902461	12598506.695717655
0.7596872608348112	12295773.043733638
0.7598138753782836	11992988.93614129
0.75994051102418	11690154.364530727
0.7600671677760173	11387269.320491798
0.7601938456373134	11084333.795611965
0.7603205446115863	10781347.781478155
0.7604472647023548	10434336.965091895
0.7605740059131385	10082897.272946764
0.7607007682474575	9731399.007519264
0.7608275517088319	9379842.159048306
0.7609543563007835	9028226.71776849
0.7610811820268336	8676552.67391534
0.7612080288905045	8324820.017722221
0.7613348968953197	7972394.32550298
0.7614617860448022	7606893.122930982
0.7615886963424764	7241331.003491391
0.7617156277918667	6875707.957032247
0.7618425803964988	6510023.973398393
0.7619695541598982	6144279.042434029
0.7620965490855914	5778473.153981442
0.7622235651771058	5412606.297880356
0.7623506024379685	5058830.070287805
0.7624776608717082	4758256.696934534
0.7626047404818536	4457633.228019023
0.7627318412719337	4156959.6551925438
0.762858963245479	3856235.970103737
0.7629861064060198	3555462.164400722
0.7631132707570876	3254638.229729777
0.7632404563022137	2953764.157736657
0.7633676630449308	2684236.9875497734
0.7634948909887717	2481498.7858329853
0.7636221401372697	2278726.7944161748
0.7637494104939593	2075921.0076672703
0.7638767020623748	1873081.4199542003
0.7640040148460518	1670208.025642947
0.7641313488485262	1467300.8190993164
0.7642587040733344	1264359.794687698
0.7643860805240132	1105058.9507962225
0.7645134782041005	997847.7357510688
0.7646408971171346	890618.6521700297
0.764768337266654	783371.6970750996
0.7648957986561985	676106.867487619
0.7650232812893079	568824.1604285548
