#wavelength	surface flux
0.6450077295303345	14299.729185112847
0.6472567915916443	15988.906061827245
0.6494921445846558	18099.331056510036
0.6517150402069092	20285.6788160149
0.6539263725280762	22638.60916849099
0.6561272740364075	25076.487746284034
0.6583186388015747	27610.448525989235
0.6605015397071838	30502.959514279835
0.6626768708229065	33521.83588214624
0.6648455858230591	36745.872571349944
0.6670085787773132	39900.83162576771
0.6691668033599854	39586.53532068862
0.6713210344314575	37555.8640804645
0.6734722256660461	50090.62961392515
0.6756211519241333	55044.79874163188
0.6777685880661011	59290.58477123741
0.6799154281616211	63571.04668441541
0.6820623278617859	67933.068297519
0.6842101216316223	72344.19482073054
0.6863595843315125	76735.24981702758
0.688511312007904	81060.2681928533
0.6906660795211792	84210.14136301447
0.6928245425224304	84478.64022802249
0.6949873566627502	90709.98951903767
0.6971551775932312	97098.01347323929
0.6993286609649658	100867.16193541474
0.7015084028244019	102646.61678609932
0.7036949396133423	106689.83616230887
0.7058889269828796	110052.6513950782
0.7080909013748169	112745.66147061173
0.710301399230957	114684.82340536335
0.712520956993103	116091.14670550515
0.7147500514984131	115421.6371614509
0.7169892191886902	107762.0359136553
0.7192389369010925	105973.2051900473
0.7214996814727783	108297.8979676604
0.723771870136261	105214.9702811323
0.7260559797286987	99715.22551443931
0.7283523678779602	96811.88646182326
0.7306615710258484	90519.44308412154
0.7329838871955872	87813.46844928876
0.7353196740150452	83083.58787646756
0.7376693487167358	75370.86936250985
0.7400332689285278	69601.46347349041
0.7424117922782898	61800.1943440991
0.7448052167892456	54413.170659766794
0.7472138404846191	46722.22313352773
0.7496379613876343	38968.483531938786
0.7520779371261597	31345.512328226356
0.7545340061187744	24235.83223753043
0.7570064663887024	17709.94469732664
0.7594954967498779	11913.667161802216
0.7620013952255249	6878.588738189008
0.7645244002342224	2635.1622070605895
0.7670646905899048	698.6014258022759
0.7696225643157959	776.8767691901913
0.7721980810165405	4688.0029777100335
0.7747915983200073	11508.675242332114
0.7774031162261963	19771.477567716174
0.7800329327583313	24805.59321073244
0.7826811671257019	42714.81751651348
0.7853479981422424	60013.213218952296
0.7880334854125977	79248.37586530249
0.7907378077507019	99746.53130135412
0.7934610247612	68533.70517518638
0.7962033748626709	109774.2167311429
0.7989648580551147	183765.3732417175
0.801745593547821	222862.69998799902
0.8045456409454346	262843.33160224924
0.8073651194572449	303085.12910058175
0.8102040886878967	325850.4210951535
0.8130625486373901	346904.73458465334
0.8159406185150146	418888.730316294
0.8188382983207703	476022.76797313086
0.8217556476593018	550352.0148982789
0.8246926665306091	613051.5327692337
0.8276493549346924	696388.278632928
0.8306257724761963	759718.17623784
0.8336219191551208	845623.1036852028
0.8366377949714661	898872.5248075617
0.8396733403205872	1000527.2058173576
0.8427285552024841	1113427.3091436918
0.8458034992218018	1247032.7132205593
0.8488980531692505	1397832.2781351123
0.8520121574401855	1114632.3889243277
0.8551458716392517	1653112.1840894488
0.8582990765571594	1895316.3423975685
0.8614717125892639	2050012.636039693
0.8646637797355652	2225059.5097056003
0.8678751587867737	2415798.864945897
0.8711057901382446	2649215.7912632804
0.8743556141853333	2842820.433192149
0.87762451171875	3039064.0648784377
0.8809124231338501	3142805.047109488
0.8842192888259888	3215862.6373941824
0.8875449895858765	3233965.707199164
0.8908893465995789	3072719.2938155555
0.894252359867096	2017898.2063761735
0.8976338505744934	3165380.3615986803
0.9010337591171265	4076234.7093161955
0.9044519662857056	4948854.215785665
0.9078882932662964	4935264.133719839
0.9113426208496094	5090619.660614447
0.914814829826355	5339916.980847064
0.9183048605918884	4467408.033246884
0.9218124747276306	5744704.999173358
0.925337553024292	4272718.478677252
0.9288799166679382	775284.5248310249
0.9324395060539246	1491739.256767048
0.9360161423683167	1612432.705515298
0.9396095871925354	3006261.7442521746
0.943219780921936	1481695.829931748
0.9468464851379395	1047802.1819738612
0.9504896402359009	1293766.3796438565
0.9541489481925964	2205899.6510551875
0.9578243494033813	2731940.202209319
0.9615156054496765	1342546.5380389672
0.9652225375175476	1570353.211099697
0.9689450263977051	1976609.8523470254
0.9726828336715698	5426913.098477172
0.9764357805252075	4916897.429323742
0.9802037477493286	4770252.590252271
0.983986496925354	6061996.0097844545
0.9877838492393494	7161306.463822666
0.9915955662727356	8909103.630364394
0.9954215884208679	10205570.823930042
0.9992615580558777	11191743.820461117
1.0031154155731201	12001944.072110184
1.0069829225540161	14119213.381407384
1.0108637809753418	15969991.508771623
1.0147579908370972	18824036.232276406
1.018665075302124	20243906.18338516
1.022585153579712	21147464.60865368
1.0265177488327026	21567173.58184102
1.0304628610610962	23002920.149450853
1.0344202518463135	26726899.64462749
1.0383895635604858	28808042.954443224
1.0423706769943237	30240433.47022615
1.0463634729385376	31737097.5354042
1.0503677129745483	32239574.120536413
1.0543830394744873	34734095.07160974
1.058409333229065	36734149.283303484
1.0624464750289917	38959236.33037416
1.0664942264556885	39497491.07862284
1.0705522298812866	38220939.72494723
1.0746204853057861	42197825.931293994
1.0786986351013184	43045129.52750508
1.0827864408493042	44497952.9213537
1.086883783340454	39258787.162796505
1.0909905433654785	24926695.496722825
1.0951062440872192	13434352.732527869
1.0992310047149658	10172595.443876544
1.10336434841156	2694227.675555646
1.1075061559677124	3836723.562060415
1.1116561889648438	1601795.3704613235
1.115814208984375	1738419.093635104
1.1199802160263062	1170660.8954287302
1.124153733253479	293885.0813620969
1.1283347606658936	1421883.099609335
1.1325229406356812	568651.8280400806
1.1367181539535522	2365667.4952257983
1.1409201622009277	2471983.8491603476
1.145128846168518	1522938.2743076112
1.1493438482284546	2356771.070486754
1.1535650491714478	447796.56265209895
1.1577922105789185	802336.7964607823
1.1620250940322876	922286.3600554374
1.1662636995315552	1522506.4049835834
1.170507550239563	1458340.7048655783
1.174756646156311	2981765.849788299
1.1790107488632202	5217663.624901466
1.1832695007324219	9259494.539930914
1.1875330209732056	10682063.504491031
1.191800832748413	13194377.41809037
1.1960728168487549	20091344.191473357
1.2003488540649414	20882075.088456582
1.2046287059783936	27509721.08624858
1.2089121341705322	27107904.116506893
1.2131990194320679	28539782.050970584
1.2174891233444214	35925147.69644862
1.2217823266983032	42607319.2155199
1.2260783910751343	48866794.46036243
1.230377197265625	49834294.18695428
1.2346785068511963	54396973.91505535
1.238982081413269	57674908.6251532
1.2432878017425537	48960331.63699194
1.2475954294204712	60418386.990518324
1.2519049644470215	47337930.8278665
1.256216049194336	66115488.11689278
1.2605286836624146	67664475.61162727
1.2648425102233887	61369216.03341087
1.2691574096679688	62071714.86291409
1.2734732627868652	58119376.816644765
1.2777899503707886	58022582.85735395
1.2821072340011597	44330353.916442156
1.2864248752593994	42633902.94588431
1.2907428741455078	28999373.436391346
1.2950609922409058	28332636.332849886
1.2993791103363037	27476930.789958086
1.303696870803833	28729413.703273162
1.3080145120620728	27600871.5717503
1.3123314380645752	22036982.07520796
1.3166478872299194	22986344.294267762
1.3209635019302368	21247537.06321036
1.3252781629562378	11039485.17684481
1.3295916318893433	6777925.67909048
1.3339040279388428	1362817.9330689046
1.3382149934768677	253374.07479180407
1.3425244092941284	73074.37917203538
1.3468321561813354	146076.9224357524
1.3511382341384888	13620.348876069358
1.3554422855377197	31072.864746593634
1.3597444295883179	27323.90427284476
1.3640443086624146	21448.436783835496
1.3683418035507202	14935.492648387297
1.3726370334625244	47490.97331930112
1.3769296407699585	39992.775962354164
1.381219506263733	5388.314258970053
1.3855066299438477	3848.982663442695
1.3897908926010132	14176.170780780334
1.3940720558166504	42000.48546179979
1.3983501195907593	41029.369201578396
1.4026249647140503	127620.14882684896
1.4068963527679443	193619.02808702178
1.4111642837524414	37429.53483196703
1.4154287576675415	26812.045442348117
1.419689416885376	37553.94274190709
1.4239463806152344	37378.23702605747
1.4281994104385376	132167.42852204054
1.4324485063552856	86908.30447980705
1.436693549156189	108021.43502064438
1.440934419631958	215386.47039117623
1.4451709985733032	292743.2525793514
1.449403166770935	488230.7087129309
1.453631043434143	533668.6978974249
1.4578542709350586	878435.8357818052
1.4620729684829712	987422.7114521014
1.4662868976593018	874482.3871769166
1.4704961776733398	965946.6693914947
1.4747005701065063	1109214.4270294167
1.4788999557495117	908283.6687837179
1.4830944538116455	1147222.3529653307
1.4872838258743286	1195046.2504572473
1.491468071937561	1165297.7309174854
1.4956470727920532	1497225.812989334
1.4998208284378052	2323383.0798594877
1.5039892196655273	3487607.384163604
1.5081522464752197	3088943.540003565
1.5123097896575928	3841167.999247332
1.5164618492126465	5609784.842346516
1.5206083059310913	6566562.641160733
1.5247491598129272	8715984.718628224
1.5288842916488647	8154587.887851287
1.5330137014389038	10471737.676784905
1.5371372699737549	10900846.077699393
1.541254997253418	11837988.43817434
1.545366883277893	13500628.35603813
1.5494728088378906	15359882.868019253
1.5535727739334106	15971925.97294533
1.5576666593551636	16206380.271932365
1.561754584312439	18939567.402836427
1.5658363103866577	22125653.101508956
1.5699119567871094	24026233.632046822
1.5739814043045044	22537165.502364032
1.5780447721481323	23062312.921493478
1.582101821899414	25548521.231293052
1.5861525535583496	29073000.18597175
1.5901970863342285	27293565.31764084
1.5942351818084717	25379538.36923099
1.5982669591903687	25524344.83632178
1.6022924184799194	23729223.526737127
1.606311559677124	21256060.809076108
1.6103241443634033	20464656.147584956
1.6143304109573364	18414443.520820383
1.6183301210403442	15298479.43426522
1.6223233938217163	12032028.381384406
1.6263102293014526	10094849.901649268
1.6302905082702637	8364695.73633921
1.634264349937439	11047309.945487846
1.638231635093689	20515580.369374532
1.6421923637390137	18631168.530764233
1.646146535873413	7769430.769157798
1.6500942707061768	7931987.4783494705
1.6540353298187256	15308587.765736671
1.6579699516296387	14142761.661210814
1.661897897720337	13601592.505288195
1.6658192873001099	6893371.923219917
1.6697341203689575	2902491.635303463
1.6736423969268799	7365669.896359058
1.677544116973877	6069475.9793794155
1.6814392805099487	6108311.628038871
1.6853278875350952	5742848.1134140855
1.6892099380493164	3981062.0689203297
1.6930854320526123	2873306.386891013
1.696954369544983	1625892.701452662
1.7008168697357178	2146196.146286633
1.7046726942062378	2184666.3588719107
1.708522081375122	3582870.781092129
1.712364912033081	4806309.9712973405
1.7162011861801147	6091112.791981832
1.7200311422348022	7148322.886321488
1.723854422569275	5950323.475010597
1.7276713848114014	5098239.48344615
1.731481909751892	4502051.16046858
1.7352858781814575	4185846.581664845
1.7390835285186768	3977087.1785653145
1.7428747415542603	3639322.294766118
1.7466596364974976	3318690.004427425
1.7504380941390991	3178558.5647541457
1.7542102336883545	1942376.741523121
1.7579760551452637	1741801.9523925434
1.7617355585098267	1812583.7724481723
1.7654887437820435	1454471.0813623376
1.7692357301712036	1005033.6316897164
1.7729763984680176	869983.0168410505
1.776710867881775	506136.99022647983
1.7804391384124756	452779.2499047638
1.7841613292694092	494996.2212945211
1.7878772020339966	285131.44066340226
1.7915871143341064	194550.604731831
1.7952908277511597	221924.94041910695
1.7989884614944458	306630.84947494423
1.8026801347732544	108025.89075773128
1.806365728378296	51406.078408179346
1.8100452423095703	39901.178377570446
1.8137187957763672	27370.744931076868
1.817386507987976	26349.805300713626
1.8210482597351074	25930.469723814254
1.8247040510177612	24521.153133712705
1.828354001045227	16587.653569559396
1.8319982290267944	18870.58605928962
1.8356364965438843	17223.250309798696
1.8392690420150757	29913.28124453339
1.8428958654403687	128809.21923327427
1.8465168476104736	217277.85575664908
1.8501322269439697	110071.57428244603
1.8537418842315674	51609.69414014311
1.8573459386825562	108311.95107976558
1.860944390296936	99357.6580136095
1.864537239074707	51324.647219697785
1.8681244850158691	62269.23386062334
1.871706247329712	34780.67404931196
1.8752825260162354	78652.03414879287
1.8788533210754395	331156.00213622674
1.8824186325073242	368365.1731728739
1.8859784603118896	189545.5561995168
1.8895330429077148	176503.14079183544
1.8930821418762207	553122.7968532582
1.8966259956359863	707647.488003053
1.9001644849777222	134765.5074142827
1.9036977291107178	55267.008465976294
1.9072256088256836	166165.02922374423
1.9107483625411987	117522.32804485234
1.9142658710479736	35318.9271839927
1.9177782535552979	26616.191382436147
1.9212853908538818	18014.468147816813
1.9247875213623047	24631.629020755827
1.9282845258712769	33564.69038792871
1.9317764043807983	46605.22282468352
1.9352631568908691	72298.27270295739
1.9387450218200684	105577.48815644674
1.942221760749817	153713.24727415954
1.9456936120986938	132400.89979867853
1.9491604566574097	192234.26315828104
1.952622413635254	183615.16833650088
1.956079363822937	98777.14569770015
1.959531545639038	131831.90858806192
1.962978720664978	224771.96629354832
1.966421127319336	500081.7137031619
1.9698586463928223	835361.4630137184
1.9732913970947266	722393.2710672054
1.9767193794250488	573339.9203506404
1.9801424741744995	731923.7175574488
1.9835609197616577	1403055.4075508825
1.9869745969772339	1698077.678550416
1.990383505821228	1166994.401769042
1.9937876462936401	1122473.686342968
1.9971871376037598	1471233.4244515102
2.000581979751587	1725094.9618592856
2.003972291946411	1650004.7797250524
2.007357597351074	2134864.4666069914
2.0107386112213135	3517982.456037143
2.0141148567199707	3749226.4917842927
2.017486572265625	3378440.547505875
2.0208535194396973	4179721.754175542
2.0242159366607666	4809463.542046825
2.027573823928833	4809779.111563954
2.0309269428253174	5139868.990962965
2.034275770187378	5761898.70851409
2.0376198291778564	6299858.265376355
2.040959596633911	6945091.969437916
2.044294595718384	8435593.887892347
2.0476250648498535	10935593.71698711
2.0509510040283203	10086723.267306095
2.054272413253784	9245156.221754625
2.057589530944824	11108308.061115943
2.0609018802642822	12280028.769673567
2.0642096996307373	12197657.950281447
2.0675129890441895	13151775.022744635
2.0708119869232178	13794365.788539749
2.074106216430664	13235712.60621499
2.0773961544036865	12641843.407301396
2.080681324005127	12829973.073759494
2.0839622020721436	12926725.400614733
2.087238311767578	13250245.555210063
2.090510129928589	13575988.721523184
2.0937774181365967	13376219.799690705
2.0970399379730225	13308215.702973448
2.1002981662750244	12815159.215869354
2.1035518646240234	12018699.641567478
2.1068007946014404	11279121.540577482
2.1100454330444336	11123435.569541745
2.1132853031158447	11306902.16912308
2.116520881652832	11038963.381755808
2.1197516918182373	10690870.171888383
2.1229779720306396	10566990.10255461
2.12619948387146	10383618.746083817
2.1294167041778564	10064891.026761554
2.132629156112671	9928984.288265616
2.1358368396759033	9324142.565735726
2.139039993286133	8626108.337952044
2.1422386169433594	7749037.943537055
2.145432472229004	6904014.160492874
2.1486217975616455	6610655.105678589
2.151806354522705	6000747.788095288
2.1549863815307617	5959431.648564661
2.1581614017486572	5939306.386302673
2.16133189201355	5410518.130509175
2.1644976139068604	5251594.087217927
2.167658567428589	5016852.290108313
2.1708147525787354	4728247.174570388
2.173966407775879	4417700.737080909
2.1771130561828613	4130776.872319441
2.1802549362182617	3820283.2965484406
2.183391809463501	3499885.160266717
2.1865241527557373	3140651.837699353
2.1896514892578125	2713518.6523093963
2.1927738189697266	1972078.550706977
2.1958916187286377	1188399.3065518185
2.1990041732788086	675495.7456885594
2.2021119594573975	431068.27894135757
2.2052149772644043	430746.5659110501
2.208312749862671	620013.7095708391
2.2114057540893555	825200.8008670337
2.214493751525879	895292.0526305008
2.217576742172241	815552.6281003251
2.2206547260284424	680298.8167383
2.2237277030944824	593876.4179957564
2.2267956733703613	515422.5814859634
2.2298583984375	458290.7585341944
2.2329163551330566	415129.2811778512
2.235969066619873	369437.5048676726
2.2390167713165283	333465.8033047889
2.2420592308044434	270542.0618632939
2.2450966835021973	189943.02773368766
2.248128890991211	191455.38928426817
2.2511560916900635	249806.7821496954
2.254178285598755	258167.4320484081
2.257194995880127	245287.27989304037
2.260206699371338	231278.49314590773
2.2632133960723877	202883.73149496163
2.266214609146118	198847.2342317436
2.2692108154296875	235578.16562183874
2.2722020149230957	290856.2442965329
2.2751877307891846	320137.8152930361
2.278168201446533	301062.5909402213
2.2811436653137207	262737.4796496226
2.284113883972168	232851.96983302524
2.287078857421875	211603.496592034
2.290038824081421	191041.46438171112
2.2929933071136475	182696.67087990954
2.295942783355713	184529.22865183177
2.298887014389038	183480.97685007626
2.301826238632202	208499.10427775807
2.304760217666626	323854.5017613407
2.3076889514923096	554079.5940107828
2.310612440109253	782860.9933469231
2.3135311603546143	752245.8491321492
2.3164443969726562	417426.1191639708
2.319352865219116	174140.1765665063
2.322256088256836	159240.58544145653
2.3251543045043945	181524.39653335538
2.328047275543213	176289.3517811668
2.330935478210449	171642.69465341856
2.3338186740875244	164286.22649033708
2.3366971015930176	150237.3393388202
2.3395702838897705	131646.90627490458
2.3424389362335205	112740.34335808335
2.3453025817871094	102450.69297771461
2.348161458969116	109706.96845558318
2.351015567779541	137012.4573362182
2.353865146636963	178860.73128082545
2.3567099571228027	231313.20503868719
2.3595502376556396	297860.93002201326
2.3623859882354736	354531.8311034821
2.3652172088623047	320295.01773756754
2.368043899536133	192405.36283097218
2.370866537094116	102802.48890643225
2.3736846446990967	92839.86510922191
2.3764986991882324	127164.89485401241
2.3793084621429443	165357.45725227456
2.3821144104003906	188582.1132340865
2.384916305541992	203284.7149177469
2.387714147567749	222491.29170746208
2.3905084133148193	241002.8364287972
2.393299102783203	246794.7478267492
2.3960859775543213	248469.07970584146
2.398869514465332	265817.07683128124
2.4016497135162354	272080.7874681216
2.4044265747070312	273276.4310868292
2.407200336456299	303958.4300713064
2.409970998764038	373388.67769120325
2.4127390384674072	439879.5429377934
2.415503978729248	445080.71236281603
2.418266534805298	427489.89858277235
2.4210267066955566	440740.9601179915
2.4237842559814453	456195.5136176349
2.426539897918701	512055.3603747616
2.429293394088745	619699.0063160316
2.4320452213287354	714749.1429453915
2.4347951412200928	708364.9129182693
2.4375438690185547	701362.3245519168
2.440291166305542	829787.7844703263
2.443037271499634	815241.3956205159
2.445782423019409	680685.1284567917
2.4485268592834473	569566.3895653179
2.451270818710327	576588.6063078442
2.454014539718628	676743.7414092664
2.4567582607269287	771072.9629718441
2.4595019817352295	777646.6050343313
2.4622461795806885	766177.7690253766
2.4649908542633057	711513.5773106419
2.4677364826202393	620370.1273605222
2.4704833030700684	520141.67855776515
2.473231554031372	440719.0386056415
2.4759814739227295	388630.8575178231
2.4787333011627197	383884.1046998159
