#wavelength	surface flux
0.7	1843636.5116607796
0.7001166666666666	1845893.0348598838
0.7002333527777778	1847145.9727393952
0.700350058336574	1848399.119441886
0.7004667833462966	1849652.4750021587
0.7005835278101878	1850906.0394550283
0.7007002917314895	1852159.8128353045
0.7008170751134447	1853413.7951778108
0.7009338779592968	1854667.9865173737
0.7010507002722901	1855799.1860696548
0.7011675420556689	1856780.6469490093
0.701284403312678	1857762.2714051753
0.7014012840465635	1858744.059465419
0.7015181842605713	1859726.0111570058
0.701635103957948	1860708.126507207
0.701752043141941	1861690.4055432999
0.701869001815798	1862672.8482925668
0.7019859799827672	1864292.154226859
0.7021029776460976	1866354.8370077899
0.7022199948090387	1868417.8635691865
0.7023370314748403	1870481.233968343
0.7024540876467528	1872544.948262565
0.702571163328027	1874609.0065091664
0.7026882585219152	1876673.408765481
0.7028053732316688	1878738.1550888354
0.7029225074605406	1881684.2388979942
0.7030396612117841	1884971.0056613556
0.7031568344886527	1888258.3202191782
0.7032740272944008	1891546.1826627585
0.7033912396322832	1894834.5930834145
0.7035084715055552	1898123.5515724705
0.7036257229174727	1901413.058221276
0.7037429938712924	1904703.1131211924
0.7038602843702709	1905739.9175378045
0.7039775944176659	1906394.6339813694
0.7040949240167356	1907049.4595443418
0.7042122731707383	1907704.3942449077
0.7043296418829335	1908359.4381012572
0.7044470301565806	1909014.5911315829
0.70456443799494	1909669.8533540796
0.7046818654012724	1910325.2247869472
0.7047993123788394	1912888.6311016802
0.7049167789309024	1915454.6540801497
0.7050342650607243	1918021.1047291195
0.7051517707715678	1920587.9831198629
0.7052692960666963	1923155.28932367
0.705386840949374	1925723.0234118437
0.7055044054228656	1928291.1854557027
0.7056219894904361	1930572.7447749407
0.7057395931553511	1931030.6344832797
0.705857216420877	1931488.6005065704
0.7059748592902804	1931946.6428575313
0.7060925217668288	1932404.7615488847
0.70621020385379	1932862.956593353
0.7063279055544321	1933321.2280036618
0.7064456268720246	1933779.5757925394
0.7065633678098366	1934368.1385384544
0.7066811283711383	1935315.2033746208
0.7067989085592001	1936262.4260549264
0.7069167083772933	1937209.806605678
0.7070345278286895	1938157.345053189
0.707152366916661	1939105.0414237746
0.7072702256444803	1940052.895743754
0.7073881040154211	1941000.9080394548
0.7075060020327569	1942242.4273539486
0.7076239196997625	1943911.371655827
0.7077418570197124	1945580.594115087
0.7078598139958823	1947250.0947780905
0.7079777906315483	1948919.873691206
0.7080957869299869	1950589.9309008059
0.7082138028944751	1952260.266453273
0.7083318385282908	1953930.8803949999
0.7084498938347124	1954110.965706373
0.708567968817018	1953027.1443395268
0.7086860634784875	1951943.1423357849
0.7088041778224007	1950858.9596650412
0.7089223118520377	1949774.5962971873
0.7090404655706796	1948690.052202106
0.709158638981608	1947605.3273496742
0.709276832088105	1946520.4217097668
0.7093950448934531	1946917.3691934352
0.7095132774009353	1948021.1808097786
0.7096315296138355	1949125.1763947255
0.7097498015354378	1950229.3559789362
0.7098680931690269	1951333.7195930763
0.7099864045178884	1952438.2672678202
0.7101047355853081	1953542.9990338432
0.7102230863745722	1954647.9149218265
0.7103414568889679	1955401.8366128316
0.7104598471317828	1956076.0879626528
0.7105782571063047	1956750.4516876983
0.7106966868158224	1957424.927806698
0.710815136263625	1958099.516338384
0.7109336054530023	1958774.2173014926
0.7110520943872445	1959449.0307147612
0.7111706030696424	1960123.9565969326
0.7112891315034873	1959245.36236701
0.7114076796920712	1958292.4934189755
0.7115262476386865	1957339.4656594498
0.7116448353466263	1956386.279061965
0.711763442819184	1955432.9336000464
0.711882070059654	1954479.429247217
0.7120007170713306	1953525.765976996
0.7121193838575091	1952579.1312050154
0.7122380704214853	1951707.301842063
0.7123567767665555	1950835.3271742174
0.7124755028960166	1949963.2071772604
0.7125942488131658	1949090.9418269712
0.7127130145213015	1948218.5310991213
0.7128318000237216	1947345.974969486
0.7129506053237256	1946473.2734138279
0.7130694304246129	1945531.961867941
0.7131882753296837	1944351.1172862982
0.7133071400422386	1943170.0758972247
0.7134260245655789	1941988.8376679206
0.7135449289030065	1940807.4025655778
0.7136638530578235	1939625.7705573854
0.7137827970333332	1938443.9416105233
0.7139017608328388	1937261.9156921702
0.7140207444596443	1935978.651689146
0.7141397479170543	1934514.9265495965
0.7142587712083737	1933050.9574558588
0.7143778143369084	1931586.7443672712
0.7144968773059646	1930122.2872431686
0.7146159601188489	1928657.586042879
0.7147350627788687	1927192.6407257225
0.7148541852893318	1925727.4512510137
0.7149733276535467	1923403.5756004513
0.7150924898748222	1920213.6789343534
0.715211671956468	1917023.2506188103
0.7153308739017941	1913832.2905652123
0.715450095714111	1910640.7986849402
0.71556933739673	1907448.7748893544
0.7156885989529628	1904256.2190898028
0.7158078803861218	1901063.1311976134
0.7159271816995193	1895593.6279152997
0.7160465028964692	1888787.4115943736
0.7161658439802853	1881980.0609040612
0.7162852049542819	1875171.5756553016
0.7164045858217744	1868361.9556589965
0.716523986586078	1861551.200726028
0.7166434072505089	1854739.3106672408
0.716762847818384	1847926.2852934413
0.7168823082930204	1843145.30267972
0.7170017886777359	1838961.6756285345
0.7171212889758488	1834777.3513061765
0.7172408091906781	1830592.3295964303
0.7173603493255433	1826406.6103830643
0.7174799093837642	1822220.1935498319
0.7175994893686615	1818033.078980459
0.7177190892835562	1813845.2665586593
0.7178387091317702	1814250.8037071608
0.7179583489166254	1815117.572132814
0.7180780086414448	1815984.4850198722
0.7181976883095517	1816851.5423924115
0.7183173879242699	1817718.744274513
0.718437107488924	1818586.0906902617
0.7185568470068389	1819453.5816637469
0.7186766064813399	1820199.9021180081
0.7187963859157535	1817913.2020767946
0.7189161853134061	1815626.120918908
0.719036004677625	1813338.658580828
0.7191558440117378	1811050.8149990262
0.7192757033190732	1808762.5901099578
0.7193955826029597	1806473.9838500773
0.7195154818667269	1804184.9961558182
0.7196354011137046	1801690.887286958
0.7197553403472235	1798253.704664594
0.7198752995706147	1794815.9491784608
0.7199952787872098	1791377.6207330776
0.720115278000341	1787938.7192329536
0.7202352972133411	1784499.2445825792
0.7203553364295432	1781059.196686435
0.7204753956522815	1777618.5754489698
0.7205954748848902	1775417.798987368
0.7207155741307044	1775951.314287936
0.7208356933930594	1776484.91850772
0.7209558326752915	1777018.6116615408
0.7210759919807375	1777552.393764221
0.7211961713127342	1778086.2648305846
0.7213163706746197	1778620.2248754601
0.7214365900697322	1779154.2739136757
0.7215568295014103	1777357.680149819
0.721677088972994	1772779.8312620474
0.7217973684878227	1768201.219399469
0.7219176680492374	1763621.844434908
0.7220379876605789	1759041.7062411888
0.722158327325189	1754460.8046911024
0.7222786870464099	1749879.1396574266
0.7223990668275843	1745296.7110129101
0.7225194666720555	1741047.9710777267
0.7226398865831676	1737035.5578416951
0.7227603265642646	1733022.475870134
0.722880786618692	1729008.725051569
0.7230012667497951	1724994.305274537
0.7231217669609201	1720979.2164275418
0.7232422872554135	1716963.4583990753
0.7233628276366229	1712947.0310775975
0.7234833881078956	1710623.3934238676
0.7236039686725803	1708942.309553329
0.7237245693340255	1707260.9455021478
0.7238451900955812	1705579.3012236217
0.7239658309605971	1703897.3766710511
0.7240864919324239	1702215.1717977196
0.7242071730144127	1700532.686556909
0.724327874209915	1698849.920901895
0.7244485955222832	1691114.560325268
0.7245693369548704	1682377.2114587408
0.7246900985110294	1673638.406367415
0.7248108801941148	1664898.144808551
0.7249316820074803	1656156.4265394567
0.7250525039544815	1647413.251317303
0.7251733460384739	1638668.6188992776
0.7252942082628137	1629932.605420493
0.7254150906308574	1627033.7084851398
0.7255359931459625	1624134.328400297
0.7256569158114868	1621234.4650854392
0.7257778586307888	1618334.1184600275
0.7258988216072273	1615433.2884435125
0.7260198047441617	1612531.974955331
0.7261408080449525	1609630.177914897
0.72626183151296	1606735.3114226428
0.7263828751515454	1603889.2339394293
0.7265039389640706	1601042.6821099692
0.726625022953898	1598195.6558552023
0.7267461271243904	1595348.1550960583
0.7268672514789111	1592500.1797534563
0.7269883960208241	1589651.7297482998
0.7271095607534942	1586802.8050014738
0.7272307456802866	1583525.6711398093
0.7273519508045666	1579092.5775174086
0.7274731761297006	1574658.745046073
0.7275944216590555	1570224.173602659
0.7277156873959987	1565788.863064003
0.7278369733438982	1561352.8133069165
0.727958279506122	1556916.0242082158
0.7280796058860397	1552478.4956446597
0.7282009524870207	1546711.788180489
0.7283223193124353	1538979.2099203498
0.7284437063656539	1531245.3428971828
0.7285651136500483	1523510.186896166
0.7286865411689898	1515773.7417024984
0.7288079889258514	1508036.0071012797
0.7289294569240056	1500296.9828776452
0.7290509451668262	1492556.6688166312
0.7291724536576875	1485701.244468948
0.7292939823999636	1479578.9728816592
0.7294155313970303	1473455.6809157603
0.7295371006522632	1467331.3684012021
0.7296586901690385	1461206.0351678962
0.7297802999507332	1455079.6810457208
0.7299019300007252	1448952.3058645092
0.7300235803223919	1442823.909454117
0.7301452509191123	1437985.4381933853
0.7302669417942654	1433742.022008498
0.7303886529512311	1429497.8985875784
0.7305103843933897	1425253.0678127545
0.7306321361241218	1421007.5295661378
0.7307539081468093	1416761.283729806
0.7308757004648336	1412514.3301858439
0.7309975130815778	1408266.668816286
0.7311193460004248	1404232.5530393198
0.7312411992247582	1400246.2691751488
0.7313630727579622	1396259.3209303345
0.7314849666034219	1392271.708194142
0.7316068807645224	1388283.4308558293
0.7317288152446498	1384294.488804625
0.7318507700471907	1380304.8819297436
0.7319727451755319	1376314.6101203845
0.732094740633061	1370143.999890747
0.7322167564231665	1363874.231640419
0.7323387925492371	1357603.4184287156
0.7324608490146619	1351331.5600814787
0.732582925822831	1345058.6564245156
0.7327050229771347	1338784.707283617
0.7328271404809642	1332509.7124845218
0.7329492783377112	1326280.4289775332
0.7330714365507675	1320509.7792745659
0.7331936151235259	1314738.1677966495
0.7333158140593796	1308965.5943834935
0.7334380333617229	1303192.0588747598
0.7335602730339499	1297417.5611101051
0.7336825330794556	1291642.1009291555
0.7338048135016354	1285865.67817152
0.7339271143038857	1280478.4610935533
0.734049435489603	1276397.6778824972
0.7341717770621846	1272316.2145409053
0.7342941390250283	1268234.0709554253
0.7344165213815324	1264151.2470126825
0.734538924135096	1260067.7425992768
0.7346613472891185	1255983.5576018074
0.734783790847	1251898.6919068368
0.7349062548121412	1246512.0701937093
0.7350287391879431	1238824.847144704
0.7351512439778078	1231136.3428918417
0.7352737691851374	1223446.557221613
0.735396314813335	1215755.4899204322
0.7355188808658037	1208063.1407747143
0.7356414673459482	1200369.5095707895
0.7357640742571725	1192674.596095003
0.7358867016028818	1185630.8917725265
0.7360093493864824	1179230.4078346274
0.7361320176113801	1172828.857149414
0.736254706280982	1166426.2395390864
0.7363774153986956	1160022.5548258154
0.7365001449679286	1153617.8028317718
0.7366228949920899	1147211.9833790574
0.7367456654745885	1140805.0962897677
0.7368684564188344	1134615.9475763778
0.7369912678282374	1128549.4319858134
0.7371140997062088	1122481.9053093146
0.7372369520561599	1116413.3673783643
0.7373598248815024	1110343.818024439
0.7374827181856494	1104273.2570789445
0.7376056319720137	1098201.6843732921
0.7377285662440091	1092129.0997388542
0.7378515210050496	1084784.359307446
0.7379744962585505	1077055.946283503
0.738097492007927	1069326.2451907245
0.7382205082565949	1061595.2558144354
0.738343545007971	1053862.9779399184
0.7384666022654723	1046129.4113524146
0.7385896800325165	1038394.555837158
0.7387127783125219	1030658.4111793056
0.7388358971089073	1026349.0960068917
0.7389590364250921	1022382.9114440387
0.7390821962644963	1018416.0658504223
0.7392053766305403	1014448.5591158794
0.7393285775266454	1010480.3911302112
0.7394517989562333	1006511.5617832083
0.7395750409227259	1002542.0709646539
0.7396983034295463	998484.1889345226
0.739821586480118	992474.0196872669
0.7399448900778645	986462.8487451486
0.7400682142262109	980450.6759411885
0.740191558928582	974437.5011084339
0.7403149241884034	968423.3240798787
0.7404383100091014	962408.1446884839
0.7405617163941028	956391.9627671944
0.7406851433468352	950183.700554374
0.7408085908707264	943100.2695885968
0.7409320589692048	936015.6580509954
0.7410555476456997	928929.8657447987
0.7411790569036406	921842.8924732228
0.7413025867464579	914754.7380394329
0.7414261371775823	907665.4022465688
0.7415497082004452	900574.8848977446
0.7416732998184786	893519.3065788808
0.741796912035115	886540.0385211757
0.7419205448537874	879559.6072521294
0.7420441982779297	872578.0125778718
0.742167872310976	865595.2543044953
0.7422915669563612	858611.3322380735
0.7424152822175206	851626.2461846425
0.7425390180978901	844639.9959502069
0.7426627746009065	838232.0398736624
0.7427865517300065	832529.4172501065
0.7429103494886282	826825.8441894407
0.7430341678802096	821121.3205332692
0.7431580069081896	815415.8461231554
0.7432818665760077	809709.4208006317
0.7434057468871037	804002.0444072259
0.7435296478449182	798293.7167844244
0.7436535694528923	792186.7389377132
0.7437775117144678	785806.5062094819
0.7439014746330868	779425.2101091386
0.7440254582121922	773042.8504594399
0.7441494624552276	766659.4270831303
0.7442734873656368	760274.9398029262
0.7443975329468645	753889.3884415034
0.7445215992023557	747502.7728215212
0.7446456861355559	741163.4711101836
0.7447697937499119	734840.9341461468
0.7448939220488703	728517.3434259506
0.7450180710358784	722192.6987739733
0.7451422407143843	715867.0000145533
0.7452664310878367	709540.2469720008
0.7453906421596846	703212.4394706147
0.7455148739333779	696883.5773346429
0.7456391264123667	690768.4911741611
0.7457633996001021	684686.7360873715
0.7458876935000356	678603.967374723
0.7460120081156189	672520.1848673009
0.7461363434503048	666435.3883961246
0.7462606995075466	660349.5777921976
0.7463850762907978	654262.7528865124
0.7465094738035127	648175.3341043456
0.7466338920491467	642196.925890087
0.746758331031155	636217.5212744533
0.7468827907529935	630237.1200913908
0.7470072712181189	624255.7221747977
0.7471317724299886	618273.3273585505
0.7472562943920602	612289.935476505
0.7473808371077922	606305.5463624736
0.7475054005806435	600311.1571785613
0.7476299848140736	594260.3160027524
0.7477545898115426	588208.4663534127
0.7478792155765113	582155.6080624635
0.7480038621124406	576101.7409618037
0.7481285294227926	570046.8648832953
0.7482532175110298	563990.9796587673
0.7483779263806148	557934.0851200438
0.7485026560350116	551930.1155777943
0.7486274064776842	546071.117021233
0.748752177712097	540211.1419649228
0.7488769697417158	534350.1902460908
0.749001782570006	528488.2617019793
0.7491266162004343	522625.3561697789
0.7492514706364677	516761.4734866539
0.7493763458815739	510896.61348974233
0.7495012419392209	505028.42556302017
0.7496261588128773	499155.8805484822
0.7497510965060128	493282.3567764376
0.7498760550220971	487407.8540837666
0.7500010343646007	481532.3723073125
0.7501260345369949	475655.91128389275
0.750251055542751	469778.4708503091
0.7503760973853414	463900.0508433163
0.7505011600682389	458134.08070231735
0.750626243594917	452461.8606908179
0.7507513479688495	446788.6953093251
0.7508764731935109	441114.5844002668
0.7510016192723765	435439.52780605556
0.7511267862089218	429763.5253690839
0.7512519740066232	424086.57693170407
0.7513771826689577	418408.6823362481
0.7515024121994025	412979.32622176
0.7516276626014359	407665.3890470935
0.751752933878536	402350.5662162405
0.7518782260341824	397034.85758158064
0.7520035390718548	391718.2629954792
0.7521288729950334	386400.7823102829
0.7522542278071992	381082.4153783053
0.7523796035118337	375763.16205183644
0.7525050001124189	370471.48998834426
0.7526304176124378	365185.1270904635
0.7527558560153731	359897.88313210645
0.752881315324709	354609.7579664179
0.7530067955439299	349320.7514465332
0.7531322966765205	344030.86342556885
0.7532578187259665	338740.09375659947
0.7533833616957542	333448.4422926854
0.75350892558937	328287.78825128445
0.7536345104103016	323132.4754455001
0.7537601161620366	317976.3034209174
0.7538857428480638	312819.2720343257
0.7540113904718717	307661.3811425095
0.7541370590369503	302502.6306022125
0.7542627485467898	297343.02027015557
0.7543884590048808	292218.8742495776
0.7545141904147151	287456.1037070568
0.7546399427797842	282692.5393694532
0.7547657161035808	277928.18110445933
0.754891510389598	273163.0287797548
0.7550173256413296	268397.0822629943
0.7551431618622698	263630.3414218155
0.7552690190559135	258862.80612383084
0.7553948972257561	254131.91100391906
0.7555207963752938	249525.8818217673
0.755646716508023	244919.08496808785
0.755772657627441	240311.52031493117
0.7558986197370455	235703.18773433162
0.756024602840335	231094.08709830313
0.7561506069408084	226484.21827883535
0.7562766320419653	221873.58114789354
0.7564026781473054	217307.339465766
0.75652874526033	212819.81313744557
0.7566548333845401	208331.53888806808
0.7567809425234375	203842.51659298397
0.7569070726805247	199352.7461275199
0.7570332238593047	194862.22736697888
0.7571593960632813	190370.96018664012
0.7572855892959586	185878.94446177108
0.7574118035608413	181629.04866227682
0.7575380388614347	177616.05081908873
0.7576642952012449	173602.38414292524
0.7577905725837782	169588.0485223215
0.7579168710125422	165573.04384577385
0.7580431904910444	161557.37000177862
0.7581695310227928	157541.02687881445
0.7582958926112967	153524.01436532475
0.7584222752600652	149692.4365652282
0.7585486789726085	145967.12993810957
0.7586751037524372	142241.2024265517
0.7588015496030628	138514.65392706794
0.7589280165279966	134787.484336175
0.7590545045307512	131059.69355035022
0.7591810136148396	127331.28146606122
0.7593075437837755	123602.24797975268
0.7594340950410726	120126.17580874792
0.7595606673902461	116723.09794269323
0.7596872608348112	113319.4528969908
0.7598138753782836	109915.24057711782
0.75994051102418	106510.46088852169
0.7600671677760173	103105.11373664677
0.7601938456373134	99699.19902691062
0.7603205446115863	96292.71666472475
0.7604472647023548	93171.77117767138
0.7605740059131385	90078.74429830481
0.7607007682474575	86985.20191445532
0.7608275517088319	83891.14394021539
0.7609543563007835	80796.57028963957
0.7610811820268336	77701.4808767905
0.7612080288905045	74605.8756157119
0.7613348968953197	71521.2371269095
0.7614617860448022	68671.68431462605
0.7615886963424764	65821.65657687002
0.7617156277918667	62971.15383449377
0.7618425803964988	60120.176008324794
0.7619695541598982	57268.723019185534
0.7620965490855914	54416.794787883526
0.7622235651771058	51564.39123520634
0.7623506024379685	48814.981517392036
0.7624776608717082	46518.63051818529
0.7626047404818536	44221.8967938119
0.7627318412719337	41924.7802804884
0.762858963245479	39627.280914411225
0.7629861064060198	37329.39863177284
0.7631132707570876	35031.13336875162
0.7632404563022137	32732.48506152197
0.7633676630449308	30587.09603737088
0.7634948909887717	28768.40308683676
0.7636221401372697	26949.407020813254
0.7637494104939593	25130.107788777026
0.7638767020623748	23310.505340204752
0.7640040148460518	21490.599624555645
0.7641313488485262	19670.39059128733
0.7642587040733344	17849.878189844734
0.7643860805240132	16259.479932610926
0.7645134782041005	14943.773834020394
0.7646408971171346	13627.84845107955
0.764768337266654	12311.70374724203
0.7648957986561985	10995.339685953446
0.7650232812893079	9678.75623065482
