#wavelength	surface flux
0.7	2903178.367885649
0.7001166666666666	2906658.707911119
0.7002333527777778	2908990.3134516533
0.700350058336574	2911322.3075931096
0.7004667833462966	2913654.6904002535
0.7005835278101878	2915987.4619378718
0.7007002917314895	2918320.622270742
0.7008170751134447	2920654.171463668
0.7009338779592968	2922988.109581458
0.7010507002722901	2925096.2520615715
0.7011675420556689	2926929.494244672
0.701284403312678	2928763.0419681333
0.7014012840465635	2930596.895282885
0.7015181842605713	2932431.054239855
0.701635103957948	2934265.518889983
0.701752043141941	2936100.2892842195
0.701869001815798	2937935.365473524
0.7019859799827672	2940248.625600631
0.7021029776460976	2942894.8475147327
0.7022199948090387	2945541.510465824
0.7023370314748403	2948188.614527406
0.7024540876467528	2950836.1597729977
0.702571163328027	2953484.146276126
0.7026882585219152	2956132.5741103454
0.7028053732316688	2958781.4433492003
0.7029225074605406	2962416.518934717
0.7030396612117841	2966432.849390213
0.7031568344886527	2970449.849234118
0.7032740272944008	2974467.5185779952
0.7033912396322832	2978485.8575334316
0.7035084715055552	2982504.866212023
0.7036257229174727	2986524.5447253957
0.7037429938712924	2990544.8931851913
0.7038602843702709	2992330.056826983
0.7039775944176659	2993736.300647447
0.7040949240167356	2995142.7788418806
0.7042122731707383	2996549.4914493463
0.7043296418829335	2997956.4385089143
0.7044470301565806	2999363.6200596583
0.70456443799494	3000771.03614066
0.7046818654012724	3002178.686791009
0.7047993123788394	3005137.7986407774
0.7049167789309024	3008099.183777201
0.7050342650607243	3011061.062477818
0.7051517707715678	3014023.4348248844
0.7052692960666963	3016986.3009006735
0.705386840949374	3019949.660787474
0.7055044054228656	3022913.5145675936
0.7056219894904361	3025595.1919110785
0.7057395931553511	3026480.9758224785
0.705857216420877	3027366.9073645314
0.7059748592902804	3028252.986561841
0.7060925217668288	3029139.2134390175
0.70621020385379	3030025.5880206735
0.7063279055544321	3030912.110331425
0.7064456268720246	3031798.7803958966
0.7065633678098366	3032771.4626437076
0.7066811283711383	3033980.7791511216
0.7067989085592001	3035190.2972112866
0.7069167083772933	3036400.0168577945
0.7070345278286895	3037609.938124244
0.707152366916661	3038820.0610442385
0.7072702256444803	3040030.3856513845
0.7073881040154211	3041240.9119793004
0.7075060020327569	3042611.5927038994
0.7076239196997625	3044215.4484843854
0.7077418570197124	3045819.5715741664
0.7078598139958823	3047423.962017796
0.7079777906315483	3049028.619859834
0.7080957869299869	3050633.545144845
0.7082138028944751	3052238.7379174023
0.7083318385282908	3053844.1982220896
0.7084498938347124	3054017.10254304
0.708567968817018	3052975.2585897357
0.7086860634784875	3051933.2409957717
0.7088041778224007	3050891.0497322073
0.7089223118520377	3049848.6847701008
0.7090404655706796	3048806.146080501
0.709158638981608	3047763.4336344516
0.709276832088105	3046720.5474029947
0.7093950448934531	3047051.9468242787
0.7095132774009353	3048038.896026362
0.7096315296138355	3049026.0097199795
0.7097498015354378	3050013.287932546
0.7098680931690269	3051000.7306914795
0.7099864045178884	3051988.3380242083
0.7101047355853081	3052976.1099581583
0.7102230863745722	3053964.0465207635
0.7103414568889679	3054190.7594216964
0.7104598471317828	3054244.5047440003
0.7105782571063047	3054298.259023858
0.7106966868158224	3054352.022262762
0.710815136263625	3054405.794462206
0.7109336054530023	3054459.575623683
0.7110520943872445	3054513.365748687
0.7111706030696424	3054567.164838712
0.7112891315034873	3053179.9008922284
0.7114076796920712	3051723.6480395864
0.7115262476386865	3050267.1524781357
0.7116448353466263	3048810.414167425
0.711763442819184	3047353.433066996
0.711882070059654	3045896.2091363817
0.7120007170713306	3044438.742335113
0.7121193838575091	3042987.971691526
0.7122380704214853	3041609.3319643294
0.7123567767665555	3040230.4624638455
0.7124755028960166	3038851.363151778
0.7125942488131658	3037472.033989826
0.7127130145213015	3036092.474939677
0.7128318000237216	3034712.685963024
0.7129506053237256	3033332.667021539
0.7130694304246129	3031787.9893250572
0.7131882753296837	3029668.1533407127
0.7133071400422386	3027547.96405037
0.7134260245655789	3025427.4213951468
0.7135449289030065	3023306.5253161476
0.7136638530578235	3021185.2757544694
0.7137827970333332	3019063.6726511945
0.7139017608328388	3016941.715947403
0.7140207444596443	3014708.686873873
0.7141397479170543	3012277.774438319
0.7142587712083737	3009846.456850695
0.7143778143369084	3007414.7340434715
0.7144968773059646	3004982.605949113
0.7146159601188489	3002550.072500073
0.7147350627788687	3000117.133628791
0.7148541852893318	2997683.7892676983
0.7149733276535467	2994384.996329548
0.7150924898748222	2990213.3635463826
0.715211671956468	2986041.035491086
0.7153308739017941	2981868.012047777
0.715450095714111	2977694.293100563
0.71556933739673	2973519.878533523
0.7156885989529628	2969344.768230723
0.7158078803861218	2965168.9620761997
0.7159271816995193	2958508.6978392005
0.7160465028964692	2950389.510154865
0.7161658439802853	2942268.9692725833
0.7162852049542819	2934147.074966822
0.7164045858217744	2926023.8270120053
0.716523986586078	2917899.2251825323
0.7166434072505089	2909773.269252759
0.716762847818384	2901645.958996994
0.7168823082930204	2895601.340566774
0.7170017886777359	2890168.832275475
0.7171212889758488	2884735.418566131
0.7172408091906781	2879301.099287834
0.7173603493255433	2873865.8742896556
0.7174799093837642	2868429.743420647
0.7175994893686615	2862992.7065298245
0.7177190892835562	2857554.7634661896
0.7178387091317702	2856506.796151592
0.7179583489166254	2855899.423530352
0.7180780086414448	2855291.949680341
0.7181976883095517	2854684.3745846883
0.7183173879242699	2854076.69822652
0.718437107488924	2853468.920588958
0.7185568470068389	2852861.0416551232
0.7186766064813399	2852118.900382589
0.7187963859157535	2848022.314115272
0.7189161853134061	2843925.0450835773
0.719036004677625	2839827.09317371
0.7191558440117378	2835728.4582718606
0.7192757033190732	2831629.1402641884
0.7193955826029597	2827529.1390368533
0.7195154818667269	2823428.4544759765
0.7196354011137046	2819083.980129896
0.7197553403472235	2813619.4766701683
0.7198752995706147	2808154.062459866
0.7199952787872098	2802687.7373471917
0.720115278000341	2797220.5011803317
0.7202352972133411	2791752.3538074438
0.7203553364295432	2786283.2950766683
0.7204753956522815	2780813.3248360967
0.7205954748848902	2776572.543313746
0.7207155741307044	2775042.9665876203
0.7208356933930594	2773513.134932043
0.7209558326752915	2771983.048304523
0.7210759919807375	2770452.706662563
0.7211961713127342	2768922.109963665
0.7213163706746197	2767391.258165314
0.7214365900697322	2765860.1512249983
0.7215568295014103	2762169.0416898583
0.721677088972994	2755900.374471802
0.7217973684878227	2749630.6624758863
0.7219176680492374	2743359.905527964
0.7220379876605789	2737088.1034538876
0.722158327325189	2730815.256079463
0.7222786870464099	2724541.3632304794
0.7223990668275843	2718266.4247326846
0.7225194666720555	2711566.2447497947
0.7226398865831676	2704564.3099848693
0.7227603265642646	2697561.208230833
0.722880786618692	2690556.939293156
0.7230012667497951	2683551.5029773274
0.7231217669609201	2676544.8990887785
0.7232422872554135	2669537.127432921
0.7233628276366229	2662528.187815109
0.7234833881078956	2657431.767328744
0.7236039686725803	2653061.050649613
0.7237245693340255	2648689.60551771
0.7238451900955812	2644317.43181161
0.7239658309605971	2639944.529409897
0.7240864919324239	2635570.8981911116
0.7242071730144127	2631196.5380337895
0.724327874209915	2626821.4488164503
0.7244485955222832	2616670.479705405
0.7245693369548704	2605562.9463872337
0.7246900985110294	2594453.5618135263
0.7248108801941148	2583342.3256756933
0.7249316820074803	2572229.237665208
0.7250525039544815	2561114.2974733696
0.7251733460384739	2549997.5047914973
0.7252942082628137	2538888.0528600183
0.7254150906308574	2533103.7829277567
0.7255359931459625	2527318.548950506
0.7256569158114868	2521532.35076759
0.7257778586307888	2515745.188218308
0.7258988216072273	2509957.061141936
0.7260198047441617	2504167.969377724
0.7261408080449525	2498377.912764875
0.72626183151296	2492581.073649437
0.7263828751515454	2486744.607814282
0.7265039389640706	2480907.169234823
0.726625022953898	2475068.75774893
0.7267461271243904	2469229.3731944533
0.7268672514789111	2463389.0154092214
0.7269883960208241	2457547.6842310303
0.7271095607534942	2451705.379497639
0.7272307456802866	2445448.0139036425
0.7273519508045666	2438071.0560922655
0.7274731761297006	2430692.868787924
0.7275944216590555	2423313.4517856976
0.7277156873959987	2415932.8048806353
0.7278369733438982	2408550.9278677437
0.727958279506122	2401167.8205420366
0.7280796058860397	2393783.482698432
0.7282009524870207	2385022.833687625
0.7283223193124353	2374226.827462836
0.7284437063656539	2363429.0219036993
0.7285651136500483	2352629.4167102845
0.7286865411689898	2341828.0115826936
0.7288079889258514	2331024.806220888
0.7289294569240056	2320219.800324881
0.7290509451668262	2309412.993594545
0.7291724536576875	2299380.7627180214
0.7292939823999636	2289990.171713046
0.7294155313970303	2280598.0156095508
0.7295371006522632	2271204.2941467073
0.7296586901690385	2261809.0070636277
0.7297802999507332	2252412.1540993713
0.7299019300007252	2243013.7349929307
0.7300235803223919	2233613.74948333
0.7301452509191123	2225528.0162839554
0.7302669417942654	2218048.277301807
0.7303886529512311	2210567.2916964926
0.7305103843933897	2203085.059260242
0.7306321361241218	2195601.579785258
0.7307539081468093	2188116.853063681
0.7308757004648336	2180630.878887667
0.7309975130815778	2173143.657049281
0.7311193460004248	2165747.479557695
0.7312411992247582	2158370.9631496198
0.7313630727579622	2150993.2173221447
0.7314849666034219	2143614.241870358
0.7316068807645224	2136234.036589334
0.7317288152446498	2128852.601274092
0.7318507700471907	2121469.935719628
0.7319727451755319	2114086.0397209073
0.732094740633061	2104431.8027433674
0.7322167564231665	2094673.800660658
0.7323387925492371	2084914.1722442675
0.7324608490146619	2075152.9172231439
0.732582925822831	2065390.0353261807
0.7327050229771347	2055625.526282246
0.7328271404809642	2045859.3898201273
0.7329492783377112	2036132.04997022
0.7330714365507675	2026800.5025633217
0.7331936151235259	2017467.3998985246
0.7333158140593796	2008132.7417166273
0.7334380333617229	1998796.5277583522
0.7335602730339499	1989458.757764413
0.7336825330794556	1980119.4314754729
0.7338048135016354	1970778.5486321691
0.7339271143038857	1961792.2168402006
0.734049435489603	1953997.5928592037
0.7341717770621846	1946201.6697742087
0.7342941390250283	1938404.4473687033
0.7344165213815324	1930605.9254261334
0.734538924135096	1922806.103729895
0.7346613472891185	1915004.9820633843
0.734783790847	1907202.5602099262
0.7349062548121412	1898141.992011428
0.7350287391879431	1886858.3871863275
0.7351512439778078	1875572.9017603998
0.7352737691851374	1864285.5354202478
0.735396314813335	1852996.2878523627
0.7355188808658037	1841705.1587432348
0.7356414673459482	1830412.1477792324
0.7357640742571725	1819117.2546467439
0.7358867016028818	1808476.374865071
0.7360093493864824	1798481.477887396
0.7361320176113801	1788484.9150935719
0.736254706280982	1778486.6862059485
0.7363774153986956	1768486.790946831
0.7365001449679286	1758485.2290385242
0.7366228949920899	1748482.0002032244
0.7367456654745885	1738477.1041631189
0.7368684564188344	1728639.3502145465
0.7369912678282374	1718895.3642541033
0.7371140997062088	1709149.7542959962
0.7372369520561599	1699402.5200695535
0.7373598248815024	1689653.6613040948
0.7374827181856494	1679903.1777288257
0.7376056319720137	1670151.06907296
0.7377285662440091	1660397.33506565
0.7378515210050496	1649445.3686098105
0.7379744962585505	1638131.5542347555
0.738097492007927	1626815.8542239743
0.7382205082565949	1615498.2682631982
0.738343545007971	1604178.7960380975
0.7384666022654723	1592857.4372342813
0.7385896800325165	1581534.191537348
0.7387127783125219	1570209.0586327845
0.7388358971089073	1562162.8558683922
0.7389590364250921	1554444.3862249402
0.7390821962644963	1546724.630169875
0.7392053766305403	1539003.587488812
0.7393285775266454	1531281.2579672965
0.7394517989562333	1523557.6413908533
0.7395750409227259	1515832.7375449932
0.7396983034295463	1508029.6028395437
0.739821586480118	1498513.5049592776
0.7399448900778645	1488995.821062717
0.7400682142262109	1479476.5508854778
0.740191558928582	1469955.6941632193
0.7403149241884034	1460433.2506315147
0.7404383100091014	1450909.2200258856
0.7405617163941028	1441383.6020818285
0.7406851433468352	1431643.3490377117
0.7408085908707264	1420926.831555027
0.7409320589692048	1410208.5279861004
0.7410555476456997	1399488.4380332371
0.7411790569036406	1388766.5613987227
0.7413025867464579	1378042.897784766
0.7414261371775823	1367317.4468935374
0.7415497082004452	1356590.2084271687
0.7416732998184786	1345910.1401211151
0.741796912035115	1335333.3164244397
0.7419205448537874	1324754.7299238169
0.7420441982779297	1314174.3803254445
0.742167872310976	1303592.2673354624
0.7422915669563612	1293008.3906599826
0.7424152822175206	1282422.7500050594
0.7425390180978901	1271835.3450767004
0.7426627746009065	1261904.172870862
0.7427865517300065	1252773.4912842326
0.7429103494886282	1243641.2879173288
0.7430341678802096	1234507.5625165377
0.7431580069081896	1225372.3148281802
0.7432818665760077	1216235.5445985286
0.7434057468871037	1207097.2515738464
0.7435296478449182	1197957.435500332
0.7436535694528923	1188355.112670504
0.7437775117144678	1178435.6321397335
0.7439014746330868	1168514.498362223
0.7440254582121922	1158591.7110624076
0.7441494624552276	1148667.2699647048
0.7442734873656368	1138741.1747934879
0.7443975329468645	1128813.4252730678
0.7445215992023557	1118884.0211277287
0.7446456861355559	1109196.1655521856
0.7447697937499119	1099596.2850350167
0.7448939220488703	1089994.8045377638
0.7450180710358784	1080391.7237937697
0.7451422407143843	1070787.0425363174
0.7452664310878367	1061180.7604986464
0.7453906421596846	1051572.8774139793
0.7455148739333779	1041963.3930154617
0.7456391264123667	1032490.1552125645
0.7457633996001021	1023037.3796978476
0.7458876935000356	1013583.028720528
0.7460120081156189	1004127.1020180635
0.7461363434503048	994669.5993278108
0.7462606995075466	985210.5203871012
0.7463850762907978	975749.8649332491
0.7465094738035127	966288.6743050007
0.7466338920491467	957098.3839716259
0.746758331031155	947906.5619231865
0.7468827907529935	938713.2079044166
0.7470072712181189	929518.3216599767
0.7471317724299886	920321.9029344942
0.7472562943920602	911123.951472564
0.7473808371077922	901924.4670187153
0.7475054005806435	892717.0633494979
0.7476299848140736	883468.7900547681
0.7477545898115426	874218.9753811539
0.7478792155765113	864967.6190717584
0.7480038621124406	855714.720869652
0.7481285294227926	846460.2805178474
0.7482532175110298	837204.2977593078
0.7483779263806148	827946.7723369879
0.7485026560350116	818782.563280491
0.7486274064776842	809873.5599628412
0.748752177712097	800963.0718113214
0.7488769697417158	792051.098578424
0.749001782570006	783137.6400166652
0.7491266162004343	774222.695878482
0.7492514706364677	765306.2659162718
0.7493763458815739	756388.3498823922
0.7495012419392209	747498.9954465079
0.7496261588128773	738651.3569135226
0.7497510965060128	729802.2437741089
0.7498760550220971	720951.6557825087
0.7500010343646007	712099.5926929084
0.7501260345369949	703246.0542594554
0.750251055542751	694391.0402362735
0.7503760973853414	685534.5503774157
0.7505011600682389	676850.8520056056
0.750626243594917	668311.2157857602
0.7507513479688495	659770.1562932244
0.7508764731935109	651227.6732907703
0.7510016192723765	642683.7665411469
0.7511267862089218	634138.4358070733
0.7512519740066232	625591.6808512076
0.7513771826689577	617043.5014361776
0.7515024121994025	608865.6922907974
0.7516276626014359	600859.8718841985
0.751752933878536	592852.7171742126
0.7518782260341824	584844.227938439
0.7520035390718548	576834.4039544559
0.7521288729950334	568823.2449998129
0.7522542278071992	560810.7508520102
0.7523796035118337	552796.9212885123
0.7525050001124189	544860.5703081447
0.7526304176124378	536940.0369331184
0.7527558560153731	529018.1834692063
0.752881315324709	521095.009696376
0.7530067955439299	513170.51539458067
0.7531322966765205	505244.7003437456
0.7532578187259665	497317.564323733
0.7533833616957542	489389.10711438395
0.75350892558937	481680.78596851503
0.7536345104103016	473981.5936657581
0.7537601161620366	466281.118164288
0.7538857428480638	458579.3592502269
0.7540113904718717	450876.31670969
0.7541370590369503	443171.9903287315
0.7542627485467898	435466.37989337125
0.7543884590048808	427815.3792518239
0.7545141904147151	420720.4853653874
0.7546399427797842	413624.408996648
0.7547657161035808	406527.14994851267
0.754891510389598	399428.7080238697
0.7550173256413296	392329.0830255698
0.7551431618622698	385228.27475643856
0.7552690190559135	378126.28301926394
0.7553948972257561	371085.3287046056
0.7555207963752938	364252.05366421456
0.755646716508023	357417.63974465406
0.755772657627441	350582.08675610466
0.7558986197370455	343745.39450872276
0.756024602840335	336907.56281263474
0.7561506069408084	330068.5914779307
0.7562766320419653	323228.48031466483
0.7564026781473054	316461.64802184456
0.75652874526033	309824.6453138407
0.7566548333845401	303186.5364387154
0.7567809425234375	296547.3212121133
0.7569070726805247	289906.9994496439
0.7570332238593047	283265.5709668816
0.7571593960632813	276623.0355793658
0.7572855892959586	269979.39310261846
0.7574118035608413	263705.92334448005
0.7575380388614347	257794.64334144187
0.7576642952012449	251882.37812506765
0.7577905725837782	245969.12753116587
0.7579168710125422	240054.89139548794
0.7580431904910444	234139.66955378515
0.7581695310227928	228223.4618417829
0.7582958926112967	222306.26809515452
0.7584222752600652	216672.44484475267
0.7585486789726085	211201.03469295255
0.7586751037524372	205728.71263945842
0.7588015496030628	200255.478532278
0.7589280165279966	194781.33221942387
0.7590545045307512	189306.27354885096
0.7591810136148396	183830.30236849975
0.7593075437837755	178353.41852627706
0.7594340950410726	173262.31102211028
0.7595606673902461	168282.54766493797
0.7596872608348112	163301.95434720113
0.7598138753782836	158320.5309305835
0.75994051102418	153338.2772767251
0.7600671677760173	148355.19324726163
0.7601938456373134	143371.27870378943
0.7603205446115863	138386.53350789612
0.7604472647023548	133832.18937929402
0.7605740059131385	129319.9505885232
0.7607007682474575	124806.9597579495
0.7608275517088319	120293.21676224741
0.7609543563007835	115778.72147603601
0.7610811820268336	111263.47377394629
0.7612080288905045	106747.47353058156
0.7613348968953197	102248.30483590551
0.7614617860448022	98109.17555320785
0.7615886963424764	93969.3564156241
0.7617156277918667	89828.84730818808
0.7618425803964988	85687.64811589742
0.7619695541598982	81545.75872374247
0.7620965490855914	77403.1790166919
0.7622235651771058	73259.90887968535
0.7623506024379685	69269.2889909549
0.7624776608717082	65950.11343441236
0.7626047404818536	62630.38468194358
0.7627318412719337	59310.10264135509
0.762858963245479	55989.26722042442
0.7629861064060198	52667.878326923295
0.7631132707570876	49345.93586860315
0.7632404563022137	46023.43975320958
0.7633676630449308	42926.01378961012
0.7634948909887717	40308.34996236958
0.7636221401372697	37690.249857827905
0.7637494104939593	35071.713403266345
0.7638767020623748	32452.740525966125
0.7640040148460518	29833.331153183382
0.7641313488485262	27213.485212171934
0.7642587040733344	24593.202630167347
0.7643860805240132	22319.827189612475
0.7645134782041005	20460.558195923884
0.7646408971171346	18600.97932406891
0.764768337266654	16741.090522402636
0.7648957986561985	14880.891739268822
0.7650232812893079	13020.382923004729
0.7651507851695227	11159.564021937907
