#wavelength	surface flux
0.8	715706.3495174907
0.8002000000000001	729069.535979155
0.8004000500000003	743019.3473529563
0.8006001500125003	756978.5379234632
0.8008003000500035	770941.2182916137
0.8010005001250161	784907.3893298628
0.8012007502500472	798877.0519108512
0.8014010504376099	812663.7355117837
0.8016014007002193	826391.4035629517
0.8018018010503944	840122.5035311324
0.8020022515006572	853857.0362743112
0.8022027520635323	867595.0026506641
0.8024033027515483	882091.3569088986
0.8026039035772362	897331.1601554241
0.8028045545531306	912574.7733527622
0.8030052556917691	927822.1974534069
0.803206007005692	943073.4334100632
0.8034068085074435	958368.0143135674
0.8036076602095705	973777.2332434594
0.8038085621246229	989190.3044780716
0.8040095142651542	1004607.228980502
0.8042105166437206	1020028.0077140529
0.8044115692728815	1035461.1229725475
0.8046126721651998	1051262.8934676307
0.8048138253332411	1067068.6144053251
0.8050150287895745	1082878.2867732686
0.805216282546772	1098691.9115592998
0.8054175866174087	1114509.4897515192
0.8056189410140631	1130500.7643994598
0.8058203457493168	1146544.084878606
0.8060218008357541	1162591.4161878517
0.8062233062859632	1178642.7593299325
0.8064248621125346	1194698.115307788
0.806626468328063	1211444.1845725507
0.8068281249451449	1228784.232107431
0.8070298319763813	1246128.614654216
0.8072315894343755	1263477.3332966247
0.8074333973317341	1280830.3891187005
0.8076352556810671	1297685.2259094142
0.8078371644949874	1313334.5370817296
0.8080391237861113	1328987.760581842
0.8082411335670578	1344644.8973878194
0.8084431938504498	1360305.9484780147
0.8086453046489125	1375918.7033584171
0.8088474659750746	1390563.2773499307
0.8090496778415686	1405211.5124849617
0.809251940261029	1419863.4096787658
0.8094542532460944	1434518.9698468808
0.8096566168094059	1449178.1939050213
0.8098590309636085	1465515.7318876197
0.8100614957213493	1482249.31955485
0.8102640110952797	1498987.0906189992
0.8104665770980536	1515729.0461259212
0.8106691937423283	1532475.1871217263
0.8108718610407639	1549649.5286641486
0.8110745790060241	1567152.3850515021
0.8112773476507757	1584659.617152968
0.8114801669876885	1602171.2260624545
0.8116830370294355	1619687.2128741583
0.8118859577886929	1636595.7676217891
0.8120889292781401	1652237.7911816814
0.8122919515104597	1667883.7252474625
0.8124950244983374	1683533.570796761
0.8126981482544621	1699187.3288074443
0.8129013227915257	1715197.2213937514
0.8131045481222237	1735244.1023110244
0.8133078242592543	1755295.9949485287
0.8135111512153191	1775352.900559187
0.813714529003123	1795414.8203962503
0.8139179576353739	1815481.7557132763
0.8141214371247829	1842102.092428588
0.8143249674840641	1869998.9261571486
0.814528548725935	1897902.7340941245
0.8147321808631167	1925813.5179831225
0.8149358639083326	1953731.279568084
0.8151395978743097	1979121.3776666902
0.8153433827737784	2002805.312184094
0.8155472186194719	2026495.1676851187
0.8157511054241268	2050190.945650014
0.815955043200483	2073892.6475594172
0.8161590319612831	2099678.3553899867
0.8163630717192736	2129278.3388483115
0.8165671624872033	2158885.722302468
0.8167713042778252	2188500.507602517
0.8169754971038948	2218122.696598906
0.8171797409781707	2244816.8131060516
0.8173840359134155	2248082.772832476
0.8175883819223938	2251349.5490488284
0.8177927790178745	2254617.141959237
0.8179972272126291	2257885.551767874
0.8182017265194322	2261154.7786789597
0.8184062769510622	2282037.8218561253
0.8186108785203001	2305636.4656484746
0.8188155312399301	2329241.00910174
0.8190202351227402	2352851.4536908953
0.819224990181521	2376467.800891183
0.8194297964290664	2413644.0827767737
0.8196346538781738	2458999.3266338455
0.8198395625416434	2504365.9093018635
0.8200445224322789	2549743.8336155675
0.820249533562887	2595133.102410337
0.8204545959462778	2635634.055526649
0.8206597095952644	2668259.2585632326
0.8208648745226633	2700892.617900601
0.8210700907412941	2733534.1355777984
0.8212753582639793	2766183.813634382
0.8214806771035456	2796948.0077640633
0.8216860472728215	2816052.724332955
0.8218914687846397	2835162.21708099
0.822096941651836	2854276.4872022215
0.822302465887249	2873395.5358909727
0.8225080415037209	2892519.3643419063
0.8227136685140968	2911988.138869333
0.8229193469312254	2931500.396440874
0.8231250767679583	2951017.532076814
0.8233308580371503	2970539.5469966526
0.8235366907516598	2990066.442420236
0.8237425749243477	3026974.8795090383
0.8239485105680789	3073102.4789475678
0.824154497695721	3119241.6102859275
0.824360536320145	3165392.276407131
0.8245666264542252	3211554.480194862
0.8247727681108388	3252049.125194147
0.8249789613028664	3284420.3547217133
0.8251852060431922	3316799.6770566893
0.825391502344703	3349187.0942222346
0.8255978502202894	3381582.6082421006
0.8258042496828445	3414276.8341976837
0.8260107007452654	3448390.6164884022
0.8262172034204517	3482512.927224659
0.8264237577213068	3516643.7685386087
0.8266303636607373	3550783.1425629016
0.8268370212516525	3584931.051430684
0.8270437305069654	3610422.860714641
0.8272504914395923	3635243.957916423
0.8274573040624523	3660071.260392512
0.8276641683884679	3684904.769694198
0.8278710844305652	3709744.487373239
0.8280780522016729	3740902.3420929415
0.8282850717147234	3774953.156470254
0.8284921429826521	3809012.4835511255
0.8286992660183978	3843080.325463794
0.8289064408349024	3877156.684336917
0.8291136674451112	3909990.5531080035
0.8293209458619727	3941255.17044275
0.8295282760984382	3972527.6039317893
0.829735658167463	4003807.8555292366
0.8299430920820048	4035095.927189543
0.8301505778550254	4066888.8309937655
0.8303581154994891	4100673.3959800038
0.8305657050283641	4134466.4071075227
0.8307733464546212	4168267.866487797
0.8309810397912352	4202077.776232972
0.8311887850511829	4235896.138455516
0.8313965822474458	4283180.53379291
0.8316044313930077	4331101.387635623
0.8318123325008561	4379034.221691841
0.8320202855839813	4426979.03895655
0.8322282906553774	4474935.842425579
0.8324363477280413	4513078.080334826
0.8326444568149735	4547273.7175236745
0.8328526179291771	4581477.903621781
0.8330608310836596	4615690.640766462
0.8332690962914304	4649911.931095385
0.8334774135655034	4679086.905381737
0.833685782918895	4702622.716098476
0.8338942043646247	4726164.41076788
0.834102677915716	4749711.990860969
0.834311203585195	4773265.457849062
0.8345197813860912	4800806.705927019
0.8347284113314379	4841758.262593921
0.8349370934342709	4882720.057149967
0.8351458277076294	4923692.092154603
0.8353546141645565	4964674.370168058
0.8355634528180977	5005666.893750999
0.8357723436813022	5036438.796482116
0.8359812867672226	5067092.067025398
0.8361902820889144	5097753.000886301
0.8363993296594368	5128421.5999806775
0.8366084294918518	5159097.866224838
0.8368175815992247	5206423.704975892
0.8370267859946247	5259493.0176630635
0.8372360426911234	5312575.59767839
0.8374453517017962	5365671.448338715
0.8376547130397217	5418780.572961699
0.8378641267179816	5465904.127585069
0.8380735927496613	5507087.047189139
0.8382831111478488	5548280.262523085
0.8384926819256358	5589483.776160842
0.8387023050961173	5630697.590677044
0.8389119806723914	5671284.273194634
0.8391217086675596	5710087.150731769
0.8393314890947265	5748899.728988259
0.8395413219670003	5787722.010389317
0.8397512072974922	5826553.997360752
0.8399611450993165	5865365.630196872
0.8401711353855914	5902694.091209001
0.8403811781694378	5940031.884336372
0.8405912734639802	5977379.011912034
0.8408014212823464	6014735.476269607
0.8410116216376671	6052101.279743265
0.8412218745430766	6089304.4197818795
0.8414321800117124	6126466.813821118
0.8416425380567154	6163638.498458885
0.8418529486912297	6200819.47601782
0.8420634119284025	6238009.748821113
0.8422739277813847	6300371.685215832
0.8424844962633302	6384918.232954828
0.842695117387396	6469485.917330652
0.8429057911667428	6554074.743627572
0.8431165176145345	6638684.717131108
0.8433272967439382	6703803.904557894
0.8435381285681244	6721344.342945497
0.8437490131002665	6738889.166442691
0.8439599503535415	6756438.37614575
0.84417094034113	6773991.973151247
0.8443819830762154	6793102.793484378
0.8445930785719846	6843500.383902702
0.8448042268416277	6893910.573718603
0.8450154278983382	6944333.366081951
0.8452266817553128	6994768.764143386
0.8454379884257517	7045216.771054343
0.8456493479228583	7111048.740968624
0.845860760259839	7180598.774936293
0.846072225449904	7250166.196412454
0.8462837435062666	7319751.009744
0.8464953144421433	7389353.219278918
0.8467069382707537	7446896.130155688
0.8469186150053215	7495040.010622676
0.847130344659073	7543195.927059794
0.8473421272452377	7591363.882475974
0.8475539627770492	7639543.879881057
0.8477658512677435	7682117.0237261765
0.8479777927305605	7712769.819674933
0.8481897871787432	7743430.27882267
0.848401834625538	7774098.403085211
0.8486139350841944	7804774.194378799
0.8488260885679657	7829535.15447239
0.8490382950901076	7782109.1305009015
0.8492505546638802	7734671.250023396
0.8494628673025462	7687221.510075787
0.8496752330193721	7639759.9076931225
0.8498876518276269	7592286.439909926
0.8501001237405839	7229905.068349078
0.8503126487715191	6804574.322309014
0.850525226933712	6379137.243582677
0.8507378582404455	5953593.805586662
0.8509505427050057	5527943.981730901
0.8511632803406821	5201529.718535198
0.8513760711607672	4943064.912176494
0.8515889151785576	4684535.489615799
0.8518018124073523	4425941.43469968
0.8520147628604541	4167282.7312699845
0.8522277665511693	4092083.0781587847
0.8524408234928071	4356269.552220064
0.8526539336986805	4620522.072899931
0.8528670971821053	4884840.656709983
0.8530803139564007	5149225.320165677
0.8532935840348901	5452022.465332873
0.8535069074308987	6078750.130754082
0.8537202841577566	6705634.478092173
0.8539337142287962	7332675.546517168
0.8541471976573534	7959873.375208878
0.8543607344567677	8587228.003357874
0.8545743246403821	8826482.495008335
0.8547879682215422	9004137.155071408
0.8550016652135977	9181836.228799473
0.8552154156299011	9359579.72729598
0.8554292194838088	9537367.66166724
0.8556430767886797	9665923.385863006
0.855856987557877	9764591.764236605
0.8560709518047664	9863284.809704734
0.8562849695427177	9962002.528434265
0.8564990407851035	10060744.92659351
0.8567131655452999	10150104.831292221
0.8569273438366862	10224073.099132786
0.8571415756726455	10298059.859040322
0.8573558610665638	10372065.115637861
0.8575702000318304	10446088.87354947
0.8577845925818384	10520034.836273775
0.857999038729984	10593397.753173051
0.8582135384896665	10666779.010801535
0.858428091874289	10740178.613744432
0.8586426988972576	10813596.566588044
0.8588573595719821	10887032.873919891
0.8590720739118751	10924280.570771
0.8592868419303532	10957268.669649445
0.8595016636408359	10990265.01555261
0.8597165390567462	11023269.610542241
0.8599314681915105	11056282.456680626
0.8601464510585584	11003209.288880616
0.860361487671323	10904424.61678025
0.8605765780432408	10805615.248511884
0.8607917221877518	10706781.177901372
0.8610069201182988	10607922.398773234
0.8612221718483286	10430456.147250416
0.8614374773912907	10139657.849327503
0.8616528367606385	9848786.851830188
0.8618682499698288	9557843.136583315
0.8620837170323213	9266826.68540768
0.8622992379615795	9030046.09273347
0.8625148127710699	9061958.822100393
0.8627304414742627	9093879.529649662
0.8629461240846313	9125808.217375822
0.8631618606156526	9157744.887273917
0.8633776510808066	9189689.541339481
0.8635934954935769	9321453.293803895
0.8638093938674504	9461431.684598297
0.8640253462159173	9601445.069990395
0.8642413525524714	9741493.458728837
0.8644574128906095	9881576.859564433
0.8646735272438323	10029084.050203798
0.8648896956256433	10180064.099937243
0.8651059180495498	10331081.89468313
0.8653221945290621	10482137.443877557
0.8655385250776946	10633230.756959496
0.8657549097089641	10769244.515765736
0.8659713484363913	10885938.77550654
0.8661878412735006	11002662.208812334
0.866404388233819	11119414.822976436
0.8666209893308775	11236196.625294026
0.8668376445782103	11342442.728141073
0.8670543539893549	11405594.693172334
0.8672711175778525	11468762.446194895
0.8674879353572469	11531945.991155643
0.8677048073410862	11595145.332002655
0.8679217335429217	11658360.472684916
0.8681387139763074	11748576.859282646
0.8683557486548015	11840156.367990606
0.8685728375919655	11931758.771575855
0.8687899808013633	12023384.075761802
0.8690071782965637	12115032.286273913
0.869224430091138	12156356.421678456
0.8694417361986609	12177204.762687195
0.8696590966327107	12198058.315781182
0.869876511406869	12218917.082263444
0.8700939805347206	12239781.063437315
0.8703115040298544	12274166.980281722
0.870529081905862	12324015.01443554
0.8707467141763385	12373875.51059788
0.8709644008548827	12423748.47188426
0.8711821419550964	12473633.901410928
0.8713999374905854	12525355.997492604
0.871617787474958	12583386.954649666
0.8718356919218269	12641432.419546071
0.8720536508448075	12699492.395808704
0.8722716642575187	12757566.88706537
0.8724897321735832	12815655.896944873
0.8727078546066265	12907402.849704525
0.8729260315702784	12999684.565993743
0.873144263078171	13091989.352711936
0.8733625491439405	13184317.215626817
0.8735808897812266	13276668.160507465
0.8737992850036719	13330101.772908084
0.874017734824923	13369756.6871597
0.8742362392586293	13409421.515139863
0.874454798318444	13449096.259327017
0.8746734120180236	13488780.922200216
0.8748920803710283	13538547.164480755
0.875110803391121	13598446.905159272
0.8753295810919689	13658361.620772993
0.875548413487242	13718291.315065617
0.8757673005906139	13778235.991781816
0.8759862424157616	13871542.09428893
0.8762052389763657	14061361.02007623
0.8764242902861098	14251227.400594845
0.8766433963586814	14441141.247708641
0.8768625572077712	14631102.573284274
0.8770817728470732	14819588.712516092
0.8773010432902849	14889235.220555408
0.8775203685511077	14958899.140221834
0.8777397486432454	15028580.47586809
0.8779591835804065	15098279.231848342
0.8781786733763015	15167995.412517497
0.8783982180446457	15156738.817018138
0.878617817599157	15121386.335141746
0.8788374720535569	15086025.015144903
0.8790571814215703	15050654.854818068
0.8792769457169257	15015275.85195115
0.879496764953355	15057031.5905433
0.8797166391445934	15168154.918954482
0.8799365683043796	15279306.028197775
0.8801565524464557	15390484.925218375
0.8803765915845676	15501691.616963336
0.8805966857324639	15598677.91515953
0.880816834903897	15659901.264967443
0.881037039112623	15721139.920612836
0.8812572983724012	15782393.885922132
0.8814776126969944	15843663.164722783
0.8816979821001687	15903010.1167423
0.8819184065956938	15916759.437224453
0.8821388861973429	15930512.195036743
0.8823594209188923	15944268.39103847
0.882580010774122	15958028.026089193
0.8828006557768155	15971791.101048686
0.8830213559407598	16113686.873151304
0.8832421112797452	16287843.927778939
0.8834629218075651	16462044.521670124
0.8836837875380171	16636288.665709835
0.8839047084849018	16810576.370785583
0.884125684662023	16877510.789426476
0.8843467160831886	16858397.075852912
0.8845678027622095	16839278.58385095
0.8847889447129001	16820155.31222599
0.8850101419490785	16801027.259783123
0.8852313944845657	16901301.36755792
0.885452702333187	17262967.695061773
0.8856740655087704	17624724.43914745
0.8858954840251476	17986571.62241905
0.8861169578961539	18348509.2674863
0.886338487135628	18670092.617557008
0.886560071757412	18453541.229893338
0.8867817117753515	18236935.70438276
0.8870034072032955	18020276.0274907
0.8872251580550963	17803562.185679678
0.8874469643446101	17586794.165408064
0.8876688260856963	17642516.148899738
0.8878907432922178	17754658.577059377
0.8881127159780409	17866829.04082598
0.8883347441570356	17979027.547208667
0.8885568278430749	18091254.10321783
0.8887789670500358	18105927.904326953
0.8890011617917983	18051384.117959913
0.8892234120822464	17996826.695646256
0.8894457179352669	17942255.633977063
0.8896680793647509	17887670.92954241
0.8898904963845921	17831048.131615475
0.8901129690086883	17770548.47922037
0.8903354972509405	17710033.701912187
0.8905580811252535	17649503.795909625
0.8907807206455347	17588958.757430643
0.8910034158256963	17515880.394322522
0.8912261666796527	17330909.164481793
0.8914489732213227	17145891.691833552
0.8916718354646282	16960827.964816965
0.8918947534234944	16775717.971868806
0.8921177271118502	16590561.701422522
0.8923407565436284	15761929.878084647
0.8925638417327644	14828130.088196535
0.8927869826931977	13894096.848360643
0.8930101794388711	12959830.10021485
0.8932334319837308	12025329.78538217
0.8934567403417267	11425420.539289638
0.8936801045268123	11033415.449190762
0.8939035245529441	10641312.357819622
0.8941270004340824	10249111.24067549
0.894350532184191	9856812.07325217
0.8945741198172371	9972573.573091362
0.8947977633471915	10931084.671937278
0.8950214627880284	11889835.398557868
0.8952452181537254	12848825.812859543
0.8954690294582639	13808055.974765368
0.8956928967156286	14780352.1288436
0.8959168199398075	15836128.72617018
0.8961407991447926	16892169.267646365
0.8963648343445789	17948473.819257885
0.896588925553165	19005042.447006717
0.8968130727845534	20061875.216912616
0.8970372760527496	20324399.168537464
0.8972615353717629	20487571.664305426
0.8974858507556059	20650784.95319735
0.8977102222182949	20814039.04541145
0.8979346497738496	20977333.951148696
0.8981591334362931	21259380.550375864
0.8983836732196523	21606417.844613317
0.8986082691379572	21953541.8981741
0.8988329212052417	22300752.732748277
0.8990576294355432	22648050.370031398
0.8992823938429022	22892140.487844717
0.8995072144413631	22982706.065539807
0.8997320912449734	23073294.284629293
0.8999570242677847	23163905.150773525
0.9001820135238516	23254538.6696343
0.9004070590272328	23377405.235152304
0.9006321607919896	23669160.36166064
0.9008573188321878	23960988.4269509
0.9010825331618959	24252889.449257348
0.9013078037951865	24544863.446819413
0.9015331307461353	24836910.437880717
0.9017585140288219	25339028.449001856
0.9019839536573292	25859359.662395906
0.9022094496457435	26379820.95859293
0.9024350020081551	26900412.37011459
0.9026606107586572	27421133.929488968
0.902886275911347	27653302.082406163
0.9031119974803249	27746362.694264904
0.9033377754796951	27839446.57127661
0.903563609923565	27932553.719257526
0.903789500826046	28025684.144025497
0.9040154482012526	28038037.65395205
0.904241452063303	27945724.651507866
0.9044675124263188	27853388.57081309
0.9046936293044254	27761029.406098153
0.9049198027117517	27668647.151591994
0.9051460326624297	27617354.955766153
0.9053723191705955	27741119.312060285
0.9055986622503881	27864914.609443378
0.9058250619159507	27988740.85565082
0.9060515181814298	28112598.05841989
0.9062780310609752	28236486.225489568
0.9065046005687405	28357285.989717703
0.906731226718883	28477941.933184735
0.9069579095255627	28598628.040637475
0.907184649002944	28719344.319617085
0.907411445165195	28840090.777666565
0.9076382980264862	29196656.4654908
0.907865207600993	29651234.04765999
0.9080921739028933	30105925.274224587
0.9083191969463691	30560730.17359575
0.9085462767456058	31015648.77419198
0.9087734133147922	31201860.598550733
0.9090006066681211	31077627.959472336
0.909227856819788	30953364.262234326
0.9094551637839932	30829069.49907184
0.9096825275749393	30704743.662218604
0.9099099482068329	30600526.543198187
0.9101374256938848	30567860.56579784
0.9103649600503083	30535186.421903156
0.9105925512903209	30502504.10947251
0.9108201994281437	30469813.62646372
0.9110479044780008	30437114.970834214
0.9112756664541204	30995119.51782002
0.911503485370734	31566784.845228657
0.9117313612420768	32138593.08896915
0.9119592940823873	32710544.2847704
0.912187283905908	33282638.468370784
0.9124153307268845	33304915.41753775
0.9126434345595664	33127594.508335654
0.9128715954182063	32950229.268906426
0.9130998133170609	32772819.688167255
0.9133280882703902	32595365.75503291
0.913556420292458	32580056.196245052
0.9137848093975312	32732010.450172532
0.9140132555998806	32884002.692663476
0.9142417589137806	33036032.933215052
