#wavelength	surface flux
0.676892	1193398.9214344078
0.678297	1261028.0617585378
0.679702	1323579.6131168506
0.681109	1381433.4241824483
0.682517	1436215.2673494613
0.683926	1492488.7940667542
0.685337	1541415.686679646
0.686749	1583996.5738197844
0.688164	1635874.4336079515
0.689581	1669919.9920347522
0.691	1680475.2241426478
0.692422	1705751.2170171607
0.693847	1747898.15559275
0.695274	1816796.5413613003
0.696705	1880323.408979605
0.698139	1921380.0693786666
0.699576	1957337.9091004266
0.701017	1981730.9509859895
0.702461	1989843.3271298525
0.70391	2015817.023114038
0.705362	2043260.3166147906
0.706819	2060432.542786476
0.70828	2068879.4490913828
0.709745	2070042.962495718
0.711216	2068918.5197707037
0.71269	2060297.196414838
0.71417	2042602.6679571208
0.715655	2003218.4485238385
0.717145	1940048.3563912825
0.71864	1913183.1214510568
0.72014	1888379.675119871
0.721647	1863876.740109058
0.723158	1822058.5391823058
0.724676	1764032.1065858733
0.726199	1701239.4990056138
0.727728	1650092.0289412935
0.729264	1571326.5281241643
0.730805	1502928.4883798913
0.732353	1441883.108398638
0.733907	1370996.1326833358
0.735468	1294212.722177977
0.737035	1205445.8988714793
0.738609	1118178.4623746
0.74019	1042711.7452317314
0.741777	953800.7385073779
0.743372	863637.4842615734
0.744973	776120.9259205629
0.746582	688320.2852818316
0.748197	602144.066227845
0.74982	516868.67301467614
0.751451	434178.893195999
0.753088	356718.39149645716
0.754734	283509.55254733923
0.756386	215994.66997518681
0.758047	155441.1788820962
0.759715	103546.79628064905
0.76139	60106.29377089436
0.763074	27682.889386642557
0.764765	8454.563412794361
0.766464	1334.108871836567
0.768172	1855.9118913546513
0.769887	2147.7218775037727
0.77161	14283.744379210053
0.773341	46622.438231117165
0.775081	97895.16343088396
0.776829	163039.90518712692
0.778585	212855.8383472547
0.780349	249558.68522049685
0.782121	421801.0406989396
0.783902	585594.9775831178
0.785691	737563.3160993682
0.787489	901900.4400284644
0.789295	1075834.1569728295
0.79111	1230515.3585061012
0.792933	1017669.675305683
0.794764	527572.6491424672
0.796604	1520139.8123279386
0.798453	2138941.000244291
0.80031	2471225.8703466607
0.802176	2781050.022642811
0.804051	3100507.2761436123
0.805934	3423549.672448106
0.807826	3738102.3192339838
0.809727	3995436.7565842117
0.811636	4266696.443802583
0.813554	4589571.54467821
0.81548	5075193.200052763
0.817416	5358115.781736747
0.81936	5590924.3389138905
0.821313	6483867.180503809
0.823274	6925338.667883344
0.825244	7594957.928388473
0.827223	8176092.1881169155
0.829211	8682970.52937548
0.831208	9290040.755678553
0.833213	9963810.020376554
0.835227	10424062.52007643
0.837249	11066864.787921175
0.83928	11775430.872940518
0.841321	12346673.806221195
0.843369	13278756.429235052
0.845427	13984297.62811963
0.847493	15063528.26381275
0.849567	14379129.127138948
0.851651	10495078.82525598
0.853742	13392852.929583592
0.855843	18276485.97405414
0.857952	19712084.48042757
0.86007	19625110.155706916
0.862196	13908419.81272449
0.864331	13664275.706951063
0.866474	16203369.91423784
0.868626	17416884.64927967
0.870786	17504024.51620623
0.872955	17925178.54532209
0.875132	18605822.318372007
0.877317	20732792.114734583
0.879511	19810820.945102163
0.881713	20156241.86173476
0.883923	21709686.56061923
0.886142	24967642.961185835
0.888369	23219900.243990093
0.890604	20645048.72194898
0.892847	17917509.8246353
0.895099	20449930.0319554
0.897358	27996670.19297266
0.899626	29537611.726772442
0.901901	35623456.401188195
0.904185	39227712.63504077
0.906476	38294462.33442529
0.908776	43129790.45550974
0.911083	43265820.31629355
0.913398	46748336.25476722
0.915721	43778552.486298524
0.918051	41289979.016806036
0.92039	45996010.26692921
0.922736	48608064.740962416
0.925089	43758332.40580235
0.927451	23115326.610635955
0.929819	16096118.34968884
0.932195	25472063.07297363
0.934579	23268007.809983484
0.93697	29351470.647800226
0.939369	36904470.08800412
0.941774	34938696.867715076
0.944187	21197663.64604016
0.946607	23044423.773667876
0.949035	22901985.797451045
0.951469	27552346.48231611
0.953911	32000024.279275946
0.956359	39159192.01974184
0.958814	31306936.01633498
0.961277	25068935.63293175
0.963746	24350376.701294307
0.966222	26704968.764980022
0.968705	27190130.216741417
0.971194	40956656.86108726
0.97369	52353280.82799626
0.976193	49398320.43013574
0.978702	51307232.17983592
0.981217	48149527.55673498
0.983739	55931134.79538267
0.986268	61470218.098637484
0.988802	60192932.79064757
0.991343	57149399.78694721
0.99389	59973444.272768736
0.996444	60788739.85694339
0.999003	47397520.26765517
1.00157	45958817.031111024
1.00414	49818447.40412691
1.00672	54019820.05666926
1.0093	58154720.07937287
1.01189	65233230.15191402
1.01448	71782081.12452899
1.01708	76462293.31857961
1.01969	83199610.53108303
1.0223	79816619.1623803
1.02492	74997027.9880558
1.02754	78089474.90720655
1.03017	84271202.98247442
1.0328	99603871.49704689
1.03544	106117768.63574715
1.03808	111210236.2381658
1.04073	108352881.70642495
1.04339	109150659.27906154
1.04604	113139084.08886287
1.04871	113405370.3317313
1.05138	106674339.30360056
1.05405	111833060.80553482
1.05673	119555454.44561912
1.05941	118226306.26008457
1.0621	122652772.36106646
1.06479	124258031.40322499
1.06749	127469766.40120874
1.07019	127473982.50550538
1.07289	134805422.58348864
1.0756	140498692.32205293
1.07832	145149024.23229936
1.08104	150957368.85759667
1.08376	151907486.82181644
1.08649	146565934.43284953
1.08922	132984499.98990552
1.09195	107169055.3083544
1.09469	84125895.34690237
1.09743	82648516.79707716
1.10018	58071024.63706465
1.10293	32350450.681974918
1.10568	23538954.85021979
1.10844	43064129.60068137
1.1112	25657611.776393015
1.11396	23757026.341412015
1.11673	26245295.49180518
1.1195	23413063.90549602
1.12228	12068844.807302753
1.12505	11877036.50562663
1.12783	25870092.533287514
1.13062	21024843.563335653
1.13341	9115934.814348534
1.1362	17686059.978636425
1.13899	30143557.721696563
1.14178	26260528.24809398
1.14458	22035679.3828241
1.14738	33560630.386920534
1.15019	34377647.73156112
1.153	15452535.345864581
1.1558	15724605.319678277
1.15862	17265867.8573807
1.16143	16975906.39170407
1.16425	21205001.715498414
1.16707	21624856.972371984
1.16989	18503959.65438952
1.17271	21109143.34156012
1.17554	26236282.555071063
1.17837	32018291.18586236
1.1812	41826104.09158177
1.18403	61957714.96410521
1.18686	64791453.72735812
1.1897	57690622.02252568
1.19253	76263850.1221517
1.19537	93019544.2129293
1.19822	83842435.85639311
1.20106	93900400.55083968
1.2039	103539475.13070127
1.20675	111230463.61443569
1.2096	105069051.84361236
1.21245	106327452.96277678
1.2153	122148218.84600757
1.21815	131622360.2252374
1.221	142464241.46056038
1.22385	155080144.46240556
1.22671	161537963.30510437
1.22957	161320709.3987748
1.23242	166526387.17613116
1.23528	173933673.38811287
1.23814	176382083.21502843
1.241	149431106.87453216
1.24387	123738616.89625132
1.24673	167157635.20420796
1.24959	150289401.2652077
1.25245	107702748.45859915
1.25532	169283714.53652316
1.25818	202931240.65210992
1.26105	201401943.10155442
1.26392	194252553.0502144
1.26678	196264363.5347616
1.26965	201016365.4142742
1.27252	196239639.17914262
1.27538	201967758.54863888
1.27825	198418965.2130053
1.28112	182619130.71206093
1.28399	175468897.18259722
1.28686	176692363.39029813
1.28973	151241891.6551454
1.2926	143015460.71795994
1.29546	148886452.7183315
1.29833	151643237.07164168
1.3012	133334077.18211843
1.30407	148664960.62141007
1.30694	141205634.86062992
1.30981	148423617.6122211
1.31267	127919680.17077579
1.31554	120847887.14414556
1.31841	119652084.91273229
1.32128	111400034.72332913
1.32414	80405360.6908744
1.32701	61017582.18190293
1.32987	46411723.4392405
1.33274	16523209.15185487
1.3356	7841290.636977008
1.33847	2700957.006440056
1.34133	1225446.1767239461
1.34419	2365159.455813688
1.34705	2563016.6105693616
1.34991	845867.1988821522
1.35277	309766.64594799536
1.35563	1058891.3523684205
1.35849	1515011.5889760458
1.36135	938712.7273180666
1.3642	1350151.366198516
1.36706	1275323.499180243
1.36991	1274880.655344069
1.37277	2143414.8452728298
1.37562	2334727.315787578
1.37847	1609843.1971742804
1.38132	495570.30339939345
1.38417	191852.01001122722
1.38701	513623.1548111964
1.38986	753855.1768341592
1.39271	1126468.2443833973
1.39555	1542186.4478042836
1.39839	1062599.703961309
1.40123	1969810.5953913636
1.40407	3163415.2171914415
1.40691	3896337.675253684
1.40974	2129746.6300363443
1.41258	775421.9529506008
1.41541	1029199.1172190501
1.41824	1218575.6472100473
1.42107	1361941.5071885935
1.4239	1168395.110271678
1.42673	2129398.3954273956
1.42955	3100486.497015075
1.43237	1878123.3093395035
1.43519	2178557.4869068624
1.43801	1999195.882103764
1.44083	2906549.6999859847
1.44365	4610669.107975637
1.44646	3825417.750465418
1.44927	5491083.11183217
1.45208	5975849.347113385
1.45489	6021244.548822534
1.45769	7668591.706770878
1.4605	10057536.133502377
1.4633	8753009.85507774
1.4661	9275029.938738028
1.4689	8687468.382538484
1.47169	10069978.56479901
1.47449	10218107.443401232
1.47728	10698465.959295517
1.48007	9451718.373936793
1.48286	10788427.8899775
1.48564	12644255.946828764
1.48842	11477366.294614485
1.4912	11886393.83704309
1.49398	13285879.353295252
1.49676	13983348.791922161
1.49953	18385075.22853874
1.5023	21773244.365437977
1.50507	22547307.887163315
1.50784	20559927.302645173
1.51061	20457331.718594696
1.51337	24775887.564363062
1.51613	28336608.140678935
1.51888	28656803.5850666
1.52164	36936125.7589249
1.52439	41102466.4237697
1.52714	36510468.69259124
1.52989	36880199.27768972
1.53263	42402544.53895644
1.53538	46415028.53151602
1.53812	44957852.16147466
1.54086	45163119.13310957
1.54359	47090131.95863362
1.54632	53640952.41581954
1.54905	56264937.58929839
1.55178	55482545.17115424
1.5545	56151553.14770869
1.55723	56276251.78210047
1.55995	58809491.04463536
1.56266	63102571.29232459
1.56538	66834833.55315044
1.56809	70985956.69604819
1.5708	72534807.89358541
1.57351	70757206.45403609
1.57621	72703267.41847336
1.57891	72863812.2509613
1.58161	76859068.74367607
1.5843	83169241.51746489
1.587	86022842.7987669
1.58969	84784161.1616216
1.59238	82491792.82201354
1.59506	82556046.38559389
1.59774	82350545.55600241
1.60042	82780647.31197587
1.6031	81579639.96765447
1.60577	79766400.58671091
1.60844	79668139.62264088
1.61111	79377386.03085536
1.61378	77159068.0828102
1.61644	74919961.29432805
1.6191	71948179.18049824
1.62176	69256943.1153337
1.62441	68022364.50501585
1.62707	66880634.35716768
1.62971	63620718.20257151
1.63236	62440728.098503925
1.635	70427528.6568729
1.63764	80490150.30832362
1.64028	82960507.05436671
1.64292	76046836.6326568
1.64555	63628237.037504986
1.64818	58898530.569019094
1.65081	65148587.6619647
1.65343	73461436.01479755
1.65605	74484921.6570584
1.65867	72890283.57890062
1.66128	70683510.65431519
1.6639	60507688.071673796
1.66651	38277345.67559561
1.66911	31339493.271871872
1.67172	46690441.38700933
1.67432	57791691.77773251
1.67692	57292856.3413437
1.67951	54378863.01183589
1.68211	56007251.230152994
1.6847	53982169.72120974
1.68728	46788722.14654737
1.68987	43063099.30596352
1.69245	38315229.56137082
1.69503	30691287.70574279
1.6976	29750123.74125816
1.70018	33493195.490195036
1.70275	32683593.970010858
1.70531	34500082.11225863
1.70788	38376439.86232432
1.71044	38266981.10370328
1.713	40586165.44455943
1.71556	41873552.31289771
1.71811	41319390.55252511
1.72066	41548921.761634015
1.72321	38852659.18824409
1.72575	35952102.06853714
1.7283	34291734.61843686
1.73084	31804492.716272287
1.73337	29427974.39449279
1.73591	28131240.12799613
1.73844	26058047.61703043
1.74097	23785655.72067346
1.74349	21818531.97784977
1.74602	20788130.76981748
1.74854	20599408.67229342
1.75105	18735291.480506144
1.75357	14272911.730119351
1.75608	11661541.26083814
1.75859	12135596.615213523
1.7611	12992588.853013022
1.7636	13268943.801522696
1.7661	11336222.335609738
1.7686	8899484.200330403
1.7711	8232869.602608834
1.77359	7228401.854586497
1.77608	5402676.038710339
1.77857	4481891.826702692
1.78105	4649543.632240403
1.78354	4723116.709000187
1.78602	3854189.823758596
1.78849	3027246.262511423
1.79097	2732205.396647856
1.79344	2585094.855240821
1.79591	2843944.5334932115
1.79837	3281764.4567925995
1.80084	2277402.7982023233
1.8033	1377883.164180658
1.80576	1110673.9002248717
1.80821	1024121.8250810275
1.81067	893655.7762697472
1.81312	779278.4169528969
1.81557	769155.6199418583
1.81801	807259.8727727787
1.82046	798565.8317899329
1.8229	833453.596180523
1.82533	777457.2036807534
1.82777	701829.5262788157
1.8302	755103.2882163232
1.83263	860421.2851649402
1.83506	838304.2877031012
1.83749	837779.2528548221
1.83991	1384644.3910627156
1.84233	2317911.881446352
1.84475	3027880.2098861085
1.84716	2861678.1407437758
1.84957	2049305.2587921387
1.85198	1482279.7970350436
1.85439	1143790.3106595816
1.8568	1338466.0085633653
1.8592	1586033.1783981689
1.8616	1257941.04374486
1.864	1093202.1925920765
1.86639	1457886.8555729752
1.86878	1602523.7196889352
1.87118	1249786.9532659356
1.87356	1335902.9673026083
1.87595	2185612.6326539083
1.87833	3561834.1825470156
1.88071	4668335.660015239
1.88309	4090202.431498109
1.88547	3392524.5747293257
1.88784	3538256.1610971885
1.89021	3402000.117225201
1.89258	4893691.260862169
1.89494	7006102.741169317
1.89731	5674103.373811284
1.89967	2906907.668987941
1.90203	1501068.353125868
1.90439	1958191.320324871
1.90674	3346395.826755476
1.90909	3614146.2858714736
1.91144	2420290.5093651987
1.91379	1307811.9933228684
1.91613	1007123.5238234007
1.91848	903538.855227871
1.92082	691221.3203266425
1.92315	648138.8821797138
1.92549	830903.8661415994
1.92782	940558.7140338112
1.93015	1023574.280334006
1.93248	1244865.8953953218
1.93481	1555276.3909532917
1.93713	1819239.7274194888
1.93945	2058887.7597657181
1.94177	2396823.6587894554
1.94409	2429838.283727194
1.94641	2082738.735741752
1.94872	2231102.4612453654
1.95103	2616772.4368967316
1.95334	1978571.3731979849
1.95564	1479152.5069715548
1.95795	1596846.9625836154
1.96025	1876836.8905514947
1.96255	2338169.933051605
1.96484	3288010.6584649575
1.96714	4767565.086904727
1.96943	6052934.615962616
1.97172	6073888.863694226
1.97401	5095309.742395764
1.97629	5103193.277689956
1.97858	5498859.211262928
1.98086	6149742.999473974
1.98314	8002246.072502617
1.98541	9702493.091935258
1.98769	9615016.906763347
1.98996	8079595.124051878
1.99223	7909092.53352938
1.9945	9294523.48897625
1.99677	9412687.10797913
1.99903	9339317.97491586
2.00129	10353000.617106142
2.00355	12078516.345458765
2.00581	13311663.591511767
2.00806	13502881.246278843
2.01031	14413860.808277024
2.01256	15524202.75494677
2.01481	15228407.683209097
2.01706	14808270.960098417
2.0193	15856976.489966644
2.02154	18665454.815219514
2.02378	21196387.14372791
2.02602	20912670.03435509
2.02825	20002830.8131455
2.03049	19913951.87232749
2.03272	20884225.823578324
2.03494	22281363.59108991
2.03717	23058469.507178627
2.03939	23274818.953994513
2.04162	23750408.998456735
2.04384	25442215.158605807
2.04605	28107794.68000278
2.04827	30315240.48073476
2.05048	29675470.65480325
2.05269	27892986.525357015
2.0549	29021854.50815768
2.05711	31458315.81448729
2.05931	33345832.33810938
2.06151	33503663.517257027
2.06371	32877566.616821878
2.06591	33919320.05068724
2.06811	35474654.72432437
2.0703	36462072.22026405
2.07249	36301754.6142479
2.07468	35109131.872970276
2.07686	34638708.334208466
2.07905	34917019.55272506
2.08123	35331427.031267904
2.08341	35599755.36649286
2.08559	35822595.78988715
2.08776	36266274.292311795
2.08994	36777629.051157616
2.09211	37071621.87831733
2.09428	37127306.16332556
2.09645	37323662.81957251
2.09861	37205280.546310134
2.10077	36755835.69118765
2.10293	36079953.53622696
2.10509	35322465.98102779
2.10725	34793377.21752976
2.1094	35022948.47760647
2.11155	35479396.41844237
2.1137	35828068.80477915
2.11585	35684399.845282026
2.11799	35397564.609567456
2.12013	35332771.075308494
2.12227	35408552.94109885
2.12441	35508731.522525
2.12655	35264859.951761775
2.12868	34971275.33653974
2.13081	34767665.087407276
2.13294	34607952.575286664
2.13507	34029636.20969262
2.13719	33193066.54111009
2.13931	32365283.5929131
2.14143	31513403.05168566
2.14355	30343914.44560509
2.14567	29883099.619278006
2.14778	29565404.99478454
2.14989	29171824.505639665
2.152	28381271.96800663
2.1541	28429418.88365162
2.15621	28486778.76585543
2.15831	28292423.399284624
2.16041	27431342.5745741
2.16251	27090445.268480286
2.1646	26777803.265797917
2.1667	26369464.762983568
2.16879	25826841.057849925
2.17087	25031144.67537575
2.17296	24172021.11017067
2.17504	23342696.259595234
2.17713	22642551.14498113
2.1792	21993624.68105512
2.18128	21331205.62802987
2.18336	20595674.39927177
2.18543	19746039.318154458
2.1875	18870360.120524216
2.18957	17864942.374299888
2.19163	16258621.894996623
2.1937	14119507.06377962
2.19576	11869554.22355357
2.19782	9680837.878550973
2.19987	8010700.70132449
2.20193	6705897.976715067
2.20398	5832327.655449878
2.20603	5722262.674767421
2.20808	6404317.765242043
2.21012	7351578.522475482
2.21217	8343763.414217912
2.21421	8803022.493629947
2.21625	8903194.654916888
2.21828	8684396.819015134
2.22032	8393350.256832171
2.22235	8189421.17795501
2.22438	7949541.862397591
2.22641	7413194.428151618
2.22843	6914947.943421128
2.23046	6494236.35670969
2.23248	6213464.017447205
2.2345	5935617.244173589
2.23651	5686322.679911465
2.23853	5470399.703570837
2.24054	5163653.083247208
2.24255	4787553.098586569
2.24456	4373255.6623046305
2.24657	4335987.521526154
2.24857	4494828.532131512
2.25057	4748564.025411374
2.25257	4720220.120860992
2.25457	4641517.883542521
2.25656	4546016.905451086
2.25856	4502542.107514252
2.26055	4290364.468113377
2.26254	4008535.9832086214
2.26453	3761985.283675255
2.26651	3784355.869103227
2.2685	3963795.711408998
2.27048	4306295.413083563
2.27246	4618002.875576004
2.27443	4841420.224360081
2.27641	4765828.679559127
2.27838	4551770.846307024
2.28036	4276768.555665672
2.28233	4022769.6636406966
2.28429	3821887.502729871
2.28626	3647183.3743734392
2.28823	3473407.943657776
2.29019	3349749.5671568695
2.29215	3269090.478805605
2.29411	3321374.3959535635
2.29607	3407337.987212527
2.29802	3521518.325524898
2.29998	3789224.6295642564
2.30193	4183768.3952918374
2.30388	4724830.229794465
2.30583	5506671.73686148
2.30778	6310717.983148366
2.30972	7111800.931216713
2.31167	7162680.688530117
2.31361	6705015.732764465
2.31555	5263297.342043562
2.31749	3949909.0499525033
2.31943	2826608.4932966465
2.32137	2642745.625444668
2.32331	2590706.6654323274
2.32524	2643365.749998207
2.32718	2609714.7491958453
2.32911	2574741.0088268607
2.33104	2539560.5286991973
2.33297	2507354.523372712
2.3349	2476447.2044485244
2.33683	2447598.2841901868
2.33876	2394158.2015762976
2.34068	2326391.9065958615
2.34261	2229780.122521914
2.34453	2179389.8322870145
2.34646	2180824.0096226395
2.34838	2341374.5927599897
2.3503	2563789.728065137
2.35223	2893268.943565717
2.35415	3216893.1691041756
2.35607	3540281.9586881106
2.35799	3890524.5760916723
2.35991	4239931.249997768
2.36183	4588329.026579255
2.36375	4486423.273174343
2.36566	4154157.5600525173
2.36758	3308313.0690732854
2.3695	2554553.795932165
2.37142	1859823.5085848274
2.37334	1869976.5444313104
2.37526	1972840.2825205107
2.37718	2224071.0433424194
2.3791	2389902.164015424
2.38101	2524737.595200604
2.38293	2646961.697932554
2.38485	2821075.4490775447
2.38677	3048171.2622863306
2.3887	3224726.141438147
2.39062	3364204.9975551753
2.39254	3415745.5839541773
2.39446	3472723.9643381936
2.39639	3533503.0275230277
2.39831	3668856.029202537
2.40024	3748864.2539918544
2.40216	3720600.598452509
2.40409	3678210.342735013
2.40602	3654492.138513948
2.40795	3920157.507813845
2.40989	4219349.056405126
2.41182	4556334.9686239725
2.41376	4619172.782887281
2.4157	4594899.70545085
2.41764	4464200.742283879
2.41958	4424583.436474115
2.42152	4459023.179169752
2.42347	4526732.44501486
2.42542	4644258.888489381
2.42737	4878096.643963363
