#wavelength	surface flux
0.7	81681.16663102036
0.7001166666666666	81819.08298053501
0.7002333527777778	81900.38281954604
0.700350058336574	81981.6962085302
0.7004667833462966	82063.02314974574
0.7005835278101878	82144.36364545171
0.7007002917314895	82225.71769790685
0.7008170751134447	82307.08530937071
0.7009338779592968	82388.4664821031
0.7010507002722901	82466.89842386624
0.7011675420556689	82541.7379136906
0.701284403312678	82616.58987676313
0.7014012840465635	82691.45431516295
0.7015181842605713	82766.33123096917
0.701635103957948	82841.22062626129
0.701752043141941	82916.12250311929
0.701869001815798	82991.03686362352
0.7019859799827672	83112.5500805072
0.7021029776460976	83266.50504039499
0.7022199948090387	83420.48565944297
0.7023370314748403	83574.49194192738
0.7024540876467528	83728.52389212552
0.702571163328027	83882.58151431511
0.7026882585219152	84036.66481277547
0.7028053732316688	84190.77379178537
0.7029225074605406	84375.77419071007
0.7030396612117841	84572.72409888993
0.7031568344886527	84769.70683205451
0.7032740272944008	84966.7223956745
0.7033912396322832	85163.77079522188
0.7035084715055552	85360.85203616896
0.7036257229174727	85557.96612398962
0.7037429938712924	85755.11306415843
0.7038602843702709	85832.9899192522
0.7039775944176659	85890.64510166692
0.7040949240167356	85948.30989327871
0.7042122731707383	86005.98429568908
0.7043296418829335	86063.66831049988
0.7044470301565806	86121.36193931315
0.70456443799494	86179.06518373117
0.7046818654012724	86236.77804535664
0.7047993123788394	86380.93564096405
0.7049167789309024	86525.21645096753
0.7050342650607243	86669.5213077729
0.7051517707715678	86813.85021538768
0.7052692960666963	86958.20317782031
0.705386840949374	87102.58019907997
0.7055044054228656	87246.98128317672
0.7056219894904361	87375.46596907203
0.7057395931553511	87402.67211063622
0.705857216420877	87429.88278655735
0.7059748592902804	87457.09799759113
0.7060925217668288	87484.31774449344
0.70621020385379	87511.54202802022
0.7063279055544321	87538.77084892757
0.7064456268720246	87566.00420797177
0.7065633678098366	87607.12802934212
0.7066811283711383	87686.50079245008
0.7067989085592001	87765.8867843519
0.7069167083772933	87845.2860072523
0.7070345278286895	87924.69846335659
0.707152366916661	88004.12415487024
0.7072702256444803	88083.56308399905
0.7073881040154211	88163.01525294948
0.7075060020327569	88252.924340589
0.7076239196997625	88358.05803406044
0.7077418570197124	88463.20924981401
0.7078598139958823	88568.37799077021
0.7079777906315483	88673.56425985
0.7080957869299869	88778.76805997455
0.7082138028944751	88883.98939406573
0.7083318385282908	88989.22826504601
0.7084498938347124	89013.67080982527
0.708567968817018	88969.60178147498
0.7086860634784875	88925.52540828659
0.7088041778224007	88881.44168903594
0.7089223118520377	88837.35062249882
0.7090404655706796	88793.25220745064
0.709158638981608	88749.14644266658
0.709276832088105	88705.0333269217
0.7093950448934531	88731.47958178085
0.7095132774009353	88791.58427572291
0.7096315296138355	88851.69898711398
0.7097498015354378	88911.8237176236
0.7098680931690269	88971.95846892157
0.7099864045178884	89032.10324267817
0.7101047355853081	89092.25804056373
0.7102230863745722	89152.42286424889
0.7103414568889679	89203.0252288386
0.7104598471317828	89251.46093268011
0.7105782571063047	89299.90470913891
0.7106966868158224	89348.35655956045
0.710815136263625	89396.81648529037
0.7109336054530023	89445.28448767462
0.7110520943872445	89493.76056805925
0.7111706030696424	89542.24472779065
0.7112891315034873	89503.76782558882
0.7114076796920712	89461.13496230725
0.7115262476386865	89418.49499354845
0.7116448353466263	89375.84791812823
0.711763442819184	89333.19373486207
0.711882070059654	89290.53244256534
0.7120007170713306	89247.86404005326
0.7121193838575091	89205.11561781472
0.7122380704214853	89161.59965566073
0.7123567767665555	89118.07644084643
0.7124755028960166	89074.54597216297
0.7125942488131658	89031.00824840143
0.7127130145213015	88987.46326835248
0.7128318000237216	88943.911030807
0.7129506053237256	88900.35153455517
0.7130694304246129	88854.13188691829
0.7131882753296837	88798.62909286749
0.7133071400422386	88743.117048351
0.7134260245655789	88687.59575182713
0.7135449289030065	88632.06520175382
0.7136638530578235	88576.52539658887
0.7137827970333332	88520.97633478964
0.7139017608328388	88465.41801481346
0.7140207444596443	88400.71604970182
0.7141397479170543	88319.70846392047
0.7142587712083737	88238.68737687494
0.7143778143369084	88157.65278631482
0.7144968773059646	88076.6046899896
0.7146159601188489	87995.54308564836
0.7147350627788687	87914.46797103972
0.7148541852893318	87833.379343912
0.7149733276535467	87711.67268987036
0.7150924898748222	87549.00106890521
0.715211671956468	87386.30233600322
0.7153308739017941	87223.57648664562
0.715450095714111	87060.82351631319
0.71556933739673	86898.04342048569
0.7156885989529628	86735.23619464223
0.7158078803861218	86572.40183426089
0.7159271816995193	86294.2784578139
0.7160465028964692	85948.45719667905
0.7161658439802853	85602.57829866739
0.7162852049542819	85256.64175417277
0.7164045858217744	84910.6475535872
0.716523986586078	84564.59568730167
0.7166434072505089	84218.48614570528
0.716762847818384	83872.31891918514
0.7168823082930204	83590.56504085466
0.7170017886777359	83327.73130995204
0.7171212889758488	83064.85377342776
0.7172408091906781	82801.93242398066
0.7173603493255433	82538.96725430858
0.7174799093837642	82275.95825710834
0.7175994893686615	82012.90542507515
0.7177190892835562	81749.8087509034
0.7178387091317702	81728.74404819384
0.7179583489166254	81731.97610092693
0.7180780086414448	81735.20869233548
0.7181976883095517	81738.44182250927
0.7183173879242699	81741.67549153807
0.718437107488924	81744.90969951173
0.7185568470068389	81748.14444652005
0.7186766064813399	81745.70842143311
0.7187963859157535	81601.476711333
0.7189161853134061	81457.22096261455
0.719036004677625	81312.94117127128
0.7191558440117378	81168.63733329622
0.7192757033190732	81024.30944468129
0.7193955826029597	80879.95750141844
0.7195154818667269	80735.58149949825
0.7196354011137046	80592.44765331845
0.7197553403472235	80455.11984738219
0.7198752995706147	80317.76915347831
0.7199952787872098	80180.39556779203
0.720115278000341	80042.99908650813
0.7202352972133411	79905.57970581068
0.7203553364295432	79768.13742188332
0.7204753956522815	79630.67223090844
0.7205954748848902	79537.82069162358
0.7207155741307044	79543.36061479794
0.7208356933930594	79548.90146129283
0.7209558326752915	79554.44323126214
0.7210759919807375	79559.98592485976
0.7211961713127342	79565.52954223966
0.7213163706746197	79571.0740835558
0.7214365900697322	79576.61954896215
0.7215568295014103	79485.30370668398
0.721677088972994	79278.39968470867
0.7217973684878227	79071.46117873004
0.7219176680492374	78864.48818300017
0.7220379876605789	78657.48069177114
0.722158327325189	78450.4386992935
0.7222786870464099	78243.36219981722
0.7223990668275843	78036.25118759093
0.7225194666720555	77753.1303506752
0.7226398865831676	77416.11672542429
0.7227603265642646	77079.04693123663
0.722880786618692	76741.92095874922
0.7230012667497951	76404.73879859997
0.7231217669609201	76067.50044142397
0.7232422872554135	75730.2058778554
0.7233628276366229	75392.85509852567
0.7234833881078956	75196.2930312042
0.7236039686725803	75053.17159071103
0.7237245693340255	74910.02629664469
0.7238451900955812	74766.85714502908
0.7239658309605971	74623.66413188835
0.7240864919324239	74480.44725324525
0.7242071730144127	74337.20650512236
0.724327874209915	74193.94188354176
0.7244485955222832	73784.26510524859
0.7245693369548704	73330.47499609354
0.7246900985110294	72876.6092552543
0.7248108801941148	72422.66787012371
0.7249316820074803	71968.65082809712
0.7250525039544815	71514.55811656278
0.7251733460384739	71060.3897229098
0.7252942082628137	70606.61056337453
0.7254150906308574	70422.1502752033
0.7255359931459625	70237.65924365069
0.7256569158114868	70053.13746359276
0.7257778586307888	69868.58492990473
0.7258988216072273	69684.00163746114
0.7260198047441617	69499.38758113568
0.7261408080449525	69314.74275580051
0.72626183151296	69128.15095796614
0.7263828751515454	68928.79382395463
0.7265039389640706	68729.40346375416
0.726625022953898	68529.97987182687
0.7267461271243904	68330.52304263416
0.7268672514789111	68131.03297063672
0.7269883960208241	67931.50965029412
0.7271095607534942	67731.95307606466
0.7272307456802866	67520.63763544455
0.7273519508045666	67277.61328093588
0.7274731761297006	67034.54842236826
0.7275944216590555	66791.44305299086
0.7277156873959987	66548.29716605182
0.7278369733438982	66305.11075479789
0.727958279506122	66061.88381247608
0.7280796058860397	65818.61633233025
0.7282009524870207	65506.24420470751
0.7283223193124353	65091.666515908924
0.7284437063656539	64677.019730829714
0.7285651136500483	64262.30383795232
0.7286865411689898	63847.51882576029
0.7288079889258514	63432.664682731905
0.7289294569240056	63017.741397347294
0.7290509451668262	62602.74895808131
0.7291724536576875	62221.96542228353
0.7292939823999636	61869.52149258317
0.7294155313970303	61517.01882222715
0.7295371006522632	61164.457401426174
0.7296586901690385	60811.837220388676
0.7297802999507332	60459.15826932115
0.7299019300007252	60106.42053842754
0.7300235803223919	59753.62401791306
0.7301452509191123	59479.98013455919
0.7302669417942654	59242.8522230519
0.7303886529512311	59005.684790225954
0.7305103843933897	58768.47782949447
0.7306321361241218	58531.231334269716
0.7307539081468093	58293.94529796201
0.7308757004648336	58056.61971398209
0.7309975130815778	57819.25457573788
0.7311193460004248	57602.7060142818
0.7312411992247582	57390.842924711775
0.7313630727579622	57178.94452462686
0.7314849666034219	56967.01080814172
0.7316068807645224	56755.041769370626
0.7317288152446498	56543.03740242631
0.7318507700471907	56330.99770142072
0.7319727451755319	56118.92266046505
0.732094740633061	55789.4070811603
0.7322167564231665	55454.55096364292
0.7323387925492371	55119.63903677261
0.7324608490146619	54784.671291247905
0.732582925822831	54449.64771776554
0.7327050229771347	54114.568307021305
0.7328271404809642	53779.43304970827
0.7329492783377112	53444.30837558159
0.7330714365507675	53109.78101364506
0.7331936151235259	52775.19789714829
0.7333158140593796	52440.55901679915
0.7334380333617229	52105.864363302775
0.7335602730339499	51771.11392736399
0.7336825330794556	51436.30769968582
0.7338048135016354	51101.44567097035
0.7339271143038857	50785.26642538782
0.734049435489603	50531.82162052673
0.7341717770621846	50278.33457486479
0.7342941390250283	50024.80528136203
0.7344165213815324	49771.233732977125
0.734538924135096	49517.61992266711
0.7346613472891185	49263.96384338904
0.734783790847	49010.26548809768
0.7349062548121412	48711.279258788105
0.7350287391879431	48332.26976855809
0.7351512439778078	47953.19711007894
0.7352737691851374	47574.06127282382
0.735396314813335	47194.862246262164
0.7355188808658037	46815.60001986337
0.7356414673459482	46436.27458309274
0.7357640742571725	46056.88592541624
0.7358867016028818	45699.14947435288
0.7360093493864824	45362.79935393233
0.7361320176113801	45026.39317515883
0.736254706280982	44689.93092868887
0.7363774153986956	44353.412605177386
0.7365001449679286	44016.83819527935
0.7366228949920899	43680.20768964605
0.7367456654745885	43343.52107892848
0.7368684564188344	43012.396711917594
0.7369912678282374	42684.392535130646
0.7371140997062088	42356.33369098076
0.7372369520561599	42028.220170356544
0.7373598248815024	41700.05196414629
0.7374827181856494	41371.82906323445
0.7376056319720137	41043.551458505775
0.7377285662440091	40715.21914084292
0.7378515210050496	40339.95567601744
0.7379744962585505	39950.52597701515
0.738097492007927	39561.03137306313
0.7382205082565949	39171.471853344025
0.738343545007971	38781.84740703838
0.7384666022654723	38392.15802332463
0.7385896800325165	38002.40369138084
0.7387127783125219	37612.58440038124
0.7388358971089073	37364.92519321782
0.7389590364250921	37131.49023541969
0.7390821962644963	36898.01637179507
0.7392053766305403	36664.50359586019
0.7393285775266454	36430.951901129156
0.7394517989562333	36197.36128111544
0.7395750409227259	35963.731729332096
0.7396983034295463	35727.034275667225
0.739821586480118	35422.91582245731
0.7399448900778645	35118.74668283913
0.7400682142262109	34814.52684836343
0.740191558928582	34510.25631058231
0.7403149241884034	34205.93506104512
0.7404383100091014	33901.563091299606
0.7405617163941028	33597.14039289265
0.7406851433468352	33286.536124279766
0.7408085908707264	32947.833001315135
0.7409320589692048	32609.07342783018
0.7410555476456997	32270.25739441603
0.7411790569036406	31931.384891663227
0.7413025867464579	31592.455910159868
0.7414261371775823	31253.470440492834
0.7415497082004452	30914.42847324778
0.7416732998184786	30578.437258662816
0.741796912035115	30249.05572927535
0.7419205448537874	29919.619302966395
0.7420441982779297	29590.1279705864
0.742167872310976	29260.581722984036
0.7422915669563612	28930.980551007084
0.7424152822175206	28601.324445501552
0.7425390180978901	28271.613397311976
0.7426627746009065	27970.60392725766
0.7427865517300065	27704.600558205326
0.7429103494886282	27438.552855257873
0.7430341678802096	27172.4608110268
0.7431580069081896	26906.324418121705
0.7432818665760077	26640.143669150748
0.7434057468871037	26373.918556721856
0.7435296478449182	26107.64907344104
0.7436535694528923	25829.658975039005
0.7437775117144678	25543.629802667256
0.7439014746330868	25257.55295876721
0.7440254582121922	24971.428435392932
0.7441494624552276	24685.25622459798
0.7442734873656368	24399.03631843462
0.7443975329468645	24112.768708953336
0.7445215992023557	23826.45338820384
0.7446456861355559	23549.72377525521
0.7447697937499119	23276.496739431765
0.7448939220488703	23003.22416576908
0.7450180710358784	22729.90604667769
0.7451422407143843	22456.542374566423
0.7452664310878367	22183.133141842878
0.7453906421596846	21909.678340914175
0.7455148739333779	21636.177964185226
0.7456391264123667	21376.60054538429
0.7457633996001021	21119.213356196884
0.7458876935000356	20861.78326914415
0.7460120081156189	20604.310277077402
0.7461363434503048	20346.794372845186
0.7462606995075466	20089.23554929537
0.7463850762907978	19831.633799275343
0.7465094738035127	19574.054095003085
0.7466338920491467	19333.42970317945
0.746758331031155	19092.765207290275
0.7468827907529935	18852.060600652072
0.7470072712181189	18611.31587657942
0.7471317724299886	18370.531028386045
0.7472562943920602	18129.70604938481
0.7473808371077922	17888.84093288686
0.7475054005806435	17649.04165750526
0.7476299848140736	17416.014851300384
0.7477545898115426	17182.949207294423
0.7478792155765113	16949.844719014407
0.7480038621124406	16716.701379986527
0.7481285294227926	16483.51918373553
0.7482532175110298	16250.29812378491
0.7483779263806148	16017.03819365796
0.7485026560350116	15788.663220682956
0.7486274064776842	15573.576357011483
0.748752177712097	15358.45364552979
0.7488769697417158	15143.29508026239
0.749001782570006	14928.100655234373
0.7491266162004343	14712.870364468914
0.7492514706364677	14497.60420198823
0.7493763458815739	14282.302161813583
0.7495012419392209	14071.595004693963
0.7496261588128773	13867.510008733696
0.7497510965060128	13663.390998607292
0.7498760550220971	13459.237968645944
0.7500010343646007	13255.05091317957
0.7501260345369949	13050.829826537185
0.750251055542751	12846.574703047256
0.7503760973853414	12642.28553703662
0.7505011600682389	12447.103106964043
0.750626243594917	12259.520492222939
0.7507513479688495	12071.906613712996
0.7508764731935109	11884.261466223235
0.7510016192723765	11696.58504454218
0.7511267862089218	11508.877343457687
0.7512519740066232	11321.138357756277
0.7513771826689577	11133.368082223813
0.7515024121994025	10959.902046098585
0.7516276626014359	10793.091130742067
0.751752933878536	10626.252413566615
0.7518782260341824	10459.385889938245
0.7520035390718548	10292.491555222528
0.7521288729950334	10125.569404784448
0.7522542278071992	9958.619433987946
0.7523796035118337	9791.64163819623
0.7525050001124189	9632.959425554387
0.7526304176124378	9476.06092200879
0.7527558560153731	9319.136268712802
0.752881315324709	9162.185461307781
0.7530067955439299	9005.208495434803
0.7531322966765205	8848.205366734386
0.7532578187259665	8691.176070845808
0.7533833616957542	8534.120603407919
0.75350892558937	8388.683361346768
0.7536345104103016	8243.769432773697
0.7537601161620366	8098.831351879271
0.7538857428480638	7953.86911463789
0.7540113904718717	7808.882717023821
0.7541370590369503	7663.872155010183
0.7542627485467898	7518.83742456945
0.7543884590048808	7375.484661581853
0.7545141904147151	7249.121826957584
0.7546399427797842	7122.737931861081
0.7547657161035808	6996.332972782042
0.754891510389598	6869.90694620983
0.7550173256413296	6743.459848633138
0.7551431618622698	6616.991676540214
0.7552690190559135	6490.502426418635
0.7553948972257561	6366.367571307347
0.7555207963752938	6250.185607514484
0.755646716508023	6133.984280061056
0.755772657627441	6017.763585719679
0.7558986197370455	5901.523521262561
0.756024602840335	5785.264083461397
0.7561506069408084	5668.985269087267
0.7562766320419653	5552.687074910636
0.7564026781473054	5439.323239620439
0.75652874526033	5331.138308099602
0.7566548333845401	5222.935345756789
0.7567809425234375	5114.714349586956
0.7569070726805247	5006.47531658449
0.7570332238593047	4898.218243743206
0.7571593960632813	4789.943128056344
0.7572855892959586	4681.649966516861
0.7574118035608413	4581.1234988992255
0.7575380388614347	4488.196344792255
0.7576642952012449	4395.253702826233
0.7577905725837782	4302.295570420017
0.7579168710125422	4209.321944991567
0.7580431904910444	4116.3328239588445
0.7581695310227928	4023.3282047394014
0.7582958926112967	3930.3080847499705
0.7584222752600652	3843.2924131951263
0.7585486789726085	3759.720471583994
0.7586751037524372	3676.134601315895
0.7588015496030628	3592.5348000692547
0.7589280165279966	3508.9210655225716
0.7590545045307512	3425.293395353465
0.7591810136148396	3341.6517872393315
0.7593075437837755	3257.9962388570557
0.7594340950410726	3180.833010313708
0.7595606673902461	3105.544625908879
0.7596872608348112	3030.243693439906
0.7598138753782836	2954.9302108156053
0.75994051102418	2879.60417594413
0.7600671677760173	2804.265586733568
0.7601938456373134	2728.914441091413
0.7603205446115863	2653.550736925027
0.7604472647023548	2584.0595637980223
0.7605740059131385	2515.141786216475
0.7607007682474575	2446.212522338597
0.7608275517088319	2377.2717702502255
0.7609543563007835	2308.3195280363534
0.7610811820268336	2239.3557937821533
0.7612080288905045	2170.3805655723772
0.7613348968953197	2101.556029940941
0.7614617860448022	2036.0477724259529
0.7615886963424764	1970.5285968679566
0.7617156277918667	1904.9985014474305
0.7618425803964988	1839.4574843442806
0.7619695541598982	1773.9055437382974
0.7620965490855914	1708.3426778089283
0.7622235651771058	1642.768884735162
0.7623506024379685	1578.8369859265376
0.7624776608717082	1522.1389364411748
0.7626047404818536	1465.4314372808951
0.7627318412719337	1408.7144868708529
0.762858963245479	1351.9880836357067
0.7629861064060198	1295.2522260000162
0.7631132707570876	1238.5069123879941
0.7632404563022137	1181.7521412237543
0.7633676630449308	1126.7345880410687
0.7634948909887717	1075.4259609027993
0.7636221401372697	1024.10878232674
0.7637494104939593	972.7830508875365
0.7638767020623748	921.4487651598338
0.7640040148460518	870.1059237177847
0.7641313488485262	818.7545251354973
0.7642587040733344	767.3945679867211
0.7643860805240132	717.6191347026288
0.7645134782041005	669.736432114797
0.7646408971171346	621.8457490765142
0.764768337266654	573.9470842577423
0.7648957986561985	526.0404363281519
0.7650232812893079	478.1258039572463
0.7651507851695227	430.2031858142784
0.7652783103003843	382.27258056829254
0.7654058566854343	339.8685779613628
0.7655334243282153	301.229476551243
0.7656610132322699	262.5839352909386
0.765788623401142	223.9319531070544
