#wavelength	surface flux
0.7	7847615.911718485
0.7001166666666666	7879485.266946161
0.7002333527777778	7897429.607869317
0.700350058336574	7915376.93951595
0.7004667833462966	7933327.262384501
0.7005835278101878	7951280.576973581
0.7007002917314895	7969236.883781729
0.7008170751134447	7987196.183307677
0.7009338779592968	8005158.476050203
0.7010507002722901	8009006.481808488
0.7011675420556689	7995675.336847308
0.701284403312678	7982341.970028656
0.7014012840465635	7969006.380982181
0.7015181842605713	7955668.569337535
0.701635103957948	7942328.534724291
0.701752043141941	7928986.276771947
0.701869001815798	7915641.795109925
0.7019859799827672	7894884.1989853
0.7021029776460976	7868965.580845658
0.7022199948090387	7843042.642936293
0.7023370314748403	7817115.384537288
0.7024540876467528	7791183.804928554
0.702571163328027	7765247.903389928
0.7026882585219152	7739307.679200977
0.7028053732316688	7713363.131641365
0.7029225074605406	7711302.682824215
0.7030396612117841	7718466.306206082
0.7031568344886527	7725631.123525181
0.7032740272944008	7732797.134980494
0.7033912396322832	7739964.340771055
0.7035084715055552	7747132.741095906
0.7036257229174727	7754302.336154148
0.7037429938712924	7761473.1261449065
0.7038602843702709	7794131.643428833
0.7039775944176659	7831118.306159802
0.7040949240167356	7868111.133334574
0.7042122731707383	7905110.1259805225
0.7043296418829335	7942115.285125267
0.7044470301565806	7979126.611796528
0.70456443799494	8016144.107022206
0.7046818654012724	8053167.771830444
0.7047993123788394	8050512.255155196
0.7049167789309024	8047810.755191183
0.7050342650607243	8045108.80497717
0.7051517707715678	8042406.404438124
0.7052692960666963	8039703.553498989
0.705386840949374	8037000.2520846985
0.7055044054228656	8034296.500120169
0.7056219894904361	8036341.898871563
0.7057395931553511	8068570.84942859
0.705857216420877	8100805.171477403
0.7059748592902804	8133044.865913204
0.7060925217668288	8165289.933631444
0.70621020385379	8197540.3755276315
0.7063279055544321	8229796.1924974285
0.7064456268720246	8262057.38543677
0.7065633678098366	8291215.945188388
0.7066811283711383	8311819.848020352
0.7067989085592001	8332427.184836121
0.7069167083772933	8353037.956208013
0.7070345278286895	8373652.162708481
0.707152366916661	8394269.804910036
0.7072702256444803	8414890.883385267
0.7073881040154211	8435515.39870694
0.7075060020327569	8441919.807859315
0.7076239196997625	8427610.864190219
0.7077418570197124	8413299.535697192
0.7078598139958823	8398985.821982753
0.7079777906315483	8384669.722649344
0.7080957869299869	8370351.237299393
0.7082138028944751	8356030.365535224
0.7083318385282908	8341707.106959083
0.7084498938347124	8335440.6326397965
0.708567968817018	8336005.84415174
0.7086860634784875	8336571.149865602
0.7088041778224007	8337136.549797085
0.7089223118520377	8337702.043961888
0.7090404655706796	8338267.632375719
0.709158638981608	8338833.315054285
0.709276832088105	8339399.0920132985
0.7093950448934531	8357072.966247074
0.7095132774009353	8382908.777308517
0.7096315296138355	8408748.894338481
0.7097498015354378	8434593.318054609
0.7098680931690269	8460442.049174666
0.7099864045178884	8486295.088416608
0.7101047355853081	8512152.436498418
0.7102230863745722	8538014.094138226
0.7103414568889679	8507705.167315489
0.7104598471317828	8464626.92943918
0.7105782571063047	8421541.511856591
0.7106966868158224	8378448.913371075
0.710815136263625	8335349.1327858195
0.7109336054530023	8292242.168903773
0.7110520943872445	8249128.020527761
0.7111706030696424	8206006.686460327
0.7112891315034873	8215676.372333976
0.7114076796920712	8227866.82432673
0.7115262476386865	8240059.308061484
0.7116448353466263	8252253.823876852
0.711763442819184	8264450.372111529
0.711882070059654	8276648.953104256
0.7120007170713306	8288849.567193806
0.7121193838575091	8303602.305104991
0.7122380704214853	8344954.291775193
0.7123567767665555	8386313.170443131
0.7124755028960166	8427678.942257533
0.7125942488131658	8469051.608367207
0.7127130145213015	8510431.169921346
0.7128318000237216	8551817.628068948
0.7129506053237256	8593210.983959636
0.7130694304246129	8620577.743704686
0.7131882753296837	8598883.022186717
0.7133071400422386	8577184.684881823
0.7134260245655789	8555482.731187394
0.7135449289030065	8533777.160500675
0.7136638530578235	8512067.972218852
0.7137827970333332	8490355.165738953
0.7139017608328388	8468638.740457978
0.7140207444596443	8453500.708131444
0.7141397479170543	8450101.809593571
0.7142587712083737	8446702.344572613
0.7143778143369084	8443302.31297415
0.7144968773059646	8439901.714703752
0.7146159601188489	8436500.549666977
0.7147350627788687	8433098.817769362
0.7148541852893318	8429696.518916432
0.7149733276535467	8438633.454001462
0.7150924898748222	8460015.058081219
0.715211671956468	8481400.22576166
0.7153308739017941	8502788.95763673
0.715450095714111	8524181.254300438
0.71556933739673	8545577.116346925
0.7156885989529628	8566976.544370418
0.7158078803861218	8588379.53896528
0.7159271816995193	8578186.415039925
0.7160465028964692	8549444.548218671
0.7161658439802853	8520697.89108628
0.7162852049542819	8491946.442844376
0.7164045858217744	8463190.20269441
0.716523986586078	8434429.169837767
0.7166434072505089	8405663.343475662
0.716762847818384	8376892.722809153
0.7168823082930204	8378054.041347926
0.7170017886777359	8388022.813274746
0.7171212889758488	8397993.246663546
0.7172408091906781	8407965.34179125
0.7173603493255433	8417939.09893481
0.7174799093837642	8427914.518371223
0.7175994893686615	8437891.600377545
0.7177190892835562	8447870.345230862
0.7178387091317702	8472252.440578396
0.7179583489166254	8498084.282353183
0.7180780086414448	8523920.429434953
0.7181976883095517	8549760.882541236
0.7183173879242699	8575605.642389704
0.718437107488924	8601454.709698154
0.7185568470068389	8627308.085184498
0.7186766064813399	8652017.743184859
0.7187963859157535	8648028.32987826
0.7189161853134061	8644038.251669442
0.719036004677625	8640047.50844759
0.7191558440117378	8636056.100101868
0.7192757033190732	8632064.026521418
0.7193955826029597	8628071.287595375
0.7195154818667269	8624077.883212842
0.7196354011137046	8615980.566360174
0.7197553403472235	8588989.817755874
0.7198752995706147	8561994.570693484
0.7199952787872098	8534994.824423233
0.720115278000341	8507990.57819527
0.7202352972133411	8480981.831259599
0.7203553364295432	8453968.582866147
0.7204753956522815	8426950.832264591
0.7205954748848902	8403164.908393176
0.7207155741307044	8386509.917600451
0.7208356933930594	8369852.1509759575
0.7209558326752915	8353191.608057022
0.7210759919807375	8336528.288380912
0.7211961713127342	8319862.191484877
0.7213163706746197	8303193.316906
0.7214365900697322	8286521.664181376
0.7215568295014103	8289346.847537177
0.721677088972994	8315438.827044023
0.7217973684878227	8341535.155214078
0.7219176680492374	8367635.832772192
0.7220379876605789	8393740.860443216
0.722158327325189	8419850.238952195
0.7222786870464099	8445963.969024247
0.7223990668275843	8472082.051384652
0.7225194666720555	8472930.42608655
0.7226398865831676	8455866.582652453
0.7227603265642646	8438799.89524449
0.722880786618692	8421730.36338859
0.7230012667497951	8404657.986610727
0.7231217669609201	8387582.76443673
0.7232422872554135	8370504.696392387
0.7233628276366229	8353423.78200334
0.7234833881078956	8320066.99616531
0.7236039686725803	8280526.411416119
0.7237245693340255	8240979.236569533
0.7238451900955812	8201425.470527066
0.7239658309605971	8161865.112190304
0.7240864919324239	8122298.160460435
0.7242071730144127	8082724.614238608
0.724327874209915	8043144.472425826
0.7244485955222832	8038522.593175407
0.7245693369548704	8039681.08768882
0.7246900985110294	8040839.775284651
0.7248108801941148	8041998.655995083
0.7249316820074803	8043157.729852297
0.7250525039544815	8044316.996888489
0.7251733460384739	8045476.457135854
0.7252942082628137	8046594.643565341
0.7254150906308574	8023685.687688152
0.7255359931459625	8000772.913651649
0.7256569158114868	7977856.320819465
0.7257778586307888	7954935.908555131
0.7258988216072273	7932011.676222093
0.7260198047441617	7909083.623183693
0.7261408080449525	7886151.748803079
0.72626183151296	7861966.716659156
0.7263828751515454	7829475.100576563
0.7265039389640706	7796978.0692246305
0.726625022953898	7764475.621700785
0.7267461271243904	7731967.757102338
0.7268672514789111	7699454.474526478
0.7269883960208241	7666935.773070217
0.7271095607534942	7634411.651830358
0.7272307456802866	7598824.641939651
0.7273519508045666	7554972.741919569
0.7274731761297006	7511113.533249504
0.7275944216590555	7467247.01471133
0.7277156873959987	7423373.185086715
0.7278369733438982	7379492.043157093
0.727958279506122	7335603.587703934
0.7280796058860397	7291707.817508145
0.7282009524870207	7250475.802227951
0.7283223193124353	7213187.726222742
0.7284437063656539	7175893.435538275
0.7285651136500483	7138592.929138633
0.7286865411689898	7101286.205988002
0.7288079889258514	7063973.265050088
0.7289294569240056	7026654.10528877
0.7290509451668262	6989328.72566745
0.7291724536576875	6970640.625532492
0.7292939823999636	6967397.557711968
0.7294155313970303	6964153.949380135
0.7295371006522632	6960909.800446914
0.7296586901690385	6957665.110822206
0.7297802999507332	6954419.880415896
0.7299019300007252	6951174.109137842
0.7300235803223919	6947927.796897919
0.7301452509191123	6938542.970793752
0.7302669417942654	6926323.479821216
0.7303886529512311	6914101.952266847
0.7305103843933897	6901878.387791215
0.7306321361241218	6889652.786054848
0.7307539081468093	6877425.14671817
0.7308757004648336	6865195.469441627
0.7309975130815778	6852963.753885524
0.7311193460004248	6842028.276287505
0.7312411992247582	6831384.889353176
0.7313630727579622	6820739.728521025
0.7314849666034219	6810092.793495392
0.7316068807645224	6799444.083980595
0.7317288152446498	6788793.599680874
0.7318507700471907	6778141.34030043
0.7319727451755319	6767487.305543427
0.732094740633061	6752455.77037098
0.7322167564231665	6737224.733428929
0.7323387925492371	6721991.1579807205
0.7324608490146619	6706755.043603275
0.732582925822831	6691516.389873429
0.7327050229771347	6676275.19636798
0.7328271404809642	6661031.4626635965
0.7329492783377112	6643816.983954966
0.7330714365507675	6607250.104131538
0.7331936151235259	6570677.129828149
0.7333158140593796	6534098.060029085
0.7334380333617229	6497512.893718331
0.7335602730339499	6460921.6298798425
0.7336825330794556	6424324.267497373
0.7338048135016354	6387720.805554577
0.7339271143038857	6346378.937671107
0.734049435489603	6289173.711546339
0.7341717770621846	6231958.951217206
0.7342941390250283	6174734.655094714
0.7344165213815324	6117500.821589557
0.734538924135096	6060257.449112065
0.7346613472891185	6003004.536072569
0.734783790847	5945742.080880879
0.7349062548121412	5883907.784983342
0.7350287391879431	5813999.137159818
0.7351512439778078	5744078.837894848
0.7352737691851374	5674146.885246751
0.735396314813335	5604203.277273151
0.7355188808658037	5534248.012031671
0.7356414673459482	5464281.087579175
0.7357640742571725	5394302.501972651
0.7358867016028818	5346209.045690026
0.7360093493864824	5319732.631007774
0.7361320176113801	5293251.803589778
0.736254706280982	5266766.562700545
0.7363774153986956	5240276.907604463
0.7365001449679286	5213782.837565919
0.7366228949920899	5187284.351849014
0.7367456654745885	5160781.449717823
0.7368684564188344	5127121.869135882
0.7369912678282374	5089414.371266919
0.7371140997062088	5051700.588814964
0.7372369520561599	5013980.520732564
0.7373598248815024	4976254.165972235
0.7374827181856494	4938521.523486049
0.7376056319720137	4900782.592226112
0.7377285662440091	4863037.371144294
0.7378515210050496	4832453.620258552
0.7379744962585505	4804021.33333184
0.738097492007927	4775584.307690647
0.7382205082565949	4747142.542545199
0.738343545007971	4718696.037105566
0.7384666022654723	4690244.790581664
0.7385896800325165	4661788.802183384
0.7387127783125219	4633328.071120336
0.7388358971089073	4606984.084643121
0.7389590364250921	4580848.498017675
0.7390821962644963	4554708.555461105
0.7392053766305403	4528564.25624748
0.7393285775266454	4502415.599650634
0.7394517989562333	4476262.58494433
0.7395750409227259	4450105.211402284
0.7396983034295463	4424376.386416421
0.739821586480118	4408273.63656275
0.7399448900778645	4392168.202917469
0.7400682142262109	4376060.085033197
0.740191558928582	4359949.282462629
0.7403149241884034	4343835.7947583115
0.7404383100091014	4327719.621472706
0.7405617163941028	4311600.76215823
0.7406851433468352	4290431.254638091
0.7408085908707264	4246165.00794491
0.7409320589692048	4201891.383543969
0.7410555476456997	4157610.380205591
0.7411790569036406	4113321.9967000233
0.7413025867464579	4069026.2317971913
0.7414261371775823	4024723.0842668638
0.7415497082004452	3980412.5528786485
0.7416732998184786	3939436.7469391357
0.741796912035115	3905623.5968131637
0.7419205448537874	3871804.8111621784
0.7420441982779297	3837980.3890469195
0.742167872310976	3804150.329527943
0.7422915669563612	3770314.631665715
0.7424152822175206	3736473.2945205183
0.7425390180978901	3702626.3171524853
0.7426627746009065	3668970.4932369892
0.7427865517300065	3635548.9667458953
0.7429103494886282	3602121.8700003508
0.7430341678802096	3568689.2020720416
0.7431580069081896	3535250.9620324126
0.7432818665760077	3501807.14895273
0.7434057468871037	3468357.7619042285
0.7435296478449182	3434902.799957905
0.7436535694528923	3401757.3453150652
0.7437775117144678	3368822.0504971663
0.7439014746330868	3335881.266463514
0.7440254582121922	3302934.992299161
0.7441494624552276	3269983.2270891005
0.7442734873656368	3237025.969918179
0.7443975329468645	3204063.219871036
0.7445215992023557	3171094.976032222
0.7446456861355559	3138355.24886848
0.7447697937499119	3105696.268663258
0.7448939220488703	3073031.845294676
0.7450180710358784	3040361.977855561
0.7451422407143843	3007686.665438536
0.7452664310878367	2975005.9071360775
0.7453906421596846	2942319.7020406034
0.7455148739333779	2909628.0492442697
0.7456391264123667	2878213.326073087
0.7457633996001021	2846998.4123032214
0.7458876935000356	2815778.296047672
0.7460120081156189	2784552.976439473
0.7461363434503048	2753322.4526113244
0.7462606995075466	2722086.723695843
0.7463850762907978	2690845.7888255897
0.7465094738035127	2659598.0697022886
0.7466338920491467	2627932.495560033
0.746758331031155	2596261.6438220553
0.7468827907529935	2564585.513608826
0.7470072712181189	2532904.1040405603
0.7471317724299886	2501217.41423736
0.7472562943920602	2469525.4433192154
0.7473808371077922	2437828.1904058894
0.7475054005806435	2406183.8252665107
0.7476299848140736	2374892.494453637
0.7477545898115426	2343595.948418954
0.7478792155765113	2312294.186293258
0.7480038621124406	2280987.207207232
0.7481285294227926	2249675.0102913654
0.7482532175110298	2218357.59467598
0.7483779263806148	2187034.9594913693
0.7485026560350116	2156207.1839971486
0.7486274064776842	2126727.7186828996
0.748752177712097	2097243.3401244846
0.7488769697417158	2067754.047502914
0.749001782570006	2038259.8399992753
0.7491266162004343	2008760.716794395
0.7492514706364677	1979256.677068967
0.7493763458815739	1949747.7200035548
0.7495012419392209	1920532.5628515712
0.7496261588128773	1891741.9793347137
0.7497510965060128	1862946.5973872498
0.7498760550220971	1834146.416209472
0.7500010343646007	1805341.4350014937
0.7501260345369949	1776531.6529632995
0.750251055542751	1747717.0692947984
0.7503760973853414	1718897.683195668
0.7505011600682389	1690904.3751431375
0.750626243594917	1663600.16840704
0.7507513479688495	1636291.410969861
0.7508764731935109	1608978.1020731
0.7510016192723765	1581660.2409581826
0.7511267862089218	1554337.826866438
0.7512519740066232	1527010.8590390016
0.7513771826689577	1499679.336716912
0.7515024121994025	1474045.6104426072
0.7516276626014359	1449201.3437242187
0.751752933878536	1424352.9362947543
0.7518782260341824	1399500.387464043
0.7520035390718548	1374643.696541849
0.7521288729950334	1349782.8628378476
0.7522542278071992	1324917.88566156
0.7523796035118337	1300048.7643223978
0.7525050001124189	1276172.7575746889
0.7526304176124378	1252509.6531186483
0.7527558560153731	1228842.6048118956
0.752881315324709	1205171.6119970689
0.7530067955439299	1181496.6740167644
0.7531322966765205	1157817.790213495
0.7532578187259665	1134134.9599295843
0.7533833616957542	1110448.1825072938
0.75350892558937	1088246.29635083
0.7536345104103016	1066110.719347823
0.7537601161620366	1043971.4530819933
0.7538857428480638	1021828.4969384312
0.7540113904718717	999681.8503022072
0.7541370590369503	977531.5125582154
0.7542627485467898	955377.4830912523
0.7543884590048808	933459.9859014299
0.7545141904147151	913934.3828803102
0.7546399427797842	894405.5255920518
0.7547657161035808	874873.4134942424
0.754891510389598	855338.0460444175
0.7550173256413296	835799.42270001
0.7551431618622698	816257.542918383
0.7552690190559135	796712.4061567967
0.7553948972257561	777536.120147417
0.7555207963752938	759605.6654774953
0.755646716508023	741672.2223984721
0.755772657627441	723735.790412263
0.7558986197370455	705796.3690207201
0.756024602840335	687853.9577256165
0.7561506069408084	669908.5560286307
0.7562766320419653	651960.1634313458
0.7564026781473054	634511.3988290087
0.75652874526033	617944.202137271
0.7566548333845401	601374.244246076
0.7567809425234375	584801.5246952383
0.7569070726805247	568226.0430244851
0.7570332238593047	551647.7987734557
0.7571593960632813	535066.7914817018
0.7572855892959586	518483.0206887318
0.7574118035608413	503176.22165175364
0.7575380388614347	489118.8786990056
0.7576642952012449	475059.1928557601
0.7577905725837782	460997.16373156104
0.7579168710125422	446932.79093581624
0.7580431904910444	432866.07407793356
0.7581695310227928	418797.012767259
0.7582958926112967	404725.60661301494
0.7584222752600652	391749.5922817341
0.7585486789726085	379402.0233265954
0.7586751037524372	367052.39644329273
0.7588015496030628	354700.71128881874
0.7589280165279966	342346.96752017684
0.7590545045307512	329991.16479424015
0.7591810136148396	317633.3027678494
0.7593075437837755	305273.38109776936
0.7594340950410726	294252.61805727007
0.7595606673902461	283619.1547943404
0.7596872608348112	272983.9192875228
0.7598138753782836	262346.91124146583
0.75994051102418	251708.13036072458
0.7600671677760173	241067.57634984487
0.7601938456373134	230425.2489132885
0.7603205446115863	219781.1477554987
0.7604472647023548	210595.20563700426
0.7605740059131385	201552.8496995383
0.7607007682474575	192508.98670274057
0.7608275517088319	183463.6163954635
0.7609543563007835	174416.73852644846
0.7610811820268336	165368.3528444607
0.7612080288905045	156318.45909820998
0.7613348968953197	147333.3366241255
0.7614617860448022	139706.6274232472
0.7615886963424764	132078.64710415836
0.7617156277918667	124449.3954550237
0.7618425803964988	116818.87226394123
0.7619695541598982	109187.07731899562
0.7620965490855914	101554.0104082315
0.7622235651771058	93919.67131964007
0.7623506024379685	86694.86967078153
0.7624776608717082	81269.48821484286
0.7626047404818536	75843.2025286613
0.7627318412719337	70416.01246154137
0.762858963245479	64987.91786274017
0.7629861064060198	59558.91858150535
0.7631132707570876	54129.01446705135
0.7632404563022137	48698.20536858315
0.7633676630449308	43880.60995613067
0.7634948909887717	40369.46668134285
0.7636221401372697	36857.7382160138
0.7637494104939593	33345.424462603885
0.7638767020623748	29832.525323573464
0.7640040148460518	26319.04070134921
0.7641313488485262	22804.970498354716
0.7642587040733344	19290.314616989064
0.7643860805240132	16593.66537194147
0.7645134782041005	14873.392823233255
0.7646408971171346	13152.833562432872
0.764768337266654	11431.98754175632
0.7648957986561985	9710.854713409099
0.7650232812893079	7989.435029590715
0.7651507851695227	6267.728442491678
0.7652783103003843	4545.734904295003
0.7654058566854343	3577.7296486959144
0.7655334243282153	3123.6213854510797
0.7656610132322699	2669.4374374962968
0.765788623401142	2215.1777922164274
0.7659162548383754	1760.8424369959384
