#wavelength	surface flux
0.7	578226.3381529293
0.7001166666666666	579019.306215264
0.7002333527777778	579420.9694959254
0.700350058336574	579822.6997204665
0.7004667833462966	580224.4969000447
0.7005835278101878	580626.3610458205
0.7007002917314895	581028.2921689533
0.7008170751134447	581430.2902806066
0.7009338779592968	581832.3553919449
0.7010507002722901	582210.0534518716
0.7011675420556689	582558.0798321471
0.701284403312678	582906.1642168186
0.7014012840465635	583254.3066155548
0.7015181842605713	583602.5070380241
0.701635103957948	583950.7654938969
0.701752043141941	584299.0819928455
0.701869001815798	584647.4565445445
0.7019859799827672	585297.561050796
0.7021029776460976	586157.7205582581
0.7022199948090387	587018.0234256393
0.7023370314748403	587878.4696768313
0.7024540876467528	588739.0593357318
0.702571163328027	589599.7924262406
0.7026882585219152	590460.6689722668
0.7028053732316688	591321.6889977162
0.7029225074605406	592487.9115546048
0.7030396612117841	593772.1257630356
0.7031568344886527	595056.5540071682
0.7032740272944008	596341.1963226738
0.7033912396322832	597626.0527452327
0.7035084715055552	598911.1233105275
0.7036257229174727	600196.4080542503
0.7037429938712924	601481.9070120982
0.7038602843702709	601851.8125271325
0.7039775944176659	602066.4520066839
0.7040949240167356	602281.127259482
0.7042122731707383	602495.8382914888
0.7043296418829335	602710.5851086677
0.7044470301565806	602925.3677169828
0.70456443799494	603140.1861223992
0.7046818654012724	603355.0403308831
0.7047993123788394	604343.5813659002
0.7049167789309024	605333.1749566295
0.7050342650607243	606322.9334796255
0.7051517707715678	607312.8569623749
0.7052692960666963	608302.9454323709
0.705386840949374	609293.1989171115
0.7055044054228656	610283.6174441011
0.7056219894904361	611157.2977287486
0.7057395931553511	611288.2155233258
0.705857216420877	611419.1551375355
0.7059748592902804	611550.1165750142
0.7060925217668288	611681.0998393993
0.70621020385379	611812.1049343284
0.7063279055544321	611943.1318634398
0.7064456268720246	612074.180630373
0.7065633678098366	612286.3302267402
0.7066811283711383	612721.8082010357
0.7067989085592001	613157.3587549936
0.7069167083772933	613592.9819007103
0.7070345278286895	614028.6776502848
0.707152366916661	614464.4460158177
0.7072702256444803	614900.287009411
0.7073881040154211	615336.2006431705
0.7075060020327569	615882.1702647917
0.7076239196997625	616588.4048223067
0.7077418570197124	617294.7570855806
0.7078598139958823	618001.2270742316
0.7079777906315483	618707.8148078815
0.7080957869299869	619414.5203061531
0.7082138028944751	620121.3435886741
0.7083318385282908	620828.2846750759
0.7084498938347124	620941.4030921924
0.708567968817018	620550.9854765115
0.7086860634784875	620160.5027912275
0.7088041778224007	619769.9550254957
0.7089223118520377	619379.3421684701
0.7090404655706796	618988.664209302
0.709158638981608	618597.9211371401
0.709276832088105	618207.1129411329
0.7093950448934531	618388.6600886118
0.7095132774009353	618843.2309952788
0.7096315296138355	619297.8776637637
0.7097498015354378	619752.6001066933
0.7098680931690269	620207.3983366962
0.7099864045178884	620662.2723664048
0.7101047355853081	621117.2222084515
0.7102230863745722	621572.2478754715
0.7103414568889679	621965.8156131105
0.7104598471317828	622345.4670237764
0.7105782571063047	622725.181709677
0.7106966868158224	623104.9596813585
0.710815136263625	623484.8009493687
0.7109336054530023	623864.705524257
0.7110520943872445	624244.6734165744
0.7111706030696424	624624.704636874
0.7112891315034873	624357.1511736705
0.7114076796920712	624058.6519658887
0.7115262476386865	623760.1030082387
0.7116448353466263	623461.5042924294
0.711763442819184	623162.8558101674
0.711882070059654	622864.1575531579
0.7120007170713306	622565.4095131059
0.7121193838575091	622268.6370561103
0.7122380704214853	621992.939273547
0.7123567767665555	621717.1955413537
0.7124755028960166	621441.4058518715
0.7125942488131658	621165.5701974413
0.7127130145213015	620889.6885704012
0.7128318000237216	620613.7609630908
0.7129506053237256	620337.7873678454
0.7130694304246129	620051.8570672304
0.7131882753296837	619731.2277788516
0.7133071400422386	619410.5450522582
0.7134260245655789	619089.8088785438
0.7135449289030065	618769.0192488004
0.7136638530578235	618448.1761541187
0.7137827970333332	618127.2795855877
0.7139017608328388	617806.3295342951
0.7140207444596443	617438.3671022336
0.7141397479170543	616986.5733455467
0.7142587712083737	616534.704289901
0.7143778143369084	616082.7599227456
0.7144968773059646	615630.7402315291
0.7146159601188489	615178.6452036974
0.7147350627788687	614726.4748266943
0.7148541852893318	614274.2290879621
0.7149733276535467	613498.9262290295
0.7150924898748222	612397.8065794389
0.715211671956468	611296.5034099065
0.7153308739017941	610195.0166898449
0.715450095714111	609093.346388664
0.71556933739673	607991.4924757659
0.7156885989529628	606889.4549205492
0.7158078803861218	605787.2336924049
0.7159271816995193	603820.0231047209
0.7160465028964692	601344.8976824222
0.7161658439802853	598869.35973922
0.7162852049542819	596393.4092063609
0.7164045858217744	593917.0460150783
0.716523986586078	591440.2700965981
0.7166434072505089	588963.0813821327
0.716762847818384	586485.4798028808
0.7168823082930204	584676.3236629838
0.7170017886777359	583063.6412839941
0.7171212889758488	581450.6901246088
0.7172408091906781	579837.4701400299
0.7173603493255433	578223.9812854531
0.7174799093837642	576610.223516068
0.7175994893686615	574996.1967870541
0.7177190892835562	573381.9010535859
0.7178387091317702	573625.4242542633
0.7179583489166254	574055.5082509749
0.7180780086414448	574485.6639283531
0.7181976883095517	574915.8912983441
0.7183173879242699	575346.1903728968
0.718437107488924	575776.561163962
0.7185568470068389	576207.0036834927
0.7186766064813399	576591.6945301555
0.7187963859157535	575830.7631734991
0.7189161853134061	575069.7049949501
0.719036004677625	574308.5199733712
0.7191558440117378	573547.2080876225
0.7192757033190732	572785.7693165585
0.7193955826029597	572024.2036390335
0.7195154818667269	571262.5110338948
0.7196354011137046	570459.430936783
0.7197553403472235	569466.246076711
0.7198752995706147	568472.8956858295
0.7199952787872098	567479.3797365486
0.720115278000341	566485.6982012764
0.7202352972133411	565491.8510524147
0.7203553364295432	564497.8382623632
0.7204753956522815	563503.6598035119
0.7205954748848902	562964.2038680958
0.7207155741307044	563427.5165356498
0.7208356933930594	563890.9064219808
0.7209558326752915	564354.3735399598
0.7210759919807375	564817.917902459
0.7211961713127342	565281.5395223513
0.7213163706746197	565745.2384125144
0.7214365900697322	566209.0145858255
0.7215568295014103	565860.0706495018
0.721677088972994	564541.2643246364
0.7217973684878227	563222.2381987192
0.7219176680492374	561902.9922351127
0.7220379876605789	560583.5263971798
0.722158327325189	559263.8406482734
0.7222786870464099	557943.9349517429
0.7223990668275843	556623.809270929
0.7225194666720555	555002.706088131
0.7226398865831676	553168.1783652242
0.7227603265642646	551333.3448877014
0.722880786618692	549498.205604595
0.7230012667497951	547662.7604649428
0.7231217669609201	545827.0094177669
0.7232422872554135	543990.9524120849
0.7233628276366229	542154.5893968989
0.7234833881078956	541293.8310391961
0.7236039686725803	540803.4448592437
0.7237245693340255	540312.9769482621
0.7238451900955812	539822.4272926277
0.7239658309605971	539331.795878718
0.7240864919324239	538841.0826929053
0.7242071730144127	538350.2877215616
0.724327874209915	537859.4109510571
0.7244485955222832	535099.8451869712
0.7245693369548704	531964.7244642263
0.7246900985110294	528829.0812213655
0.7248108801941148	525692.9153712892
0.7249316820074803	522556.22682691505
0.7250525039544815	519419.01550111175
0.7251733460384739	516281.28130675363
0.7252942082628137	513146.81015681074
0.7254150906308574	512205.54497394385
0.7255359931459625	511264.1229135464
0.7256569158114868	510322.5439494719
0.7257778586307888	509380.80805556965
0.7258988216072273	508438.9152056853
0.7260198047441617	507496.8653736604
0.7261408080449525	506554.6585333285
0.72626183151296	505610.4378130608
0.7263828751515454	504653.71991919325
0.7265039389640706	503696.8425723436
0.726625022953898	502739.80574593553
0.7267461271243904	501782.6094133893
0.7268672514789111	500825.2535481216
0.7269883960208241	499867.73812354385
0.7271095607534942	498910.06311306136
0.7272307456802866	497829.59818535147
0.7273519508045666	496417.6991274377
0.7274731761297006	495005.56475301506
0.7275944216590555	493593.19502286334
0.7277156873959987	492180.58989775606
0.7278369733438982	490767.749338459
0.727958279506122	489354.6733057392
0.7280796058860397	487941.3617603455
0.7282009524870207	485978.0209355105
0.7283223193124353	483201.1467392452
0.7284437063656539	480423.8097306196
0.7285651136500483	477646.00983248797
0.7286865411689898	474867.7469677124
0.7288079889258514	472089.0210591193
0.7289294569240056	469309.83202954783
0.7290509451668262	466530.17980180157
0.7291724536576875	464088.11019832606
0.7292939823999636	461925.7410009835
0.7294155313970303	459763.01140877034
0.7295371006522632	457599.9213616258
0.7296586901690385	455436.47079947504
0.7297802999507332	453272.6596622315
0.7299019300007252	451108.4878897929
0.7300235803223919	448943.9554220647
0.7301452509191123	447317.1068783573
0.7302669417942654	445938.33217960765
0.7303886529512311	444559.32768507453
0.7305103843933897	443180.0933564586
0.7306321361241218	441800.6291554556
0.7307539081468093	440420.93504375
0.7308757004648336	439041.01098302874
0.7309975130815778	437660.8569349623
0.7311193460004248	436368.5302523665
0.7312411992247582	435095.92325120413
0.7313630727579622	433823.10414887517
0.7314849666034219	432550.0729100279
0.7316068807645224	431276.82949930825
0.7317288152446498	430003.37388135295
0.7318507700471907	428729.70602079394
0.7319727451755319	427455.82588225865
0.732094740633061	425296.9790060676
0.7322167564231665	423097.94039767724
0.7323387925492371	420898.53528285207
0.7324608490146619	418698.76360050833
0.732582925822831	416498.62528955034
0.7327050229771347	414298.1202888764
0.7328271404809642	412097.24853736674
0.7329492783377112	409907.7347626609
0.7330714365507675	407833.12315095984
0.7331936151235259	405758.16577065736
0.7333158140593796	403682.8625641272
0.7334380333617229	401607.2134737261
0.7335602730339499	399531.218441809
0.7336825330794556	397454.87741071946
0.7338048135016354	395378.1903227954
0.7339271143038857	393454.4880889355
0.734049435489603	392044.22912247846
0.7341717770621846	390633.73511286016
0.7342941390250283	389223.0060209076
0.7344165213815324	387812.0418074402
0.734538924135096	386400.84243326855
0.7346613472891185	384989.40785920306
0.734783790847	383577.7380460414
0.7349062548121412	381709.1752124078
0.7350287391879431	379033.1397421179
0.7351512439778078	376356.6582659108
0.7352737691851374	373679.73070946085
0.735396314813335	371002.35699841584
0.7355188808658037	368324.5370584234
0.7356414673459482	365646.2708151022
0.7357640742571725	362967.5581940756
0.7358867016028818	360496.94348365115
0.7360093493864824	358231.8733688731
0.7361320176113801	355966.42574241234
0.736254706280982	353700.6005413471
0.7363774153986956	351434.39770274545
0.7365001449679286	349167.8171636753
0.7366228949920899	346900.8588611802
0.7367456654745885	344633.5227323013
0.7368684564188344	342374.8749487017
0.7369912678282374	340120.9747685576
0.7371140997062088	337866.6989383825
0.7372369520561599	335612.04739556694
0.7373598248815024	333357.0200774993
0.7374827181856494	331101.6169215416
0.7376056319720137	328845.8378650577
0.7377285662440091	326589.6828453973
0.7378515210050496	323922.13960997446
0.7379744962585505	321130.49071965786
0.738097492007927	318338.37655452685
0.7382205082565949	315545.7970370368
0.738343545007971	312752.75208962767
0.7384666022654723	309959.24163472455
0.7385896800325165	307165.26559474977
0.7387127783125219	304370.82389209815
0.7388358971089073	302813.863726781
0.7389590364250921	301380.8132527143
0.7390821962644963	299947.52393690083
0.7392053766305403	298513.99573953677
0.7393285775266454	297080.22862080554
0.7394517989562333	295646.2225408864
0.7395750409227259	294211.97745995625
0.7396983034295463	292745.4961583942
0.739821586480118	290566.9693663897
0.7399448900778645	288388.07948659075
0.7400682142262109	286208.8264584719
0.740191558928582	284029.21022151737
0.7403149241884034	281849.2307151917
0.7404383100091014	279668.88787894783
0.7405617163941028	277488.18165223254
0.7406851433468352	275244.36163123825
0.7408085908707264	272713.0999108081
0.7409320589692048	270181.41631342575
0.7410555476456997	267649.3107687752
0.7411790569036406	265116.7832065356
0.7413025867464579	262583.83355636836
0.7414261371775823	260050.46174792532
0.7415497082004452	257516.6677108495
0.7416732998184786	254986.39497476007
0.741796912035115	252464.16032497387
0.7419205448537874	249941.50530274663
0.7420441982779297	247418.42983801576
0.742167872310976	244894.9338607051
0.7422915669563612	242371.01730073165
0.7424152822175206	239846.68008799886
0.7425390180978901	237321.92215239882
0.7426627746009065	235019.11027309246
0.7427865517300065	232986.9957043884
0.7429103494886282	230954.54244992076
0.7430341678802096	228921.75045324562
0.7431580069081896	226888.61965790446
0.7432818665760077	224855.1500074279
0.7434057468871037	222821.34144534462
0.7435296478449182	220787.19391516884
0.7436535694528923	218617.66585339938
0.7437775117144678	216355.33614993287
0.7439014746330868	214092.62939151924
0.7440254582121922	211829.54551531054
0.7441494624552276	209566.08445845495
0.7442734873656368	207302.24615809033
0.7443975329468645	205038.03055134052
0.7445215992023557	202773.43757532316
0.7446456861355559	200540.68095605785
0.7447697937499119	198319.4189151799
0.7448939220488703	196097.7866639623
0.7450180710358784	193875.78414070475
0.7451422407143843	191653.41128369307
0.7452664310878367	189430.66803120315
0.7453906421596846	187207.55432150688
0.7455148739333779	184984.07009285825
0.7456391264123667	182840.96842523216
0.7457633996001021	180710.42155482082
0.7458876935000356	178579.5195932606
0.7460120081156189	176448.26248137752
0.7461363434503048	174316.6501599748
0.7462606995075466	172184.6825698499
0.7463850762907978	170052.35965179652
0.7465094738035127	167920.0005194661
0.7466338920491467	165870.7798424437
0.746758331031155	163821.2176286398
0.7468827907529935	161771.31382113602
0.7470072712181189	159721.06836299758
0.7471317724299886	157670.4811972824
0.7472562943920602	155619.55226704106
0.7473808371077922	153568.28151530953
0.7475054005806435	151518.86561248475
0.7476299848140736	149482.63911940766
0.7477545898115426	147446.07325524796
0.7478792155765113	145409.1679634437
0.7480038621124406	143371.92318742577
0.7481285294227926	141334.3388706123
0.7482532175110298	139296.41495641053
0.7483779263806148	137258.15138822593
0.7485026560350116	135250.02437707718
0.7486274064776842	133324.04555508884
0.748752177712097	131397.74573663372
0.7488769697417158	129471.12486820472
0.749001782570006	127544.18289629999
0.7491266162004343	125616.9197674005
0.7492514706364677	123689.33542797866
0.7493763458815739	121761.4298244983
0.7495012419392209	119857.19170233585
0.7496261588128773	117987.12296433542
0.7497510965060128	116116.74254821066
0.7498760550220971	114246.05040201727
0.7500010343646007	112375.0464737992
0.7501260345369949	110503.73071159217
0.750251055542751	108632.10306342688
0.7503760973853414	106760.1634773191
0.7505011600682389	104951.76143277134
0.750626243594917	103196.37088668725
0.7507513479688495	101440.68777551482
0.7508764731935109	99684.71205048992
0.7510016192723765	97928.44366284374
0.7511267862089218	96171.88256380125
0.7512519740066232	94415.02870457496
0.7513771826689577	92657.88203637113
0.7515024121994025	91016.32971677002
0.7516276626014359	89428.53693323235
0.751752933878536	87840.47951756687
0.7518782260341824	86252.1574256649
0.7520035390718548	84663.57061341358
0.7521288729950334	83074.71903669438
0.7522542278071992	81485.60265137894
0.7523796035118337	79896.22141333183
0.7525050001124189	78374.08916999206
0.7526304176124378	76866.38599945264
0.7527558560153731	75358.4315450534
0.752881315324709	73850.22576491031
0.7530067955439299	72341.76861713665
0.7531322966765205	70833.06005984037
0.7532578187259665	69324.1000511174
0.7533833616957542	67814.88854905972
0.75350892558937	66410.52894847159
0.7536345104103016	65010.87755193157
0.7537601161620366	63610.9928801595
0.7538857428480638	62210.874894274115
0.7540113904718717	60810.523555392894
0.7541370590369503	59409.93882462217
0.7542627485467898	58009.1206630621
0.7543884590048808	56624.51303612431
0.7545141904147151	55403.65611558679
0.7546399427797842	54182.59571889782
0.7547657161035808	52961.33181214254
0.754891510389598	51739.86436140287
0.7550173256413296	50518.19333275425
0.7551431618622698	49296.318692267814
0.7552690190559135	48074.240406008226
0.7553948972257561	46878.516945877294
0.7555207963752938	45771.74110381968
0.755646716508023	44664.78079912236
0.755772657627441	43557.63600104054
0.7558986197370455	42450.30667882554
0.756024602840335	41342.792801723794
0.7561506069408084	40235.09433897587
0.7562766320419653	39127.21125981649
0.7564026781473054	38058.01907977406
0.75652874526033	37057.05929082844
0.7566548333845401	36055.932675250806
0.7567809425234375	35054.6392052376
0.7569070726805247	34053.17885297997
0.7570332238593047	33051.55159066376
0.7571593960632813	32049.757390469542
0.7572855892959586	31047.79622457524
0.7574118035608413	30135.142993084384
0.7575380388614347	29309.873894766686
0.7576642952012449	28484.467251598955
0.7577905725837782	27658.923040658556
0.7579168710125422	26833.24123901486
0.7580431904910444	26007.421823737248
0.7581695310227928	25181.464771891468
0.7582958926112967	24355.370060536006
0.7584222752600652	23610.583036970194
0.7585486789726085	22912.459139141793
0.7586751037524372	22214.21888733015
0.7588015496030628	21515.862262141844
0.7589280165279966	20817.389244184054
0.7590545045307512	20118.79981405661
0.7591810136148396	19420.093952357485
0.7593075437837755	18721.271639680388
0.7594340950410726	18115.901338567262
0.7595606673902461	17537.57778098395
0.7596872608348112	16959.157836140457
0.7598138753782836	16380.641487973466
0.75994051102418	15802.028720414572
0.7600671677760173	15223.319517394868
0.7601938456373134	14644.513862840886
0.7603205446115863	14065.611740678138
0.7604472647023548	13580.699653927031
0.7605740059131385	13105.058937253898
0.7607007682474575	12629.33894712752
0.7608275517088319	12153.539670337179
0.7609543563007835	11677.661093666318
0.7610811820268336	11201.703203899631
0.7612080288905045	10725.665987818897
0.7613348968953197	10253.131154244838
0.7614617860448022	9854.00659260224
0.7615886963424764	9454.815510198825
0.7617156277918667	9055.557895948728
0.7618425803964988	8656.233738762596
0.7619695541598982	8256.84302755037
0.7620965490855914	7857.385751219905
0.7622235651771058	7457.861898676256
0.7623506024379685	7076.368125235035
0.7624776608717082	6774.130433786847
0.7626047404818536	6471.842369390071
0.7627318412719337	6169.503923649748
0.762858963245479	5867.115088168278
0.7629861064060198	5564.675854547534
0.7631132707570876	5262.186214387539
0.7632404563022137	4959.6461592877895
0.7633676630449308	4676.191084551189
0.7634948909887717	4433.421688465445
0.7636221401372697	4190.611830814003
0.7637494104939593	3947.761504852723
0.7638767020623748	3704.870703837467
0.7640040148460518	3461.9394210217642
0.7641313488485262	3218.9676496589354
0.7642587040733344	2975.9553830006034
0.7643860805240132	2752.883467567478
0.7645134782041005	2553.617521106268
0.7646408971171346	2354.3183636538984
0.764768337266654	2154.985989675359
0.7648957986561985	1955.6203936344264
0.7650232812893079	1756.2215699941796
0.7651507851695227	1556.7895132166575
0.7652783103003843	1357.3242177630304
0.7654058566854343	1193.3989290434408
0.7655334243282153	1053.6904201064563
