#wavelength	surface flux
0.6450077295303345	5768.389418443621
0.6472567915916443	9302.201667646477
0.6494921445846558	12657.963752486454
0.6517150402069092	15254.599400538396
0.6539263725280762	18125.77565712589
0.6561272740364075	21345.467439753913
0.6583186388015747	24937.10413767891
0.6605015397071838	28919.36030881875
0.6626768708229065	33249.60152025895
0.6648455858230591	37781.73028385485
0.6670085787773132	41038.962388130305
0.6691668033599854	39817.437205942195
0.6713210344314575	40520.963629017446
0.6734722256660461	51434.616443086445
0.6756211519241333	63839.45155599924
0.6777685880661011	71411.53650395702
0.6799154281616211	77491.91211873294
0.6820623278617859	83058.9594403018
0.6842101216316223	88092.676132358
0.6863595843315125	92438.28922255
0.688511312007904	95749.69121284591
0.6906660795211792	97256.12651706657
0.6928245425224304	97398.63114430584
0.6949873566627502	98249.5525619979
0.6971551775932312	99323.05643279033
0.6993286609649658	98439.24697494798
0.7015084028244019	95801.63105578124
0.7036949396133423	92501.39784947
0.7058889269828796	88729.24818504839
0.7080909013748169	84336.71835787663
0.710301399230957	79313.21866073305
0.712520956993103	73696.17160666616
0.7147500514984131	66983.66122106672
0.7169892191886902	59402.50784864282
0.7192389369010925	53052.349448915214
0.7214996814727783	48023.48164931801
0.723771870136261	42708.791117190216
0.7260559797286987	37378.54545854331
0.7283523678779602	32714.765832442696
0.7306615710258484	28602.284729723513
0.7329838871955872	25018.198481118845
0.7353196740150452	21815.936989162776
0.7376693487167358	18732.190221788544
0.7400332689285278	15912.873117850555
0.7424117922782898	13445.687218843592
0.7448052167892456	11319.012998413446
0.7472138404846191	9490.651551787514
0.7496379613876343	7915.998479052444
0.7520779371261597	6571.454687822148
0.7545340061187744	5415.1229137862065
0.7570064663887024	4384.4843162851475
0.7594954967498779	3410.7814461106955
0.7620013952255249	2436.358798364525
0.7645244002342224	1469.2654715077722
0.7670646905899048	823.8116685104523
0.7696225643157959	901.6025626253006
0.7721980810165405	1825.4981833680379
0.7747915983200073	3300.773600898392
0.7774031162261963	4747.971262148985
0.7800329327583313	6302.722323782573
0.7826811671257019	8835.828211242753
0.7853479981422424	12206.750361013805
0.7880334854125977	15976.096141763634
0.7907378077507019	19561.267572823035
0.7934610247612	22189.27372443347
0.7962033748626709	28383.396160373726
0.7989648580551147	40447.930353199714
0.801745593547821	53759.061700892365
0.8045456409454346	67441.14592552929
0.8073651194572449	82707.41654951102
0.8102040886878967	99067.9104694252
0.8130625486373901	117782.53501965961
0.8159406185150146	142467.06464963197
0.8188382983207703	173398.00604933832
0.8217556476593018	207083.0971444023
0.8246926665306091	246655.00048411143
0.8276493549346924	293552.87358370685
0.8306257724761963	343777.80007047346
0.8336219191551208	399388.01962964056
0.8366377949714661	462789.212229327
0.8396733403205872	534898.1000609675
0.8427285552024841	617406.6189053173
0.8458034992218018	704278.2418751279
0.8488980531692505	752344.7738642818
0.8520121574401855	786842.2038270694
0.8551458716392517	941302.9021460082
0.8582990765571594	1141147.402437816
0.8614717125892639	1247529.4053650536
0.8646637797355652	1340711.5380212294
0.8678751587867737	1488172.6058451622
0.8711057901382446	1654766.1509705605
0.8743556141853333	1822730.1641559447
0.87762451171875	1968987.134392557
0.8809124231338501	2020565.4754816343
0.8842192888259888	2007736.5172169015
0.8875449895858765	2007770.6299213897
0.8908893465995789	1916511.1416612794
0.894252359867096	1816984.7244791987
0.8976338505744934	2168163.4066759897
0.9010337591171265	2918011.888729822
0.9044519662857056	3624716.3486250006
0.9078882932662964	4077643.437035714
0.9113426208496094	4288149.968182733
0.914814829826355	4414721.915898758
0.9183048605918884	4654143.552678582
0.9218124747276306	4841459.838520721
0.925337553024292	4153207.4619812635
0.9288799166679382	2769134.0814675996
0.9324395060539246	2109790.293183364
0.9360161423683167	2503831.346760977
0.9396095871925354	3234402.4210807243
0.943219780921936	3643987.161207711
0.9468464851379395	3657134.831361181
0.9504896402359009	3646355.153048644
0.9541489481925964	3619304.8388172155
0.9578243494033813	3524279.97219496
0.9615156054496765	3655285.650734018
0.9652225375175476	4240973.594077499
0.9689450263977051	5019357.468861106
0.9726828336715698	5575150.958620836
0.9764357805252075	6029722.1635903455
0.9802037477493286	6530436.1300216885
0.983986496925354	6990149.164494687
0.9877838492393494	7585301.840003031
0.9915955662727356	8362355.757507267
0.9954215884208679	8960257.298357207
0.9992615580558777	9214253.064443266
1.0031154155731201	9789938.886040157
1.0069829225540161	10937981.177241711
1.0108637809753418	12259807.88917073
1.0147579908370972	13692241.07810026
1.018665075302124	15153240.240567999
1.022585153579712	16493538.393608887
1.0265177488327026	17732285.26049952
1.0304628610610962	19052067.414536238
1.0344202518463135	20547178.93383816
1.0383895635604858	22061872.858999457
1.0423706769943237	23379472.82388748
1.0463634729385376	24453739.987821564
1.0503677129745483	25365358.30255921
1.0543830394744873	26266803.957101543
1.058409333229065	27144480.134597782
1.0624464750289917	28003313.480138708
1.0664942264556885	28782037.820175663
1.0705522298812866	29420912.015919063
1.0746204853057861	30184878.82143274
1.0786986351013184	30856916.91186852
1.0827864408493042	30660218.865263604
1.086883783340454	28038227.78597393
1.0909905433654785	22292559.867184788
1.0951062440872192	15824540.874067238
1.0992310047149658	11084984.058398765
1.10336434841156	7868852.232312182
1.1075061559677124	5533444.537682983
1.1116561889648438	3943053.7820423506
1.115814208984375	3142550.2095058067
1.1199802160263062	3075914.8023864534
1.124153733253479	3433912.3017056035
1.1283347606658936	3633641.254416188
1.1325229406356812	3145347.4200870073
1.1367181539535522	3130965.1964054205
1.1409201622009277	3945132.3044923553
1.145128846168518	4374533.090374998
1.1493438482284546	4282431.269967503
1.1535650491714478	3869368.0090823076
1.1577922105789185	3529169.982317925
1.1620250940322876	3448583.681749117
1.1662636995315552	3541828.449891139
1.170507550239563	4152317.1350124986
1.174756646156311	5085200.223704383
1.1790107488632202	6377110.162991974
1.1832695007324219	8276432.046218735
1.1875330209732056	10250038.64261461
1.191800832748413	12471407.643514775
1.1960728168487549	15154419.655747868
1.2003488540649414	17739122.77904724
1.2046287059783936	20323038.623504337
1.2089121341705322	22723940.912217487
1.2131990194320679	24849386.88494758
1.2174891233444214	27112157.775033865
1.2217823266983032	29347598.54535255
1.2260783910751343	31697891.594508078
1.230377197265625	34126689.753446236
1.2346785068511963	36029564.836716875
1.238982081413269	36410830.958653785
1.2432878017425537	35774840.619144134
1.2475954294204712	35418593.68656842
1.2519049644470215	34982889.88309331
1.256216049194336	38167589.287578605
1.2605286836624146	43406739.70005111
1.2648425102233887	44819753.0721024
1.2691574096679688	43824007.193046495
1.2734732627868652	42266718.61456112
1.2777899503707886	40541629.7814399
1.2821072340011597	38056190.97810911
1.2864248752593994	34553698.79935292
1.2907428741455078	31787644.243134677
1.2950609922409058	30601769.537294947
1.2993791103363037	29568907.916449398
1.303696870803833	28130359.32618841
1.3080145120620728	26498249.119178943
1.3123314380645752	23963437.77360899
1.3166478872299194	21518400.102500312
1.3209635019302368	19661170.947503917
1.3252781629562378	16148404.551546212
1.3295916318893433	10298220.285283111
1.3339040279388428	4758396.655903798
1.3382149934768677	1866090.075984209
1.3425244092941284	930357.7148426647
1.3468321561813354	581597.6373597074
1.3511382341384888	394979.3456399851
1.3554422855377197	282392.542262891
1.3597444295883179	260534.48637917958
1.3640443086624146	333159.0134790766
1.3683418035507202	402596.6841971157
1.3726370334625244	473258.9276266782
1.3769296407699585	590549.9738285404
1.381219506263733	595201.7415911024
1.3855066299438477	517822.7284434881
1.3897908926010132	501402.5396191308
1.3940720558166504	490202.38424455776
1.3983501195907593	477153.10572595574
1.4026249647140503	495963.43632280116
1.4068963527679443	496829.16679475433
1.4111642837524414	490312.68055370566
1.4154287576675415	514087.35373304324
1.419689416885376	520010.9795229431
1.4239463806152344	549580.1389191336
1.4281994104385376	684617.6160488483
1.4324485063552856	822749.5411482354
1.436693549156189	891457.6880717668
1.440934419631958	975963.6856969208
1.4451709985733032	1147317.688649465
1.449403166770935	1497796.3368943327
1.453631043434143	1901359.3030299852
1.4578542709350586	2165711.4137767875
1.4620729684829712	2252872.4450651957
1.4662868976593018	2196680.468384411
1.4704961776733398	2099129.766408693
1.4747005701065063	2158663.5575435176
1.4788999557495117	2379972.619716182
1.4830944538116455	2549734.7026741267
1.4872838258743286	2698094.596292559
1.491468071937561	2916614.153097424
1.4956470727920532	3243909.5120199146
1.4998208284378052	3671441.087707639
1.5039892196655273	4038352.450952787
1.5081522464752197	4336662.440859131
1.5123097896575928	4656111.242988001
1.5164618492126465	5054436.072758096
1.5206083059310913	5754134.008525237
1.5247491598129272	6622404.855634291
1.5288842916488647	7423847.06143354
1.5330137014389038	8245990.7340121325
1.5371372699737549	8974361.178270778
1.541254997253418	9627441.545826863
1.545366883277893	10544916.5021083
1.5494728088378906	11425271.232818555
1.5535727739334106	11974577.92045276
1.5576666593551636	12816532.817359392
1.561754584312439	14479482.10664382
1.5658363103866577	16345156.092968842
1.5699119567871094	17339683.67758966
1.5739814043045044	17702877.297658306
1.5780447721481323	18265397.23613067
1.582101821899414	18828445.818439722
1.5861525535583496	18862976.458986383
1.5901970863342285	18285298.14313275
1.5942351818084717	17457995.572085544
1.5982669591903687	16478073.762921963
1.6022924184799194	14999068.945080634
1.606311559677124	13307383.205175221
1.6103241443634033	11820830.338166796
1.6143304109573364	10212329.722789139
1.6183301210403442	8717982.85323741
1.6223233938217163	8120356.213145117
1.6263102293014526	8216993.889226398
1.6302905082702637	8549334.071489463
1.634264349937439	9425875.222745111
1.638231635093689	10849614.947646905
1.6421923637390137	11399981.836359216
1.646146535873413	10467214.124070713
1.6500942707061768	10117751.868415939
1.6540353298187256	9952600.494933661
1.6579699516296387	9316270.029298382
1.661897897720337	9003043.75224551
1.6658192873001099	6113991.7011833405
1.6697341203689575	2996066.984333088
1.6736423969268799	3894955.1488289637
1.677544116973877	5607307.907429074
1.6814392805099487	5667440.70348816
1.6853278875350952	5094818.168342656
1.6892099380493164	4456775.2657107655
1.6930854320526123	3711523.494161889
1.696954369544983	3062734.6716283998
1.7008168697357178	2685466.551802564
1.7046726942062378	2771893.718718324
1.708522081375122	3397513.08789993
1.712364912033081	4030262.9840705446
1.7162011861801147	4509360.060970374
1.7200311422348022	4858479.591621639
1.723854422569275	4642338.473174653
1.7276713848114014	4279657.323511486
1.731481909751892	4105650.642941888
1.7352858781814575	4046240.373833333
1.7390835285186768	4255056.634140387
1.7428747415542603	4547813.548438324
1.7466596364974976	4683431.008156942
1.7504380941390991	4567466.137834259
1.7542102336883545	4072053.5995043176
1.7579760551452637	3547192.134857484
1.7617355585098267	3313725.13702531
1.7654887437820435	3105239.1811381765
1.7692357301712036	2785236.971140318
1.7729763984680176	2492928.151144834
1.776710867881775	2407675.49282711
1.7804391384124756	2438797.556232912
1.7841613292694092	2236928.674770187
1.7878772020339966	1966410.9190327611
1.7915871143341064	1694641.3588799778
1.7952908277511597	1551402.3757144832
1.7989884614944458	1609375.809113141
1.8026801347732544	1421107.8907472857
1.806365728378296	1272011.7430740856
1.8100452423095703	1363750.3069415023
1.8137187957763672	1451943.529458313
1.817386507987976	1357474.5772303848
1.8210482597351074	1383266.3437792421
1.8247040510177612	1621030.4582894042
1.828354001045227	1463076.797739089
1.8319982290267944	1140795.6775798418
1.8356364965438843	992991.0931359195
1.8392690420150757	993786.3922882408
1.8428958654403687	1195575.127929102
1.8465168476104736	1260971.116665078
1.8501322269439697	1209876.5562244765
1.8537418842315674	1185686.8448002932
1.8573459386825562	1007151.6190910325
1.860944390296936	808983.9375624248
1.864537239074707	712276.5963070455
1.8681244850158691	653486.6399388383
1.871706247329712	718403.8216536382
1.8752825260162354	1038874.4299096512
1.8788533210754395	1571543.189765394
1.8824186325073242	1956346.5209683585
1.8859784603118896	2002190.238076413
1.8895330429077148	1979213.595907571
1.8930821418762207	2221922.8427954223
1.8966259956359863	2398693.714045611
1.9001644849777222	2056405.783704574
1.9036977291107178	1761991.4676601156
1.9072256088256836	1869472.7400996657
1.9107483625411987	1827623.231155413
1.9142658710479736	1650794.268216172
1.9177782535552979	1709471.3701977502
1.9212853908538818	1667001.576261127
1.9247875213623047	1448476.5912239398
1.9282845258712769	1241399.3426248024
1.9317764043807983	1078946.6546839492
1.9352631568908691	977669.5253277429
1.9387450218200684	887867.5651325402
1.942221760749817	974033.5379644241
1.9456936120986938	1132078.295684833
1.9491604566574097	1185686.125195267
1.952622413635254	1180082.262728108
1.956079363822937	1164931.005943263
1.959531545639038	1252805.389233209
1.962978720664978	1380960.7941648206
1.966421127319336	1539042.2887769307
1.9698586463928223	1642539.5809445626
1.9732913970947266	1645371.0776140683
1.9767193794250488	1776660.3329958995
1.9801424741744995	1913244.2587787153
1.9835609197616577	2057584.69736354
1.9869745969772339	2259920.419457465
1.990383505821228	2390380.276537749
1.9937876462936401	2728628.5955496286
1.9971871376037598	3082308.224590505
2.000581979751587	3269419.2097810395
2.003972291946411	3402299.27808767
2.007357597351074	3417305.9597020587
2.0107386112213135	3602601.098618729
2.0141148567199707	3793003.614600193
2.017486572265625	3732560.164297532
2.0208535194396973	4083589.548815865
2.0242159366607666	4670726.9320946075
2.027573823928833	4754608.612713164
2.0309269428253174	4894454.429036445
2.034275770187378	5399052.996730162
2.0376198291778564	5684402.212842999
2.040959596633911	5722918.9050260885
2.044294595718384	6125437.649466259
2.0476250648498535	6749323.563628492
2.0509510040283203	6884688.192155964
2.054272413253784	6951058.231194911
2.057589530944824	7495235.925154585
2.0609018802642822	7820242.386471297
2.0642096996307373	7876153.2757908
2.0675129890441895	8105209.920693224
2.0708119869232178	8277793.085497154
2.074106216430664	8349745.149687558
2.0773961544036865	8403410.573558178
2.080681324005127	8505466.514232317
2.0839622020721436	8614711.977480736
2.087238311767578	8693319.855494305
2.090510129928589	8793177.943038037
2.0937774181365967	8779598.670888526
2.0970399379730225	8654213.299200965
2.1002981662750244	8449605.513973763
2.1035518646240234	8238588.508211493
2.1068007946014404	8060172.036558959
2.1100454330444336	7880563.893327408
2.1132853031158447	7810553.843602357
2.116520881652832	7619825.837615859
2.1197516918182373	7360794.764723364
2.1229779720306396	7274164.312427655
2.12619948387146	7170749.445064884
2.1294167041778564	6994844.7398031335
2.132629156112671	6884950.938063324
2.1358368396759033	6741462.43849648
2.139039993286133	6366642.12431948
2.1422386169433594	5733017.223364396
2.145432472229004	5146162.537188347
2.1486217975616455	4956884.592409169
2.151806354522705	4924066.613541778
2.1549863815307617	4783401.477467816
2.1581614017486572	4534759.312813024
2.16133189201355	4199405.939601573
2.1644976139068604	3916958.2044643573
2.167658567428589	3682034.4659784962
2.1708147525787354	3527452.368025257
2.173966407775879	3411095.4622071553
2.1771130561828613	3212341.797264762
2.1802549362182617	3023075.271391432
2.183391809463501	2794328.8225940266
2.1865241527557373	2511850.1849043425
2.1896514892578125	2163969.5218934845
2.1927738189697266	1693329.9968093024
2.1958916187286377	1168669.5193070408
2.1990041732788086	701051.2138805138
2.2021119594573975	441931.49523294065
2.2052149772644043	416820.35373812675
2.208312749862671	526764.9923864941
2.2114057540893555	689918.0183366591
2.214493751525879	841396.5720556617
2.217576742172241	938825.2554245684
2.2206547260284424	955795.7429068416
2.2237277030944824	898641.7797190598
2.2267956733703613	800543.1899850701
2.2298583984375	706256.159042819
2.2329163551330566	654981.4558091651
2.235969066619873	623586.7674250025
2.2390167713165283	555290.3323361437
2.2420592308044434	482908.85818273574
2.2450966835021973	432642.47894891957
2.248128890991211	388544.2717115789
2.2511560916900635	363234.07888836187
2.254178285598755	351046.1322081698
2.257194995880127	347402.1590925892
2.260206699371338	353097.9437787211
2.2632133960723877	365261.36069966736
2.266214609146118	377474.83679537365
2.2692108154296875	380642.85284992645
2.2722020149230957	379148.7275717744
2.2751877307891846	367944.14713872736
2.278168201446533	360752.01420955366
2.2811436653137207	344432.62661373615
2.284113883972168	296359.01306754
2.287078857421875	258869.99131648906
2.290038824081421	236546.07300341877
2.2929933071136475	218425.01077018754
2.295942783355713	223878.0433989838
2.298887014389038	259469.42949651147
2.301826238632202	303898.77531981235
2.304760217666626	375684.1660060075
2.3076889514923096	543417.8488562807
2.310612440109253	773246.8675524445
2.3135311603546143	826787.6800041273
2.3164443969726562	540849.022739318
2.319352865219116	237828.66198877495
2.322256088256836	171065.88761342413
2.3251543045043945	180583.41903253624
2.328047275543213	185107.08937726458
2.330935478210449	205031.36774421885
2.3338186740875244	229355.18499727445
2.3366971015930176	248526.68910042246
2.3395702838897705	263092.1235288404
2.3424389362335205	265928.6433219453
2.3453025817871094	248011.38331470214
2.348161458969116	240234.87531078
2.351015567779541	261917.52525455144
2.353865146636963	291582.7331259582
2.3567099571228027	327805.0566050735
2.3595502376556396	390351.76137699187
2.3623859882354736	461308.2041890208
2.3652172088623047	494116.59884243255
2.368043899536133	434552.49429609143
2.370866537094116	285717.7120207105
2.3736846446990967	206534.49890050423
2.3764986991882324	233253.41753994144
2.3793084621429443	247489.15752559155
2.3821144104003906	238715.76063044328
2.384916305541992	280670.1163264821
2.387714147567749	373867.78828462
2.3905084133148193	417509.5358451869
2.393299102783203	408629.39905186166
2.3960859775543213	426766.4698171675
2.398869514465332	493045.6183028226
2.4016497135162354	573624.7028015817
2.4044265747070312	636620.3498908557
2.407200336456299	657275.2375626133
2.409970998764038	703647.3609676607
2.4127390384674072	786739.7916604655
2.415503978729248	761179.215762343
2.418266534805298	687178.2613811629
2.4210267066955566	673801.0183337936
2.4237842559814453	626991.775864009
2.426539897918701	595190.1049896042
2.429293394088745	693954.1906257592
2.4320452213287354	796810.6384064228
2.4347951412200928	782339.2242097027
2.4375438690185547	837111.2673042403
2.440291166305542	975311.0463833299
2.443037271499634	984546.002174211
2.445782423019409	926750.7133063374
2.4485268592834473	919181.3086633931
2.451270818710327	927649.63842425
2.454014539718628	971319.5269236221
2.4567582607269287	1092918.9558231137
2.4595019817352295	1165985.4434649562
2.4622461795806885	1249793.4764457606
2.4649908542633057	1370538.8768044664
2.4677364826202393	1275362.0917018005
2.4704833030700684	1105338.5185525806
2.473231554031372	1054678.440952147
2.4759814739227295	1104975.3668291252
2.4787333011627197	1166178.6919755668
2.481487512588501	1190555.1029128402
