#wavelength	surface flux
0.6450077295303345	88545.83712679216
0.6472567915916443	141738.24477000276
0.6494921445846558	190396.3417454623
0.6517150402069092	226155.82170726548
0.6539263725280762	264852.17873622774
0.6561272740364075	307473.77859742555
0.6583186388015747	353965.63342267286
0.6605015397071838	403455.84492559294
0.6626768708229065	453327.77150476654
0.6648455858230591	495136.51469473384
0.6670085787773132	494470.3883972895
0.6691668033599854	410653.6398178558
0.6713210344314575	373438.7116990388
0.6734722256660461	530631.7486840733
0.6756211519241333	739605.0680686046
0.6777685880661011	867864.2886711847
0.6799154281616211	954265.4499326403
0.6820623278617859	1028206.0107485745
0.6842101216316223	1093569.0029489193
0.6863595843315125	1148342.3216045923
0.688511312007904	1188090.9012168702
0.6906660795211792	1202794.7095408018
0.6928245425224304	1201064.0014530004
0.6949873566627502	1215016.5799379963
0.6971551775932312	1239271.9491984074
0.6993286609649658	1239629.43384403
0.7015084028244019	1217694.6989413113
0.7036949396133423	1184749.3932409848
0.7058889269828796	1138290.6435187452
0.7080909013748169	1084432.5251296174
0.710301399230957	1028740.2447264285
0.712520956993103	968026.4270458756
0.7147500514984131	896444.6602886702
0.7169892191886902	818324.375336596
0.7192389369010925	751456.913595702
0.7214996814727783	692369.9841246171
0.723771870136261	627005.0458004858
0.7260559797286987	559724.2388089141
0.7283523678779602	497479.9042693923
0.7306615710258484	439294.0376764211
0.7329838871955872	384979.327895407
0.7353196740150452	334362.7386137923
0.7376693487167358	285509.6644755801
0.7400332689285278	239764.06562235346
0.7424117922782898	198158.51111654352
0.7448052167892456	160930.85860089381
0.7472138404846191	127835.02450095274
0.7496379613876343	98555.51169322748
0.7520779371261597	73264.4112889062
0.7545340061187744	52107.715191117706
0.7570064663887024	35034.728736414865
0.7594954967498779	21877.011918651304
0.7620013952255249	12263.275185854489
0.7645244002342224	5773.9314120719155
0.7670646905899048	2550.6011083232943
0.7696225643157959	2843.0935977798317
0.7721980810165405	7356.085111222826
0.7747915983200073	16647.372778173743
0.7774031162261963	28798.972348862175
0.7800329327583313	46487.14985519974
0.7826811671257019	78976.76590970933
0.7853479981422424	124567.19528353312
0.7880334854125977	177480.13679166316
0.7907378077507019	227137.50071128123
0.7934610247612	261025.6614202546
0.7962033748626709	340323.3006899841
0.7989648580551147	494476.89635441924
0.801745593547821	657286.8391704427
0.8045456409454346	814773.6398221307
0.8073651194572449	984663.4786650505
0.8102040886878967	1166018.2825187142
0.8130625486373901	1369616.3829535062
0.8159406185150146	1601741.6007737773
0.8188382983207703	1864667.78181052
0.8217556476593018	2197611.0874935887
0.8246926665306091	2604439.3387197317
0.8276493549346924	3036850.7387683503
0.8306257724761963	3485592.8566911835
0.8336219191551208	3973574.4145414303
0.8366377949714661	4508332.520248673
0.8396733403205872	5091714.039854692
0.8427285552024841	5716646.141565627
0.8458034992218018	6314726.463421066
0.8488980531692505	6515047.063624155
0.8520121574401855	6575726.508508342
0.8551458716392517	7720342.242493559
0.8582990765571594	8984101.690611405
0.8614717125892639	8602812.8403381
0.8646637797355652	7946191.725144285
0.8678751587867737	8352052.447196166
0.8711057901382446	8976305.295613224
0.8743556141853333	9683460.76662997
0.87762451171875	10685149.051815014
0.8809124231338501	11644869.342547769
0.8842192888259888	12659186.306432333
0.8875449895858765	13521155.98615943
0.8908893465995789	13310245.176248036
0.894252359867096	12865393.78863086
0.8976338505744934	15050615.458931088
0.9010337591171265	19086898.987598713
0.9044519662857056	22528376.854907937
0.9078882932662964	25132047.514431458
0.9113426208496094	27128467.419959053
0.914814829826355	28842836.27880741
0.9183048605918884	30507605.11832213
0.9218124747276306	30913198.415954642
0.925337553024292	27282354.76965751
0.9288799166679382	21369078.173282456
0.9324395060539246	19121330.36350762
0.9360161423683167	21232799.407015454
0.9396095871925354	24604050.0475391
0.943219780921936	27153633.49898558
0.9468464851379395	28292977.363937825
0.9504896402359009	28841133.2915543
0.9541489481925964	28889268.20050887
0.9578243494033813	28394049.197733685
0.9615156054496765	28665778.481501065
0.9652225375175476	30691901.371629957
0.9689450263977051	33464400.715246607
0.9726828336715698	35597478.403418705
0.9764357805252075	37708197.65092311
0.9802037477493286	40258706.94677546
0.983986496925354	42837231.591600694
0.9877838492393494	44709771.09473591
0.9915955662727356	44459408.24753041
0.9954215884208679	42085823.96767559
0.9992615580558777	36887388.739589326
1.0031154155731201	32971450.897344198
1.0069829225540161	34384581.83996972
1.0108637809753418	38674117.1484186
1.0147579908370972	44418246.756579645
1.018665075302124	50913549.060624756
1.022585153579712	56470865.851976216
1.0265177488327026	60362749.38657996
1.0304628610610962	65151416.92282567
1.0344202518463135	72036519.43504879
1.0383895635604858	78560995.09031245
1.0423706769943237	82813668.67878102
1.0463634729385376	84565227.37371704
1.0503677129745483	84261201.46860433
1.0543830394744873	83992182.78280161
1.058409333229065	85593471.19596708
1.0624464750289917	89363203.3452869
1.0664942264556885	94563653.58162704
1.0705522298812866	100381552.75250746
1.0746204853057861	107021131.4918962
1.0786986351013184	113378871.28304733
1.0827864408493042	116830363.55065921
1.086883783340454	112038301.14362338
1.0909905433654785	96190161.59722397
1.0951062440872192	76777555.33015744
1.0992310047149658	61944181.34457708
1.10336434841156	50638084.601029135
1.1075061559677124	40791008.158552855
1.1116561889648438	33524000.05045943
1.115814208984375	30016680.90359903
1.1199802160263062	29827313.93594026
1.124153733253479	32233692.7816277
1.1283347606658936	33494047.447180405
1.1325229406356812	28915394.65505635
1.1367181539535522	25378986.49373696
1.1409201622009277	28222675.223825797
1.145128846168518	33171097.820707947
1.1493438482284546	36388143.26910937
1.1535650491714478	36310890.52042149
1.1577922105789185	35642223.39281909
1.1620250940322876	34982247.43511566
1.1662636995315552	32724492.46113078
1.170507550239563	31412578.61994615
1.174756646156311	31116959.456579003
1.1790107488632202	32873315.461955376
1.1832695007324219	40023004.807400234
1.1875330209732056	49108989.33003338
1.191800832748413	57484223.13295591
1.1960728168487549	65470155.435977615
1.2003488540649414	72718352.32333371
1.2046287059783936	80783219.88752371
1.2089121341705322	88921005.36411601
1.2131990194320679	96517099.96881548
1.2174891233444214	104440490.90264036
1.2217823266983032	112182685.18190391
1.2260783910751343	120732512.80028479
1.230377197265625	128940082.892745
1.2346785068511963	133912965.90743433
1.238982081413269	130934128.22576962
1.2432878017425537	123251249.30212198
1.2475954294204712	119507065.8843721
1.2519049644470215	117019726.65023233
1.256216049194336	128673658.91751263
1.2605286836624146	148744642.4931298
1.2648425102233887	155593349.10513833
1.2691574096679688	156098009.44711396
1.2734732627868652	155440950.09416753
1.2777899503707886	154565040.55801436
1.2821072340011597	151617565.42259014
1.2864248752593994	143992982.50989786
1.2907428741455078	137982182.5661229
1.2950609922409058	136853807.24728042
1.2993791103363037	135057026.94154152
1.303696870803833	130922349.34298988
1.3080145120620728	124850824.83079602
1.3123314380645752	116191969.09780651
1.3166478872299194	107505069.07996179
1.3209635019302368	98715074.0837707
1.3252781629562378	83783284.2462029
1.3295916318893433	58046422.16595083
1.3339040279388428	30458690.52867617
1.3382149934768677	14598540.392025322
1.3425244092941284	9351495.520218527
1.3468321561813354	7249392.214607535
1.3511382341384888	5809364.246760741
1.3554422855377197	4919528.110618605
1.3597444295883179	4902669.204617629
1.3640443086624146	5707476.7639800375
1.3683418035507202	6262487.240362806
1.3726370334625244	6464896.742180451
1.3769296407699585	7122682.829613877
1.381219506263733	7417494.522325061
1.3855066299438477	7230632.91443628
1.3897908926010132	7155530.8407775555
1.3940720558166504	6854329.223539205
1.3983501195907593	6562219.753343202
1.4026249647140503	6578431.248272552
1.4068963527679443	6301513.7361927945
1.4111642837524414	5929333.272980528
1.4154287576675415	6010434.188797564
1.419689416885376	5959211.189023178
1.4239463806152344	5814355.8846811075
1.4281994104385376	6239695.312562906
1.4324485063552856	6953911.402947734
1.436693549156189	7500315.780303791
1.440934419631958	7919872.097903791
1.4451709985733032	8544855.228460837
1.449403166770935	10099538.891732955
1.453631043434143	12100403.405954152
1.4578542709350586	13408721.191521544
1.4620729684829712	13814833.241683189
1.4662868976593018	13783233.35658885
1.4704961776733398	13865611.806215355
1.4747005701065063	14594789.3912691
1.4788999557495117	15716584.01593161
1.4830944538116455	16532035.625881424
1.4872838258743286	17404869.291048534
1.491468071937561	18397541.73942482
1.4956470727920532	19385170.900982596
1.4998208284378052	20595966.332619537
1.5039892196655273	22062019.891977686
1.5081522464752197	24091179.722626
1.5123097896575928	26538011.804158513
1.5164618492126465	28211698.985171497
1.5206083059310913	29532660.48076734
1.5247491598129272	31181656.63324362
1.5288842916488647	32987449.426412947
1.5330137014389038	35220350.788646325
1.5371372699737549	37147635.80165543
1.541254997253418	38794632.69696549
1.545366883277893	41327290.95226125
1.5494728088378906	43601512.678311996
1.5535727739334106	44250075.92210078
1.5576666593551636	44956355.211150505
1.561754584312439	48436768.75303108
1.5658363103866577	53586926.7013465
1.5699119567871094	56887526.52909603
1.5739814043045044	58508344.30311837
1.5780447721481323	59913972.17243816
1.582101821899414	61571152.95486331
1.5861525535583496	63250101.53541591
1.5901970863342285	63867488.87790648
1.5942351818084717	64004540.064080335
1.5982669591903687	63808823.50069238
1.6022924184799194	61889608.2273933
1.606311559677124	59214421.365401216
1.6103241443634033	57438478.48591969
1.6143304109573364	55429927.30368096
1.6183301210403442	53303474.31776233
1.6223233938217163	53657548.30489933
1.6263102293014526	55847864.54127739
1.6302905082702637	57961900.16635466
1.634264349937439	61251704.59175911
1.638231635093689	65813722.46011717
1.6421923637390137	67466234.21292722
1.646146535873413	65484930.94705794
1.6500942707061768	64988166.63860585
1.6540353298187256	63343554.95711378
1.6579699516296387	60451138.72625567
1.661897897720337	57836653.690741904
1.6658192873001099	42698648.07725222
1.6697341203689575	28851503.055126496
1.6736423969268799	36799839.48821396
1.677544116973877	48461783.70287574
1.6814392805099487	49936542.62324252
1.6853278875350952	46559110.77204349
1.6892099380493164	42100714.59591341
1.6930854320526123	37333804.76543178
1.696954369544983	33042518.43755086
1.7008168697357178	30720098.458032947
1.7046726942062378	30798460.709555384
1.708522081375122	32411009.267517664
1.712364912033081	33102313.442445602
1.7162011861801147	32707012.15787303
1.7200311422348022	32682016.51374621
1.723854422569275	31445868.444632933
1.7276713848114014	29178552.216672294
1.731481909751892	27174582.95567057
1.7352858781814575	26030343.440277
1.7390835285186768	26295504.045164168
1.7428747415542603	26847286.044081207
1.7466596364974976	26506330.3778307
1.7504380941390991	25456472.421312
1.7542102336883545	23665462.591545455
1.7579760551452637	21893742.20690846
1.7617355585098267	20923585.105662107
1.7654887437820435	19612314.656036846
1.7692357301712036	17682197.926325377
1.7729763984680176	16230756.19060618
1.776710867881775	15768386.08631672
1.7804391384124756	15721191.9718308
1.7841613292694092	14747288.936321707
1.7878772020339966	13529302.395309627
1.7915871143341064	12362779.46156494
1.7952908277511597	11801447.4502422
1.7989884614944458	11918725.341359727
1.8026801347732544	11034227.283593135
1.806365728378296	10474197.402674142
1.8100452423095703	10923590.045416545
1.8137187957763672	11600881.248864004
1.817386507987976	11100200.106969431
1.8210482597351074	10571788.853771964
1.8247040510177612	11574091.654690394
1.828354001045227	11661825.790710503
1.8319982290267944	10711324.514600972
1.8356364965438843	10025053.971611349
1.8392690420150757	9897248.702025007
1.8428958654403687	10070639.988408046
1.8465168476104736	9673095.293329433
1.8501322269439697	9399090.884992857
1.8537418842315674	9168130.033916831
1.8573459386825562	7958997.628067679
1.860944390296936	6928787.331327774
1.864537239074707	6901540.666449749
1.8681244850158691	7254816.161493364
1.871706247329712	7898130.979953095
1.8752825260162354	9015535.248580089
1.8788533210754395	10687731.186762169
1.8824186325073242	12379333.379326945
1.8859784603118896	13163161.4336599
1.8895330429077148	13226114.263836414
1.8930821418762207	13789802.737824237
1.8966259956359863	14647618.085081898
1.9001644849777222	14530005.000822488
1.9036977291107178	14095582.828054128
1.9072256088256836	14635780.917077981
1.9107483625411987	14844792.518720666
1.9142658710479736	14494622.0095189
1.9177782535552979	14669383.73861301
1.9212853908538818	14266321.159357214
1.9247875213623047	13485557.52019288
1.9282845258712769	12764896.246062811
1.9317764043807983	11805135.059952488
1.9352631568908691	10795013.374159573
1.9387450218200684	9697533.938617866
1.942221760749817	9827151.97766474
1.9456936120986938	10914761.787076507
1.9491604566574097	11554777.72801528
1.952622413635254	11466106.0447522
1.956079363822937	10912203.675860556
1.959531545639038	11050237.737549124
1.962978720664978	11553155.468498372
1.966421127319336	12230921.872643251
1.9698586463928223	12990764.054458067
1.9732913970947266	12917378.595243545
1.9767193794250488	12882862.866648328
1.9801424741744995	13164014.001715546
1.9835609197616577	13632808.44297589
1.9869745969772339	14226575.55481593
1.990383505821228	14475988.01978844
1.9937876462936401	15495723.02447421
1.9971871376037598	16356755.049198529
2.000581979751587	16817040.14697755
2.003972291946411	17573249.05829546
2.007357597351074	17599392.111596815
2.0107386112213135	18120829.44355281
2.0141148567199707	19335313.824263588
2.017486572265625	19759986.03857948
2.0208535194396973	21142493.501361586
2.0242159366607666	22937078.217913345
2.027573823928833	22701527.358522017
2.0309269428253174	22838473.884199876
2.034275770187378	24577643.589524977
2.0376198291778564	25662151.555120245
2.040959596633911	25772375.193321727
2.044294595718384	26701094.406849153
2.0476250648498535	28360811.15203718
2.0509510040283203	28696045.103595033
2.054272413253784	28745500.045589093
2.057589530944824	30602727.10716573
2.0609018802642822	31523386.827282313
2.0642096996307373	31314436.2230718
2.0675129890441895	32199462.01153577
2.0708119869232178	32691325.012404047
2.074106216430664	32562076.7796593
2.0773961544036865	32737254.362102162
2.080681324005127	33072426.059944652
2.0839622020721436	33267303.30944759
2.087238311767578	33541297.07931071
2.090510129928589	34079243.488699965
2.0937774181365967	34292987.81126292
2.0970399379730225	34164734.6033145
2.1002981662750244	33824215.554906234
2.1035518646240234	33386438.261741377
2.1068007946014404	32883451.6248723
2.1100454330444336	32440378.00343022
2.1132853031158447	32578395.522914037
2.116520881652832	32221513.140775703
2.1197516918182373	31623092.967784166
2.1229779720306396	31797544.76506598
2.12619948387146	31692199.67835971
2.1294167041778564	31042734.94952418
2.132629156112671	30831869.658859894
2.1358368396759033	30534528.93929115
2.139039993286133	29070780.07403613
2.1422386169433594	26956370.623226635
2.145432472229004	25298729.09883919
2.1486217975616455	24733389.085870188
2.151806354522705	24617529.11510462
2.1549863815307617	24331828.089947317
2.1581614017486572	23720233.98816586
2.16133189201355	22784911.02906302
2.1644976139068604	21861374.031575553
2.167658567428589	20864221.646287058
2.1708147525787354	20073183.307861768
2.173966407775879	19227017.23650917
2.1771130561828613	17989726.712647453
2.1802549362182617	16960371.236868497
2.183391809463501	15806732.858480671
2.1865241527557373	14293588.612040248
2.1896514892578125	12703095.09686364
2.1927738189697266	10919824.071800029
2.1958916187286377	8603647.086426254
2.1990041732788086	6088662.137679117
2.2021119594573975	4313430.387549354
2.2052149772644043	3472714.0336650247
2.208312749862671	3523635.9570817063
2.2114057540893555	4406020.413115288
2.214493751525879	5648354.4679339025
2.217576742172241	6590784.976517701
2.2206547260284424	6952082.899689796
2.2237277030944824	6856276.319605628
2.2267956733703613	6416703.992186734
2.2298583984375	5945360.279123054
2.2329163551330566	5635448.303708188
2.235969066619873	5362679.926370289
2.2390167713165283	5011499.116586377
2.2420592308044434	4574241.094975102
2.2450966835021973	4159100.9302645144
2.248128890991211	3931086.135769681
2.2511560916900635	3826422.9246816747
2.254178285598755	3757349.3108501905
2.257194995880127	3725224.4283262473
2.260206699371338	3696831.304776705
2.2632133960723877	3715332.7870911635
2.266214609146118	3673110.5051737153
2.2692108154296875	3572714.9384138803
2.2722020149230957	3530139.4235281534
2.2751877307891846	3482994.0769177275
2.278168201446533	3343279.0107535315
2.2811436653137207	3062130.213019203
2.284113883972168	2720316.670915567
2.287078857421875	2452460.0600816905
2.290038824081421	2211390.3882823996
2.2929933071136475	2029292.2800810717
2.295942783355713	2073225.6129493553
2.298887014389038	2364082.727829369
2.301826238632202	2714808.257541496
2.304760217666626	3194029.1231818274
2.3076889514923096	4115544.430097487
2.310612440109253	5108957.50140825
2.3135311603546143	5208969.229610244
2.3164443969726562	3897075.96829724
2.319352865219116	2423858.6298389193
2.322256088256836	1882420.1260956884
2.3251543045043945	1693712.6550446977
2.328047275543213	1622867.4993536517
2.330935478210449	1759315.1754311393
2.3338186740875244	1941219.049120059
2.3366971015930176	2107715.2316660206
2.3395702838897705	2252150.5704464857
2.3424389362335205	2293587.284821349
2.3453025817871094	2218575.6820370136
2.348161458969116	2197731.328467266
2.351015567779541	2332287.271181174
2.353865146636963	2558038.059362349
2.3567099571228027	2800443.4402885376
2.3595502376556396	3051487.2208503834
2.3623859882354736	3338267.3154962794
2.3652172088623047	3643845.657776294
2.368043899536133	3545134.796365138
2.370866537094116	2719335.009797972
2.3736846446990967	2142006.1374769625
2.3764986991882324	2156258.7664523707
2.3793084621429443	2042613.5343647879
2.3821144104003906	1862463.392590432
2.384916305541992	2083169.4900628398
2.387714147567749	2662407.5870948564
2.3905084133148193	2968486.1272541136
2.393299102783203	2995068.8849473773
2.3960859775543213	3199272.044748057
2.398869514465332	3529378.766011636
2.4016497135162354	3841804.7070231726
2.4044265747070312	4222655.846529492
2.407200336456299	4439879.378075471
2.409970998764038	4503993.2464629635
2.4127390384674072	4697051.231300432
2.415503978729248	4748062.078168936
2.418266534805298	4650441.58107106
2.4210267066955566	4556753.1502095945
2.4237842559814453	4237119.937086742
2.426539897918701	4009185.2985610105
2.429293394088745	4269097.58788947
2.4320452213287354	4589650.440883815
2.4347951412200928	4517017.34349421
2.4375438690185547	4676406.651153178
2.440291166305542	5141107.929475962
2.443037271499634	5163693.67009058
2.445782423019409	5006607.99799073
2.4485268592834473	5001520.857651828
2.451270818710327	5005124.641624609
2.454014539718628	5125528.619302741
2.4567582607269287	5600293.33180664
2.4595019817352295	5884362.29738712
2.4622461795806885	6151074.363376275
2.4649908542633057	6541611.649428813
2.4677364826202393	6133508.849619546
2.4704833030700684	5549359.956083774
2.473231554031372	5437231.44334639
2.4759814739227295	5714800.016170955
2.4787333011627197	5995108.338920743
2.481487512588501	6019526.031117912
