#wavelength	surface flux
0.6450077295303345	5811.951653650631
0.6472567915916443	9375.520420131827
0.6494921445846558	12764.47808956433
0.6517150402069092	15391.789043964043
0.6539263725280762	18297.776340453456
0.6561272740364075	21556.68042711158
0.6583186388015747	25190.975401374948
0.6605015397071838	29217.105230120396
0.6626768708229065	33589.67468915972
0.6648455858230591	38153.531882292016
0.6670085787773132	41390.48735631137
0.6691668033599854	40047.377345565044
0.6713210344314575	40679.426016710815
0.6734722256660461	51746.188897502085
0.6756211519241333	64363.67473218777
0.6777685880661011	72053.28176849488
0.6799154281616211	78203.67587682692
0.6820623278617859	83829.64550139158
0.6842101216316223	88919.59391458792
0.6863595843315125	93321.68380540547
0.688511312007904	96691.26397837212
0.6906660795211792	98264.75895011963
0.6928245425224304	98481.01383578214
0.6949873566627502	99393.68103528472
0.6971551775932312	100520.17761246252
0.6993286609649658	99694.24839709916
0.7015084028244019	97111.83440766658
0.7036949396133423	93851.32623738545
0.7058889269828796	90098.41951725661
0.7080909013748169	85703.39120749486
0.710301399230957	80657.36403631995
0.712520956993103	75001.70138186954
0.7147500514984131	68239.09963304005
0.7169892191886902	60602.01704649768
0.7192389369010925	54183.0208658435
0.7214996814727783	49065.75338292633
0.723771870136261	43653.13688213931
0.7260559797286987	38220.72054431602
0.7283523678779602	33453.560895066206
0.7306615710258484	29238.843956175755
0.7329838871955872	25549.539761443808
0.7353196740150452	22245.624935810243
0.7376693487167358	19072.22799122726
0.7400332689285278	16174.263577429952
0.7424117922782898	13639.341287359362
0.7448052167892456	11457.206352639625
0.7472138404846191	9585.737210879597
0.7496379613876343	7977.910024107161
0.7520779371261597	6605.253570951357
0.7545340061187744	5422.055389659517
0.7570064663887024	4373.320467895703
0.7594954967498779	3415.4782749682427
0.7620013952255249	2484.8067445612287
0.7645244002342224	1528.0756620420186
0.7670646905899048	857.9410301102179
0.7696225643157959	937.5288235260625
0.7721980810165405	1889.3169883201565
0.7747915983200073	3350.974812406159
0.7774031162261963	4749.7050488552395
0.7800329327583313	6295.339609395526
0.7826811671257019	8857.129998479551
0.7853479981422424	12268.243100595844
0.7880334854125977	16088.434144425126
0.7907378077507019	19726.362931703996
0.7934610247612	22402.839456903195
0.7962033748626709	28703.27528041682
0.7989648580551147	40965.75223689567
0.801745593547821	54506.820375261486
0.8045456409454346	68432.73807939391
0.8073651194572449	83983.7697166182
0.8102040886878967	100693.02881714114
0.8130625486373901	119810.66822615074
0.8159406185150146	144876.22527923458
0.8188382983207703	176155.59522131848
0.8217556476593018	210299.5550627787
0.8246926665306091	250377.76494700738
0.8276493549346924	297687.9893092948
0.8306257724761963	348273.73424620373
0.8336219191551208	404165.4003807985
0.8366377949714661	467690.0556930658
0.8396733403205872	539714.9741742313
0.8427285552024841	621885.907610373
0.8458034992218018	708091.3787611657
0.8488980531692505	755145.8819775878
0.8520121574401855	788282.852464925
0.8551458716392517	940826.5885504482
0.8582990765571594	1137621.0210309655
0.8614717125892639	1239048.3423781046
0.8646637797355652	1326717.9174375646
0.8678751587867737	1469420.5728061295
0.8711057901382446	1630771.5132072014
0.8743556141853333	1793181.149213189
0.87762451171875	1935707.8543108609
0.8809124231338501	1988456.5464622634
0.8842192888259888	1980269.2114131453
0.8875449895858765	1983641.2548810032
0.8908893465995789	1896149.2845024597
0.894252359867096	1799152.9433930942
0.8976338505744934	2138354.8407557057
0.9010337591171265	2859153.2914975444
0.9044519662857056	3533745.21997491
0.9078882932662964	3966273.4358990462
0.9113426208496094	4169402.4894015584
0.914814829826355	4292791.70393023
0.9183048605918884	4521796.796377145
0.9218124747276306	4700126.715168267
0.925337553024292	4046083.4635834685
0.9288799166679382	2729243.875834753
0.9324395060539246	2104646.112246013
0.9360161423683167	2486761.6917737178
0.9396095871925354	3189472.7815898536
0.943219780921936	3585352.9266482797
0.9468464851379395	3602355.5743240085
0.9504896402359009	3596288.2151409322
0.9541489481925964	3574581.4173565386
0.9578243494033813	3485786.1156828185
0.9615156054496765	3609851.53584867
0.9652225375175476	4164296.4610789954
0.9689450263977051	4900821.314087034
0.9726828336715698	5429015.942122683
0.9764357805252075	5862158.306225437
0.9802037477493286	6337473.6589710545
0.983986496925354	6773845.829751572
0.9877838492393494	7334961.705264925
0.9915955662727356	8059559.095144739
0.9954215884208679	8605952.395747885
0.9992615580558777	8818837.00371504
1.0031154155731201	9332016.058492882
1.0069829225540161	10389906.751845771
1.0108637809753418	11615978.767093536
1.0147579908370972	12947187.024238065
1.018665075302124	14304635.08701221
1.022585153579712	15543196.524993917
1.0265177488327026	16677420.45993279
1.0304628610610962	17886772.5097703
1.0344202518463135	19262499.841217987
1.0383895635604858	20649758.921027254
1.0423706769943237	21849320.37251134
1.0463634729385376	22827139.625681087
1.0503677129745483	23657387.39400371
1.0543830394744873	24479049.547747485
1.058409333229065	25283029.792558502
1.0624464750289917	26074521.45692708
1.0664942264556885	26797419.963041402
1.0705522298812866	27394144.94366139
1.0746204853057861	28103311.15437001
1.0786986351013184	28733232.652078915
1.0827864408493042	28582917.624460276
1.086883783340454	26235498.110425904
1.0909905433654785	21029058.49948924
1.0951062440872192	15115834.209940938
1.0992310047149658	10732991.45334612
1.10336434841156	7715446.657642364
1.1075061559677124	5492955.540468981
1.1116561889648438	3960124.848426649
1.115814208984375	3186057.6928833695
1.1199802160263062	3125361.0250795856
1.124153733253479	3481287.6427211915
1.1283347606658936	3677747.4222456454
1.1325229406356812	3189130.7774757966
1.1367181539535522	3166552.1852381965
1.1409201622009277	3969002.3016497097
1.145128846168518	4401832.489450327
1.1493438482284546	4323845.157189761
1.1535650491714478	3927207.2801089855
1.1577922105789185	3598002.8978062067
1.1620250940322876	3519191.0015410096
1.1662636995315552	3605550.699713599
1.170507550239563	4193699.223324682
1.174756646156311	5093151.705052554
1.1790107488632202	6338270.686691795
1.1832695007324219	8170558.529445753
1.1875330209732056	10067580.750317806
1.191800832748413	12180512.739381522
1.1960728168487549	14712922.944614362
1.2003488540649414	17137112.306982853
1.2046287059783936	19544740.28281922
1.2089121341705322	21775768.226814743
1.2131990194320679	23745568.49547642
1.2174891233444214	25835464.47584248
1.2217823266983032	27893251.11342241
1.2260783910751343	30044705.8031066
1.230377197265625	32254176.539384507
1.2346785068511963	33971524.03932133
1.238982081413269	34297373.13039239
1.2432878017425537	33702271.62310295
1.2475954294204712	33373374.705880277
1.2519049644470215	32970391.31178723
1.256216049194336	35875499.23038616
1.2605286836624146	40659386.08750843
1.2648425102233887	41961114.04687925
1.2691574096679688	41092318.01105198
1.2734732627868652	39724269.06033128
1.2777899503707886	38200814.05172684
1.2821072340011597	35974739.73480306
1.2864248752593994	32803332.494081687
1.2907428741455078	30285510.18628198
1.2950609922409058	29205733.583480433
1.2993791103363037	28265399.5824477
1.303696870803833	26951962.77922732
1.3080145120620728	25457853.696891226
1.3123314380645752	23126765.488413442
1.3166478872299194	20870857.88798148
1.3209635019302368	19136330.031575732
1.3252781629562378	15808273.252751593
1.3295916318893433	10190054.912764108
1.3339040279388428	4791155.777243584
1.3382149934768677	1927763.4963471484
1.3425244092941284	982706.2113008812
1.3468321561813354	625191.4238386749
1.3511382341384888	430295.2809479957
1.3554422855377197	312041.3786080293
1.3597444295883179	289879.1926870344
1.3640443086624146	368102.05932714266
1.3683418035507202	442469.65566535474
1.3726370334625244	515874.0759691251
1.3769296407699585	637803.4371097827
1.381219506263733	643385.6314583166
1.3855066299438477	563989.0402347752
1.3897908926010132	547368.5641080755
1.3940720558166504	534778.5799032076
1.3983501195907593	520442.93748634425
1.4026249647140503	540066.9412619392
1.4068963527679443	540285.4100909573
1.4111642837524414	532501.6958702999
1.4154287576675415	557532.3972092915
1.419689416885376	564268.700105681
1.4239463806152344	594334.4063858171
1.4281994104385376	732540.2554574994
1.4324485063552856	875445.9393094158
1.436693549156189	948668.811667544
1.440934419631958	1036230.5309908935
1.4451709985733032	1210444.8219211095
1.449403166770935	1568061.7778949237
1.453631043434143	1980997.2359091805
1.4578542709350586	2251980.3991366886
1.4620729684829712	2343886.310072634
1.4662868976593018	2293207.1741756154
1.4704961776733398	2203546.2023319216
1.4747005701065063	2272206.080503666
1.4788999557495117	2499626.2421022896
1.4830944538116455	2672813.041997264
1.4872838258743286	2826483.655330229
1.491468071937561	3052573.865475432
1.4956470727920532	3385698.2072513704
1.4998208284378052	3815990.5872338326
1.5039892196655273	4191732.492347283
1.5081522464752197	4509717.92723819
1.5123097896575928	4851488.292819146
1.5164618492126465	5258113.267675043
1.5206083059310913	5949052.70976452
1.5247491598129272	6807306.730599928
1.5288842916488647	7600812.373422299
1.5330137014389038	8414986.650174828
1.5371372699737549	9138258.103862958
1.541254997253418	9784660.452045295
1.545366883277893	10688355.540807419
1.5494728088378906	11551965.943346126
1.5535727739334106	12080935.930905672
1.5576666593551636	12884220.559047718
1.561754584312439	14482577.240944063
1.5658363103866577	16278084.123743001
1.5699119567871094	17236013.71840617
1.5739814043045044	17591105.108920068
1.5780447721481323	18134285.94933619
1.582101821899414	18674327.8976302
1.5861525535583496	18709451.631608885
1.5901970863342285	18157770.719452243
1.5942351818084717	17366954.724751882
1.5982669591903687	16429145.807321902
1.6022924184799194	15004026.72083875
1.606311559677124	13366331.843117287
1.6103241443634033	11924469.473493801
1.6143304109573364	10362707.562604828
1.6183301210403442	8908728.316226954
1.6223233938217163	8329367.438852702
1.6263102293014526	8430592.558284152
1.6302905082702637	8760569.78466596
1.634264349937439	9627044.488532616
1.638231635093689	11039172.859219525
1.6421923637390137	11592189.811831271
1.646146535873413	10682208.103924926
1.6500942707061768	10339903.862513015
1.6540353298187256	10160556.837411346
1.6579699516296387	9523307.665019155
1.661897897720337	9198990.515857369
1.6658192873001099	6259823.515964376
1.6697341203689575	3118369.920647829
1.6736423969268799	4071370.2613050477
1.677544116973877	5843183.336768407
1.6814392805099487	5916672.416839207
1.6853278875350952	5333947.978705216
1.6892099380493164	4682086.2845967775
1.6930854320526123	3921401.0219010916
1.696954369544983	3254652.821619829
1.7008168697357178	2866310.6105867745
1.7046726942062378	2954583.1462671133
1.708522081375122	3591982.3450879976
1.712364912033081	4232279.687807024
1.7162011861801147	4711861.7642235095
1.7200311422348022	5063187.4764124025
1.723854422569275	4845711.856648577
1.7276713848114014	4475560.299451297
1.731481909751892	4293339.970421433
1.7352858781814575	4229414.072627043
1.7390835285186768	4437941.55727689
1.7428747415542603	4730830.130044893
1.7466596364974976	4863736.993119248
1.7504380941390991	4743737.669701626
1.7542102336883545	4243811.165284254
1.7579760551452637	3714728.4540546075
1.7617355585098267	3478144.4859589087
1.7654887437820435	3263796.280778029
1.7692357301712036	2935378.4307331964
1.7729763984680176	2636579.1247441587
1.776710867881775	2548638.201195979
1.7804391384124756	2577923.7379865367
1.7841613292694092	2369148.7547709467
1.7878772020339966	2091388.9503063385
1.7915871143341064	1810960.7749537344
1.7952908277511597	1663389.4366250902
1.7989884614944458	1721791.7751973283
1.8026801347732544	1527474.529921514
1.806365728378296	1376222.3778697636
1.8100452423095703	1472000.8305348083
1.8137187957763672	1565810.6810383336
1.817386507987976	1467058.4261258126
1.8210482597351074	1487077.209211147
1.8247040510177612	1733543.6898693263
1.828354001045227	1577343.6545184571
1.8319982290267944	1246885.5573992988
1.8356364965438843	1092107.7346913929
1.8392690420150757	1092082.2577461088
1.8428958654403687	1299388.341301546
1.8465168476104736	1363385.4218680419
1.8501322269439697	1309790.5916268772
1.8537418842315674	1283680.8747137766
1.8573459386825562	1093381.4177474673
1.860944390296936	884165.942142251
1.864537239074707	784117.5643135805
1.8681244850158691	725150.4383706973
1.871706247329712	796481.5452384556
1.8752825260162354	1134112.7347112328
1.8788533210754395	1689743.59369793
1.8824186325073242	2092508.29101026
1.8859784603118896	2146808.63276436
1.8895330429077148	2127828.16911964
1.8930821418762207	2378708.767573964
1.8966259956359863	2562692.941402002
1.9001644849777222	2215776.8910426777
1.9036977291107178	1915642.960791078
1.9072256088256836	2029545.1127392226
1.9107483625411987	1988863.4727794772
1.9142658710479736	1806452.5144160108
1.9177782535552979	1868816.1475524104
1.9212853908538818	1822143.733371649
1.9247875213623047	1591729.8505156056
1.9282845258712769	1373515.45125666
1.9317764043807983	1199172.8627497551
1.9352631568908691	1088095.3504171106
1.9387450218200684	988354.5879833741
1.942221760749817	1079164.3963469935
1.9456936120986938	1250074.4513121243
1.9491604566574097	1310352.4243916518
1.952622413635254	1306244.101423356
1.956079363822937	1286825.0916694908
1.959531545639038	1377766.481033453
1.962978720664978	1515457.4647512
1.966421127319336	1685783.7329170334
1.9698586463928223	1798583.943089693
1.9732913970947266	1799283.7951007562
1.9767193794250488	1932252.362124388
1.9801424741744995	2077298.1061893567
1.9835609197616577	2232864.3222276373
1.9869745969772339	2443372.9717374826
1.990383505821228	2573566.848728647
1.9937876462936401	2922458.7328388863
1.9971871376037598	3286121.043196883
2.000581979751587	3477098.3717457457
2.003972291946411	3619950.117408381
2.007357597351074	3636986.5134535898
2.0107386112213135	3830359.5288344957
2.0141148567199707	4038156.9849161957
2.017486572265625	3985428.646483283
2.0208535194396973	4353689.681961322
2.0242159366607666	4957742.596710371
2.027573823928833	5034605.72124925
2.0309269428253174	5173169.5488115465
2.034275770187378	5695329.79323156
2.0376198291778564	5992178.275896929
2.040959596633911	6030184.74737639
2.044294595718384	6437213.693645963
2.0476250648498535	7072020.882197465
2.0509510040283203	7208802.533143463
2.054272413253784	7273948.596986102
2.057589530944824	7830704.100750283
2.0609018802642822	8159550.561118405
2.0642096996307373	8208905.96411434
2.0675129890441895	8439750.184369188
2.0708119869232178	8611477.220799329
2.074106216430664	8678146.771906862
2.0773961544036865	8729926.688848184
2.080681324005127	8832575.168453151
2.0839622020721436	8940711.691006882
2.087238311767578	9018817.160725698
2.090510129928589	9120366.536951706
2.0937774181365967	9107220.100459032
2.0970399379730225	8981522.296996072
2.1002981662750244	8775187.189547645
2.1035518646240234	8560416.032636926
2.1068007946014404	8377910.4145900095
2.1100454330444336	8196358.7050527185
2.1132853031158447	8127909.697655519
2.116520881652832	7935545.564665506
2.1197516918182373	7673632.712399113
2.1229779720306396	7588927.256015745
2.12619948387146	7485903.687973236
2.1294167041778564	7306251.87009701
2.132629156112671	7194545.232586653
2.1358368396759033	7048643.114944273
2.139039993286133	6664695.223805909
2.1422386169433594	6017483.431311685
2.145432472229004	5419187.8936144095
2.1486217975616455	5227561.081474327
2.151806354522705	5196804.80178069
2.1549863815307617	5056071.532103917
2.1581614017486572	4802701.795957105
2.16133189201355	4459472.810418157
2.1644976139068604	4169970.554745846
2.167658567428589	3927580.9160430934
2.1708147525787354	3767757.497180224
2.173966407775879	3644520.363235242
2.1771130561828613	3435156.321733621
2.1802549362182617	3237392.476801023
2.183391809463501	2998062.8674092963
2.1865241527557373	2699972.8076748108
2.1896514892578125	2333660.481060928
2.1927738189697266	1840350.5022522449
2.1958916187286377	1282967.070956604
2.1990041732788086	777656.3039057298
2.2021119594573975	494381.65587136155
2.2052149772644043	463923.2547516365
2.208312749862671	581215.6667612526
2.2114057540893555	758991.4644323156
2.214493751525879	925521.5503664596
2.217576742172241	1032394.7760393271
2.2206547260284424	1052077.9658204955
2.2237277030944824	991783.5793880529
2.2267956733703613	885927.0923554833
2.2298583984375	784272.5829827555
2.2329163551330566	728402.8117883174
2.235969066619873	693030.3140470468
2.2390167713165283	618688.7886344334
2.2420592308044434	539511.3317884433
2.2450966835021973	483521.80870198127
2.248128890991211	435299.9456933895
2.2511560916900635	408124.17259512964
2.254178285598755	395185.4431797755
2.257194995880127	391285.38712858077
2.260206699371338	397133.39734925196
2.2632133960723877	410370.8109292244
2.266214609146118	423494.3455872467
2.2692108154296875	426418.43079047004
2.2722020149230957	424332.1908546755
2.2751877307891846	411788.0491327996
2.278168201446533	403530.9159407319
2.2811436653137207	384932.7092380568
2.284113883972168	331847.0896123278
2.287078857421875	290220.4276598599
2.290038824081421	264817.0510606972
2.2929933071136475	244449.84018777093
2.295942783355713	250632.02557998887
2.298887014389038	290515.36685863626
2.301826238632202	340219.50040486665
2.304760217666626	419795.4269794969
2.3076889514923096	603998.7793273015
2.310612440109253	853869.5773766047
2.3135311603546143	910839.998201584
2.3164443969726562	598284.786839484
2.319352865219116	266503.27507216815
2.322256088256836	192386.25426341998
2.3251543045043945	201693.4584718612
2.328047275543213	206287.88287829427
2.330935478210449	228546.92498234348
2.3338186740875244	255609.8937003815
2.3366971015930176	277036.280336695
2.3395702838897705	293373.40774350025
2.3424389362335205	296393.4739986158
2.3453025817871094	276571.09717959526
2.348161458969116	268079.08824066026
2.351015567779541	291998.28883934324
2.353865146636963	324794.5694973341
2.3567099571228027	364534.79946230695
2.3595502376556396	432759.9150141395
2.3623859882354736	510486.90775711386
2.3652172088623047	547510.3937726398
2.368043899536133	483266.2557428089
2.370866537094116	319159.2611032792
2.3736846446990967	231029.58760328343
2.3764986991882324	259466.95250015476
2.3793084621429443	273797.5508364399
2.3821144104003906	263581.7186859953
2.384916305541992	309958.3079031454
2.387714147567749	412726.7206557552
2.3905084133148193	460910.04564333457
2.393299102783203	451712.0993703583
2.3960859775543213	472478.2681912932
2.398869514465332	544877.957253611
2.4016497135162354	631898.6472827714
2.4044265747070312	700421.413728764
2.407200336456299	723084.8609434706
2.409970998764038	771769.7171295509
2.4127390384674072	860211.0830892326
2.415503978729248	833831.7787517832
2.418266534805298	755807.0424402809
2.4210267066955566	741659.1331211847
2.4237842559814453	690346.5467769402
2.426539897918701	655132.3479564013
2.429293394088745	760718.3060228553
2.4320452213287354	871245.8715037048
2.4347951412200928	854961.4675769494
2.4375438690185547	912216.9308083232
2.440291166305542	1059919.0041060073
2.443037271499634	1069865.9980085723
2.445782423019409	1008391.6635341647
2.4485268592834473	1000686.0623653672
2.451270818710327	1009129.5855476753
2.454014539718628	1054752.848707682
2.4567582607269287	1184714.8336524162
2.4595019817352295	1261833.0361513873
2.4622461795806885	1349837.9708113815
2.4649908542633057	1478127.6186931033
2.4677364826202393	1375976.5907352837
2.4704833030700684	1194888.4250774907
2.473231554031372	1141255.5705882811
2.4759814739227295	1195370.44332302
2.4787333011627197	1261428.2263938952
2.481487512588501	1286990.1342194362
