#wavelength	surface flux
0.6450077295303345	509.7669175750602
0.6472567915916443	794.855870163928
0.6494921445846558	1019.049948985635
0.6517150402069092	1144.9735006781145
0.6539263725280762	1270.0129863759225
0.6561272740364075	1399.471566575353
0.6583186388015747	1533.8800714259728
0.6605015397071838	1675.2019611777125
0.6626768708229065	1821.0654777148177
0.6648455858230591	1968.8456815405514
0.6670085787773132	2098.9765486299066
0.6691668033599854	2156.964906229972
0.6713210344314575	2236.9885370525717
0.6734722256660461	2464.527778377533
0.6756211519241333	2698.3574470689255
0.6777685880661011	2851.3912387508326
0.6799154281616211	2984.1006712058866
0.6820623278617859	3107.4926033159713
0.6842101216316223	3220.7173878259127
0.6863595843315125	3321.1982678681943
0.688511312007904	3398.561392927683
0.6906660795211792	3425.8934207970237
0.6928245425224304	3421.6867520720853
0.6949873566627502	3467.7663734012767
0.6971551775932312	3550.4882308491897
0.6993286609649658	3583.3418608304755
0.7015084028244019	3570.219972072911
0.7036949396133423	3552.32083366181
0.7058889269828796	3532.27123823879
0.7080909013748169	3502.4370709433992
0.710301399230957	3458.926375123656
0.712520956993103	3392.080632612484
0.7147500514984131	3257.6475895968597
0.7169892191886902	3044.029964576377
0.7192389369010925	2883.8227978380924
0.7214996814727783	2812.8412512904024
0.723771870136261	2713.69396742977
0.7260559797286987	2593.214242629023
0.7283523678779602	2499.929585506189
0.7306615710258484	2431.5332325026047
0.7329838871955872	2407.2653528958044
0.7353196740150452	2389.3030306845585
0.7376693487167358	2334.3781660284585
0.7400332689285278	2268.726082622857
0.7424117922782898	2201.789076301432
0.7448052167892456	2124.7531405035506
0.7472138404846191	2031.2301302981566
0.7496379613876343	1918.273036966917
0.7520779371261597	1784.5957630822118
0.7545340061187744	1628.899806064878
0.7570064663887024	1449.0637358824897
0.7594954967498779	1231.8405589766035
0.7620013952255249	944.9201218435444
0.7645244002342224	592.9926454051322
0.7670646905899048	340.38850489244726
0.7696225643157959	373.66629192289474
0.7721980810165405	732.5189944927824
0.7747915983200073	1245.0578347035491
0.7774031162261963	1606.641432559738
0.7800329327583313	1876.108196728445
0.7826811671257019	2428.0927972478135
0.7853479981422424	3139.017542092182
0.7880334854125977	3735.831505856211
0.7907378077507019	4159.460607990316
0.7934610247612	4326.075604253317
0.7962033748626709	4871.790627330952
0.7989648580551147	6069.3754001783545
0.801745593547821	7209.313557043559
0.8045456409454346	8149.969613375276
0.8073651194572449	9046.905714731289
0.8102040886878967	9786.919773458845
0.8130625486373901	10451.21146866063
0.8159406185150146	11527.247006712121
0.8188382983207703	13179.397075909563
0.8217556476593018	14832.550065222405
0.8246926665306091	16654.698579136853
0.8276493549346924	18877.627916451518
0.8306257724761963	21038.40364131946
0.8336219191551208	23331.82843032048
0.8366377949714661	26010.070130259624
0.8396733403205872	28967.65136309628
0.8427285552024841	32181.579290153975
0.8458034992218018	35622.002346012225
0.8488980531692505	38740.6504360065
0.8520121574401855	41715.93277118497
0.8551458716392517	46091.02758372796
0.8582990765571594	51077.95582001113
0.8614717125892639	55258.010802109275
0.8646637797355652	59523.77113150612
0.8678751587867737	64534.912596876995
0.8711057901382446	69897.50362644157
0.8743556141853333	74924.66185655494
0.87762451171875	78380.0328413177
0.8809124231338501	78252.77976498121
0.8842192888259888	75962.55298321605
0.8875449895858765	74958.61072112208
0.8908893465995789	73828.83900432357
0.894252359867096	71939.20679383281
0.8976338505744934	77938.55542148567
0.9010337591171265	96016.34637481699
0.9044519662857056	116336.64525146592
0.9078882932662964	127322.4855682621
0.9113426208496094	130198.22841542226
0.914814829826355	132317.81614770446
0.9183048605918884	138396.37571315165
0.9218124747276306	143753.6808440563
0.925337553024292	124094.64780501225
0.9288799166679382	76900.691974817
0.9324395060539246	46144.740248037364
0.9360161423683167	56900.535942002105
0.9396095871925354	84559.64362213356
0.943219780921936	92098.99237265825
0.9468464851379395	82286.14983037348
0.9504896402359009	79659.13054284634
0.9541489481925964	80526.26051267507
0.9578243494033813	81275.29152745318
0.9615156054496765	91049.36467477858
0.9652225375175476	117758.53136297195
0.9689450263977051	154488.43878682813
0.9726828336715698	179748.5484035268
0.9764357805252075	193149.5045817289
0.9802037477493286	207983.81016057523
0.983986496925354	225276.05368088253
0.9877838492393494	245995.69978614006
0.9915955662727356	273801.0439539905
0.9954215884208679	307181.7075568509
0.9992615580558777	341851.78451572376
1.0031154155731201	373814.26847250585
1.0069829225540161	394214.3029671657
1.0108637809753418	397225.3089352054
1.0147579908370972	385463.6008015593
1.018665075302124	368680.8346820873
1.022585153579712	368411.2232553227
1.0265177488327026	390823.4600005851
1.0304628610610962	406404.0907055652
1.0344202518463135	406455.0524294521
1.0383895635604858	422637.0068240279
1.0423706769943237	455815.502995196
1.0463634729385376	484943.8120075192
1.0503677129745483	511173.72525031195
1.0543830394744873	538836.368543202
1.058409333229065	562161.2189675572
1.0624464750289917	576463.3715907577
1.0664942264556885	582005.3480920441
1.0705522298812866	580842.4393101748
1.0746204853057861	579910.3824957001
1.0786986351013184	580757.4150636991
1.0827864408493042	577692.0193695906
1.086883783340454	561796.8740497523
1.0909905433654785	522503.92182218045
1.0951062440872192	457563.0381172155
1.0992310047149658	370765.1836681892
1.10336434841156	269741.5933789307
1.1075061559677124	173351.03215200338
1.1116561889648438	98827.34647672987
1.115814208984375	57465.975471838516
1.1199802160263062	48663.837267099276
1.124153733253479	60869.99640915199
1.1283347606658936	75599.3368005615
1.1325229406356812	76730.85618942519
1.1367181539535522	96890.81275032922
1.1409201622009277	131548.5287810766
1.145128846168518	125961.19274339659
1.1493438482284546	98697.49317577474
1.1535650491714478	79599.67327701778
1.1577922105789185	74076.04134225087
1.1620250940322876	85502.58329484027
1.1662636995315552	113855.18969093326
1.170507550239563	168875.97596543652
1.174756646156311	245216.1271839558
1.1790107488632202	327258.70314196247
1.1832695007324219	396526.86207123415
1.1875330209732056	442228.4005344939
1.191800832748413	475204.4191494983
1.1960728168487549	505569.9927392123
1.2003488540649414	536248.5323076493
1.2046287059783936	570386.283438043
1.2089121341705322	597961.5526181759
1.2131990194320679	619459.1002209628
1.2174891233444214	647454.1389489893
1.2217823266983032	686278.946463639
1.2260783910751343	745952.4731510436
1.230377197265625	820484.8354256232
1.2346785068511963	892985.8103278435
1.238982081413269	967492.4275633377
1.2432878017425537	1048253.6612558956
1.2475954294204712	1121560.3998336215
1.2519049644470215	1177138.7993151695
1.256216049194336	1237217.177761863
1.2605286836624146	1319000.9622854101
1.2648425102233887	1394545.3916829356
1.2691574096679688	1425528.9477481474
1.2734732627868652	1396413.1660486625
1.2777899503707886	1321877.1787300813
1.2821072340011597	1219102.9368229702
1.2864248752593994	1111056.4502406635
1.2907428741455078	1035112.2150031531
1.2950609922409058	999408.075853697
1.2993791103363037	972055.7889242283
1.303696870803833	928590.6813385279
1.3080145120620728	876321.536746269
1.3123314380645752	797511.966173875
1.3166478872299194	724530.6112088194
1.3209635019302368	698406.7886514004
1.3252781629562378	638087.9153631073
1.3295916318893433	458575.02718092327
1.3339040279388428	239830.70981289409
1.3382149934768677	97742.04652936029
1.3425244092941284	30399.34955499605
1.3468321561813354	7655.670885894488
1.3511382341384888	2715.837917765863
1.3554422855377197	1051.1756697450448
1.3597444295883179	684.309127117101
1.3640443086624146	1089.4804334251285
1.3683418035507202	1701.2700954118673
1.3726370334625244	3408.358365153597
1.3769296407699585	5650.733479591073
1.381219506263733	4764.324494874388
1.3855066299438477	2461.503513206937
1.3897908926010132	2188.54034294283
1.3940720558166504	2708.9540732028922
1.3983501195907593	3388.498795448623
1.4026249647140503	4129.646382268912
1.4068963527679443	4281.485526379957
1.4111642837524414	4564.568754238243
1.4154287576675415	5389.479541255748
1.419689416885376	5963.675427747101
1.4239463806152344	8203.217426990539
1.4281994104385376	14429.552941753946
1.4324485063552856	19744.80657896441
1.436693549156189	22330.884528380197
1.440934419631958	28805.199167352217
1.4451709985733032	44013.02693338928
1.449403166770935	69149.80826895946
1.453631043434143	98369.16463926208
1.4578542709350586	122746.2130520742
1.4620729684829712	120100.30619341845
1.4662868976593018	90381.25092954228
1.4704961776733398	60731.45167713089
1.4747005701065063	46088.00484015139
1.4788999557495117	45276.11424823449
1.4830944538116455	47416.20106850114
1.4872838258743286	49372.5958901086
1.491468071937561	53098.86217840345
1.4956470727920532	64778.109584311
1.4998208284378052	89274.81344662904
1.5039892196655273	107798.25934422005
1.5081522464752197	95818.31858383915
1.5123097896575928	68356.93822019041
1.5164618492126465	67893.07139216317
1.5206083059310913	102088.50539330926
1.5247491598129272	139852.6789148547
1.5288842916488647	172142.2588833409
1.5330137014389038	202007.06168128533
1.5371372699737549	228052.7577225377
1.541254997253418	259904.1816536342
1.545366883277893	300870.77098737645
1.5494728088378906	354446.57804898615
1.5535727739334106	435926.2088284843
1.5576666593551636	550290.118670006
1.561754584312439	702376.9909568158
1.5658363103866577	883083.9722154947
1.5699119567871094	1035027.7122754552
1.5739814043045044	1138965.964296752
1.5780447721481323	1238361.2273920223
1.582101821899414	1340091.5196285837
1.5861525535583496	1414882.4780984323
1.5901970863342285	1445440.1431832921
1.5942351818084717	1441029.2014396286
1.5982669591903687	1400948.4598256259
1.6022924184799194	1302918.1176376978
1.606311559677124	1153566.8077036282
1.6103241443634033	976775.944682643
1.6143304109573364	779977.3627785571
1.6183301210403442	588129.1561681075
1.6223233938217163	442772.60459951684
1.6263102293014526	345644.0468996062
1.6302905082702637	289788.4490960187
1.634264349937439	289959.32244622766
1.638231635093689	329707.38977226143
1.6421923637390137	354331.8061669122
1.646146535873413	340948.8331197517
1.6500942707061768	345224.5394281284
1.6540353298187256	373948.9812863318
1.6579699516296387	424033.5939708454
1.661897897720337	432403.75510526064
1.6658192873001099	266115.2318323083
1.6697341203689575	128414.09297571497
1.6736423969268799	179804.99691298354
1.677544116973877	238493.94778959054
1.6814392805099487	224119.13514570543
1.6853278875350952	194683.49757522476
1.6892099380493164	168811.07025726678
1.6930854320526123	137577.15900607797
1.696954369544983	110949.24227696298
1.7008168697357178	92456.5377770662
1.7046726942062378	90691.80793761218
1.708522081375122	125394.07318562854
1.712364912033081	181627.7356177856
1.7162011861801147	247282.85069227085
1.7200311422348022	292633.24836898874
1.723854422569275	274837.2680483538
1.7276713848114014	249599.45383726558
1.731481909751892	256621.88416993542
1.7352858781814575	278485.22344835306
1.7390835285186768	314894.89447012864
1.7428747415542603	349427.39793435397
1.7466596364974976	359403.4448459384
1.7504380941390991	343800.0455814542
1.7542102336883545	296280.2564306791
1.7579760551452637	242454.2298610581
1.7617355585098267	207896.97234210523
1.7654887437820435	175287.85168202285
1.7692357301712036	147782.0223423158
1.7729763984680176	126057.32427367796
1.776710867881775	110666.45563119384
1.7804391384124756	104558.62377743215
1.7841613292694092	87344.26730828224
1.7878772020339966	64914.41757928172
1.7915871143341064	48203.7816812557
1.7952908277511597	39260.365438419736
1.7989884614944458	39290.87114064718
1.8026801347732544	28660.92836700595
1.806365728378296	18476.292125058164
1.8100452423095703	18154.541611671117
1.8137187957763672	16684.288467652434
1.817386507987976	13917.594093113683
1.8210482597351074	16692.471554160384
1.8247040510177612	21740.64908578066
1.828354001045227	16026.938194521312
1.8319982290267944	8320.652522376098
1.8356364965438843	6283.915899850893
1.8392690420150757	6752.07954593293
1.8428958654403687	13167.641889648365
1.8465168476104736	17966.826128168766
1.8501322269439697	17809.525030426757
1.8537418842315674	16402.965497107816
1.8573459386825562	12671.80642863928
1.860944390296936	9765.083861894298
1.864537239074707	7662.048583209124
1.8681244850158691	4573.492785947529
1.871706247329712	3443.53705747741
1.8752825260162354	9958.331612628508
1.8788533210754395	25766.145536363118
1.8824186325073242	37019.91213409501
1.8859784603118896	35751.07576870498
1.8895330429077148	31397.912601189837
1.8930821418762207	34577.88795793905
1.8966259956359863	36939.50718409676
1.9001644849777222	24031.536684269846
1.9036977291107178	12666.979667845795
1.9072256088256836	13393.674018757165
1.9107483625411987	13222.687082196147
1.9142658710479736	10625.909716756058
1.9177782535552979	11159.785508195833
1.9212853908538818	11385.981389976907
1.9247875213623047	9434.947156044771
1.9282845258712769	7462.066796621489
1.9317764043807983	6408.394890226271
1.9352631568908691	6061.394621733749
1.9387450218200684	5385.62358173825
1.942221760749817	6014.657001679289
1.9456936120986938	7894.775919973567
1.9491604566574097	9299.902995469813
1.952622413635254	9706.228846944941
1.956079363822937	11761.405395342541
1.959531545639038	16277.473705491238
1.962978720664978	19800.34255768717
1.966421127319336	22899.156387430274
1.9698586463928223	23274.970381605188
1.9732913970947266	23263.026536177218
1.9767193794250488	28201.00286071728
1.9801424741744995	28914.804094211282
1.9835609197616577	29056.63445958225
1.9869745969772339	36643.765153998706
1.990383505821228	42407.262744622756
1.9937876462936401	49833.178792163024
1.9971871376037598	60606.97106666406
2.000581979751587	63968.66349033241
2.003972291946411	61315.77499825434
2.007357597351074	61815.10689110328
2.0107386112213135	66174.61050417455
2.0141148567199707	66226.69066967632
2.017486572265625	59426.52708470121
2.0208535194396973	57125.441761353286
2.0242159366607666	64486.600849277565
2.027573823928833	70981.05689277923
2.0309269428253174	77053.45831168389
2.034275770187378	86171.54753097046
2.0376198291778564	93038.58780544683
2.040959596633911	99393.5309206765
2.044294595718384	111319.93608114582
2.0476250648498535	123839.84600026406
2.0509510040283203	132502.44309124723
2.054272413253784	140278.4193159204
2.057589530944824	148575.5723534511
2.0609018802642822	157064.02006050042
2.0642096996307373	163619.05251554959
2.0675129890441895	168529.47736955853
2.0708119869232178	172950.48325064837
2.074106216430664	176697.27917083993
2.0773961544036865	179174.8521324422
2.080681324005127	180540.56181909825
2.0839622020721436	182474.5853407131
2.087238311767578	184181.49679505333
2.090510129928589	185253.98012764138
2.0937774181365967	185039.89885736236
2.0970399379730225	183218.82503288987
2.1002981662750244	181321.42937844634
2.1035518646240234	180479.3535459011
2.1068007946014404	179522.58003115718
2.1100454330444336	177401.74589001
2.1132853031158447	176073.9524248935
2.116520881652832	173855.90440569085
2.1197516918182373	170778.66957605327
2.1229779720306396	168428.9166871264
2.12619948387146	166043.07107400164
2.1294167041778564	163461.9160221233
2.132629156112671	160556.42092680882
2.1358368396759033	157088.38113352298
2.139039993286133	153034.75940186958
2.1422386169433594	145564.25809895262
2.145432472229004	137043.71892817036
2.1486217975616455	131214.20489938543
2.151806354522705	126073.30060136683
2.1549863815307617	121015.08922271847
2.1581614017486572	115731.03595109176
2.16133189201355	107231.78177321183
2.1644976139068604	99010.7134276708
2.167658567428589	93225.78447204888
2.1708147525787354	88306.96961316817
2.173966407775879	84624.1703915978
2.1771130561828613	78200.2114436069
2.1802549362182617	70741.4031174199
2.183391809463501	65763.71254229403
2.1865241527557373	62013.058024264436
2.1896514892578125	53684.71768278223
2.1927738189697266	39716.33739489024
2.1958916187286377	25014.409175278397
2.1990041732788086	12657.001643711417
2.2021119594573975	6678.170483135639
2.2052149772644043	8770.251717805246
2.208312749862671	15253.640667928506
2.2114057540893555	19166.275315955532
2.214493751525879	18987.547428046564
2.217576742172241	18351.132814724573
2.2206547260284424	16753.07517533385
2.2237277030944824	14903.90163953725
2.2267956733703613	12957.020563162781
2.2298583984375	10104.067603271598
2.2329163551330566	9374.091585475986
2.235969066619873	9696.578743628404
2.2390167713165283	8291.213092288606
2.2420592308044434	7090.311094178349
2.2450966835021973	6469.249394697129
2.248128890991211	5217.978568976885
2.2511560916900635	4315.18141800854
2.254178285598755	3713.376416191416
2.257194995880127	3202.916141549051
2.260206699371338	3118.588507066313
2.2632133960723877	3233.5936221210286
2.266214609146118	3596.0056387769732
2.2692108154296875	4350.407249384592
2.2722020149230957	5296.849093740855
2.2751877307891846	5444.096390015726
2.278168201446533	5384.605668862444
2.2811436653137207	5328.5110047444205
2.284113883972168	4481.07107387582
2.287078857421875	4013.575731279224
2.290038824081421	3746.8847608559568
2.2929933071136475	3257.5972899450117
2.295942783355713	3089.846099134533
2.298887014389038	3371.7287863166453
2.301826238632202	3994.395752312142
2.304760217666626	5436.1735894471385
2.3076889514923096	10497.657694872401
2.310612440109253	18891.693296529145
2.3135311603546143	20377.580679080034
2.3164443969726562	10887.525745614133
2.319352865219116	2938.711845497476
2.322256088256836	2442.442165196234
2.3251543045043945	3834.6967360351828
2.328047275543213	4086.8129459603733
2.330935478210449	3615.625734271164
2.3338186740875244	3465.969787077495
2.3366971015930176	3305.6563408660145
2.3395702838897705	2934.3353059094816
2.3424389362335205	2932.0707693533927
2.3453025817871094	2825.0959563048877
2.348161458969116	2807.1663556207336
2.351015567779541	3596.425592441878
2.353865146636963	4686.411526795277
2.3567099571228027	6391.22985035731
2.3595502376556396	9752.120190347941
2.3623859882354736	12608.672909693263
2.3652172088623047	11820.063462185366
2.368043899536133	7790.793425515969
2.370866537094116	3588.3465066995814
2.3736846446990967	2515.761498265331
2.3764986991882324	4815.303965042748
2.3793084621429443	7645.317827844797
2.3821144104003906	8458.017671975478
2.384916305541992	8719.211779143938
2.387714147567749	10490.185241555264
2.3905084133148193	11462.258534607483
2.393299102783203	10376.525066274755
2.3960859775543213	10170.347154163366
2.398869514465332	12897.412754825718
2.4016497135162354	15713.303600945119
2.4044265747070312	16067.87232222258
2.407200336456299	16279.265834289614
2.409970998764038	22012.84404380232
2.4127390384674072	29666.22165887318
2.415503978729248	27180.216268472668
2.418266534805298	21371.076724151644
2.4210267066955566	22499.46100685751
2.4237842559814453	22124.860187945913
2.426539897918701	21056.842507321686
2.429293394088745	28445.128748773383
2.4320452213287354	35024.70472946662
2.4347951412200928	32203.706738620673
2.4375438690185547	35707.868477937736
2.440291166305542	47941.11638359595
2.443037271499634	50446.682597556726
2.445782423019409	43691.22052637244
2.4485268592834473	40540.57160157936
2.451270818710327	43482.54950774805
2.454014539718628	50903.733335458535
2.4567582607269287	59690.03496107361
2.4595019817352295	64434.20433836511
2.4622461795806885	68685.544277361
2.4649908542633057	76196.27852582271
2.4677364826202393	74830.1626448144
2.4704833030700684	64609.82135757751
2.473231554031372	58406.18331036757
2.4759814739227295	59829.26844792982
2.4787333011627197	60698.18312544435
2.481487512588501	59553.02099571152
