#wavelength	surface flux
0.6450077295303345	170091.6706860517
0.6472567915916443	270832.1274672333
0.6494921445846558	360235.52968106064
0.6517150402069092	422915.4131767172
0.6539263725280762	489467.7340612219
0.6561272740364075	561461.3304383707
0.6583186388015747	638606.7751618774
0.6605015397071838	719276.5042289194
0.6626768708229065	798697.2051217109
0.6648455858230591	861901.4718120141
0.6670085787773132	849900.5816315054
0.6691668033599854	695294.3887348472
0.6713210344314575	622011.8640313423
0.6734722256660461	880083.2809937872
0.6756211519241333	1223712.662664933
0.6777685880661011	1427893.3077678173
0.6799154281616211	1560394.9658740829
0.6820623278617859	1672731.026782723
0.6842101216316223	1772402.455510996
0.6863595843315125	1857212.6522076172
0.688511312007904	1924128.8013794466
0.6906660795211792	1960454.1979480393
0.6928245425224304	1972056.7540127044
0.6949873566627502	1999857.466231414
0.6971551775932312	2040306.8477101387
0.6993286609649658	2047263.6304423441
0.7015084028244019	2020873.3631325453
0.7036949396133423	1974061.7544171687
0.7058889269828796	1901467.6510789348
0.7080909013748169	1817046.781195989
0.710301399230957	1733909.2073037904
0.712520956993103	1645428.9761068637
0.7147500514984131	1543094.3443201345
0.7169892191886902	1431889.1834911276
0.7192389369010925	1329869.535667113
0.7214996814727783	1232786.333914835
0.723771870136261	1126695.1061859683
0.7260559797286987	1016951.0253156209
0.7283523678779602	911277.796366177
0.7306615710258484	809635.665906655
0.7329838871955872	712701.9051914391
0.7353196740150452	620643.2802636275
0.7376693487167358	532125.123765449
0.7400332689285278	449109.14114036714
0.7424117922782898	372770.6144628644
0.7448052167892456	303489.11126724986
0.7472138404846191	241228.39558191717
0.7496379613876343	185826.55906764595
0.7520779371261597	137576.7153986385
0.7545340061187744	96816.44758870998
0.7570064663887024	63756.629917365215
0.7594954967498779	38448.94886137627
0.7620013952255249	20507.740559387476
0.7645244002342224	9142.54368930227
0.7670646905899048	3880.5156070081357
0.7696225643157959	4338.054723399558
0.7721980810165405	11695.320043264612
0.7747915983200073	27738.36928003608
0.7774031162261963	49729.67528789896
0.7800329327583313	82622.88413519181
0.7826811671257019	143120.22966569458
0.7853479981422424	227260.53505473785
0.7880334854125977	323432.25402141275
0.7907378077507019	412264.8996597186
0.7934610247612	471158.7376985135
0.7962033748626709	609173.5327666844
0.7989648580551147	877884.5680921598
0.801745593547821	1158022.4296029904
0.8045456409454346	1424972.9242717624
0.8073651194572449	1713511.7257946073
0.8102040886878967	2024233.7051462294
0.8130625486373901	2366218.475988729
0.8159406185150146	2726729.6497318586
0.8188382983207703	3114745.2827076223
0.8217556476593018	3639852.1886531827
0.8246926665306091	4286526.802996702
0.8276493549346924	4940754.141559953
0.8306257724761963	5608078.319691866
0.8336219191551208	6329407.452789628
0.8366377949714661	7113674.383330946
0.8396733403205872	7955089.954873076
0.8427285552024841	8818578.16032034
0.8458034992218018	9597381.722178346
0.8488980531692505	9799778.141068712
0.8520121574401855	9824170.407714868
0.8551458716392517	11412413.308146838
0.8582990765571594	13106155.59043983
0.8614717125892639	12286610.54595783
0.8646637797355652	11076018.476032827
0.8678751587867737	11545974.834788652
0.8711057901382446	12371259.61469217
0.8743556141853333	13325918.085454602
0.87762451171875	14793959.264253808
0.8809124231338501	16314969.557285257
0.8842192888259888	17952395.581346743
0.8875449895858765	19385881.933834504
0.8908893465995789	19399691.67459268
0.894252359867096	19028842.410424504
0.8976338505744934	22063596.683775052
0.9010337591171265	27322116.136527684
0.9044519662857056	31512361.80699527
0.9078882932662964	34836744.302688204
0.9113426208496094	37932429.07541128
0.914814829826355	40948839.871291466
0.9183048605918884	43668676.90986224
0.9218124747276306	44507343.505857036
0.925337553024292	40457605.906383894
0.9288799166679382	33605012.78990165
0.9324395060539246	31418616.160275966
0.9360161423683167	35156942.62986378
0.9396095871925354	40422931.045322955
0.943219780921936	44038814.60008011
0.9468464851379395	45494592.894497536
0.9504896402359009	46154937.175449245
0.9541489481925964	46103446.48868462
0.9578243494033813	45408554.618856005
0.9615156054496765	45834019.65981264
0.9652225375175476	48778406.554415934
0.9689450263977051	53069712.48600071
0.9726828336715698	56753260.99092891
0.9764357805252075	60509406.74238219
0.9802037477493286	64961461.536338575
0.983986496925354	69245358.20020735
0.9877838492393494	70519005.76897632
0.9915955662727356	66311387.23852841
0.9954215884208679	59675328.42273998
0.9992615580558777	50894877.60987096
1.0031154155731201	44678549.827619776
1.0069829225540161	46387584.808366016
1.0108637809753418	52101683.53970956
1.0147579908370972	59250229.408617
1.018665075302124	66996248.38263802
1.022585153579712	73494692.53522176
1.0265177488327026	77611776.14367911
1.0304628610610962	82759845.97919497
1.0344202518463135	90875855.92288986
1.0383895635604858	98784383.57454512
1.0423706769943237	103828795.88557246
1.0463634729385376	105792236.38546294
1.0503677129745483	105197544.54716758
1.0543830394744873	104543506.490053
1.058409333229065	106373051.11274818
1.0624464750289917	110983405.05758399
1.0664942264556885	117528730.0152059
1.0705522298812866	125218743.62739718
1.0746204853057861	134092835.24325384
1.0786986351013184	142997662.8542849
1.0827864408493042	149405524.64050615
1.086883783340454	148129944.42092183
1.0909905433654785	135059160.660417
1.0951062440872192	115266893.36542669
1.0992310047149658	96935351.60510606
1.10336434841156	81109965.72177896
1.1075061559677124	67187907.17612447
1.1116561889648438	57099417.55461366
1.115814208984375	52919969.17414544
1.1199802160263062	54040354.12129889
1.124153733253479	59163168.01551402
1.1283347606658936	61444356.317436606
1.1325229406356812	52985707.015938655
1.1367181539535522	45290289.05464382
1.1409201622009277	48932956.95238826
1.145128846168518	58914096.76974496
1.1493438482284546	66745836.513468444
1.1535650491714478	67408805.3579204
1.1577922105789185	65716768.23182736
1.1620250940322876	63486520.09464394
1.1662636995315552	57400177.597101785
1.170507550239563	52003848.43935023
1.174756646156311	49153663.44765349
1.1790107488632202	50803119.86111073
1.1832695007324219	62342243.124110326
1.1875330209732056	77282748.07375292
1.191800832748413	89427111.7201623
1.1960728168487549	99566114.65238707
1.2003488540649414	108647723.31057401
1.2046287059783936	119042054.07378244
1.2089121341705322	129748810.56320034
1.2131990194320679	139961357.18247616
1.2174891233444214	150317671.27256826
1.2217823266983032	159785812.74981362
1.2260783910751343	170067393.08681032
1.230377197265625	179240986.54438943
1.2346785068511963	182780434.8055241
1.238982081413269	173993407.64014304
1.2432878017425537	158879932.22891614
1.2475954294204712	150908179.82747173
1.2519049644470215	146156604.72217825
1.256216049194336	163667927.75516325
1.2605286836624146	195874830.11311954
1.2648425102233887	210367204.72971848
1.2691574096679688	214971914.8480251
1.2734732627868652	216469752.0795671
1.2777899503707886	216393674.8070945
1.2821072340011597	213723623.15919876
1.2864248752593994	205266390.13304985
1.2907428741455078	198145598.4341805
1.2950609922409058	196978671.2774643
1.2993791103363037	196172161.7687898
1.303696870803833	193214983.79350397
1.3080145120620728	187421223.50935644
1.3123314380645752	177714524.65855885
1.3166478872299194	166704793.15950352
1.3209635019302368	153310711.144098
1.3252781629562378	129769938.80317971
1.3295916318893433	91333380.73530397
1.3339040279388428	49699997.18008736
1.3382149934768677	24218251.353107426
1.3425244092941284	15592390.775981184
1.3468321561813354	12498129.581500102
1.3511382341384888	10274568.210427755
1.3554422855377197	8829691.588500563
1.3597444295883179	8907250.0842276
1.3640443086624146	10394154.448244255
1.3683418035507202	11443878.364088794
1.3726370334625244	11998783.21549897
1.3769296407699585	13374301.894000689
1.381219506263733	13919731.392072484
1.3855066299438477	13398003.495363256
1.3897908926010132	12995316.403760526
1.3940720558166504	12252075.522270748
1.3983501195907593	11711249.803373665
1.4026249647140503	11865579.012831932
1.4068963527679443	11484140.967271138
1.4111642837524414	10709421.189927602
1.4154287576675415	10634066.944277054
1.419689416885376	10539032.296968782
1.4239463806152344	10352255.329338273
1.4281994104385376	11054348.079672702
1.4324485063552856	12198009.702408098
1.436693549156189	13027640.142149815
1.440934419631958	13690958.032739192
1.4451709985733032	14715423.185350696
1.449403166770935	17128256.747439377
1.453631043434143	20103623.02760277
1.4578542709350586	22071440.634550706
1.4620729684829712	22786569.305975534
1.4662868976593018	22808827.70532323
1.4704961776733398	23081706.64017684
1.4747005701065063	24323466.53182602
1.4788999557495117	26052168.190825064
1.4830944538116455	27337000.926978525
1.4872838258743286	28593749.108010873
1.491468071937561	30002684.356964026
1.4956470727920532	31504772.418017782
1.4998208284378052	33396917.480549417
1.5039892196655273	35774740.086218216
1.5081522464752197	38765829.120093524
1.5123097896575928	42163845.57362731
1.5164618492126465	44685130.61749472
1.5206083059310913	46996728.341136105
1.5247491598129272	49804325.112003684
1.5288842916488647	52648474.73793101
1.5330137014389038	56091587.372632064
1.5371372699737549	59244878.7549265
1.541254997253418	61853844.905316815
1.545366883277893	65482143.65621131
1.5494728088378906	68900603.00962746
1.5535727739334106	70338149.65912634
1.5576666593551636	71549698.05325091
1.561754584312439	75863686.59183808
1.5658363103866577	82360977.0022825
1.5699119567871094	86859372.36545958
1.5739814043045044	89277900.980602
1.5780447721481323	91243149.74728869
1.582101821899414	93485736.87410687
1.5861525535583496	95793651.22376326
1.5901970863342285	96901170.89496464
1.5942351818084717	97414893.86506365
1.5982669591903687	97478252.82141833
1.6022924184799194	95705178.47743516
1.606311559677124	93074892.71223558
1.6103241443634033	91196640.26282702
1.6143304109573364	89071051.93196498
1.6183301210403442	86693641.63936974
1.6223233938217163	86478348.26619576
1.6263102293014526	88030604.21409099
1.6302905082702637	89784946.9865017
1.634264349937439	92980287.23408729
1.638231635093689	97595672.25599064
1.6421923637390137	99603254.74751018
1.646146535873413	98451793.72561401
1.6500942707061768	98172421.60127068
1.6540353298187256	96066291.33281355
1.6579699516296387	93122482.52395952
1.661897897720337	88578814.84770925
1.6658192873001099	67653428.31550689
1.6697341203689575	51233545.41294006
1.6736423969268799	63581005.68911737
1.677544116973877	79312487.58884466
1.6814392805099487	81568412.33400509
1.6853278875350952	77369909.67313108
1.6892099380493164	71547543.53725691
1.6930854320526123	65567434.533083424
1.696954369544983	60068784.18044745
1.7008168697357178	56825194.9282636
1.7046726942062378	56358715.50651939
1.708522081375122	57302044.428009965
1.712364912033081	56949739.16575365
1.7162011861801147	55417076.001445904
1.7200311422348022	54666737.02919385
1.723854422569275	52779949.54639983
1.7276713848114014	49611671.62023964
1.731481909751892	46687227.06802436
1.7352858781814575	44447183.53851859
1.7390835285186768	43473633.44256238
1.7428747415542603	42857791.09575415
1.7466596364974976	41474436.430608585
1.7504380941390991	39602161.32630475
1.7542102336883545	36813769.51404721
1.7579760551452637	34205017.09067718
1.7617355585098267	32949489.01752985
1.7654887437820435	31082162.367635384
1.7692357301712036	28226076.0154919
1.7729763984680176	25908130.349030193
1.776710867881775	24630713.780826986
1.7804391384124756	23958593.134290256
1.7841613292694092	22360997.177887775
1.7878772020339966	20801007.80373333
1.7915871143341064	19492169.07946514
1.7952908277511597	18681353.206771318
1.7989884614944458	18478783.36067865
1.8026801347732544	16953768.41010454
1.806365728378296	16086253.844391337
1.8100452423095703	16728866.883815719
1.8137187957763672	17698867.97045774
1.817386507987976	16968486.15329543
1.8210482597351074	16214070.864837041
1.8247040510177612	17631927.391347475
1.828354001045227	17657896.326190826
1.8319982290267944	16283927.44138086
1.8356364965438843	15413622.143946422
1.8392690420150757	15233403.773614466
1.8428958654403687	15334898.83767717
1.8465168476104736	14642132.986493342
1.8501322269439697	14242836.222982083
1.8537418842315674	13878786.307729548
1.8573459386825562	12054051.64074185
1.860944390296936	10549800.780376114
1.864537239074707	10583236.86855796
1.8681244850158691	11206231.54054604
1.871706247329712	12158543.755188074
1.8752825260162354	13702028.75517464
1.8788533210754395	16033154.990809387
1.8824186325073242	18388914.55753308
1.8859784603118896	19460114.603750803
1.8895330429077148	19553054.340137333
1.8930821418762207	20457299.319212925
1.8966259956359863	21801336.531010974
1.9001644849777222	21673325.744491138
1.9036977291107178	21055349.682880428
1.9072256088256836	21774972.156078223
1.9107483625411987	22020612.615935363
1.9142658710479736	21517869.192739397
1.9177782535552979	21730997.270210646
1.9212853908538818	21044045.071052313
1.9247875213623047	19847808.545536872
1.9282845258712769	18846242.86434045
1.9317764043807983	17498466.132026333
1.9352631568908691	16072040.531701272
1.9387450218200684	14470383.819706291
1.942221760749817	14584637.524270277
1.9456936120986938	16130532.953804377
1.9491604566574097	17029954.198722128
1.952622413635254	16885147.186938412
1.956079363822937	16081014.144813485
1.959531545639038	16168412.359351708
1.962978720664978	16804631.7688493
1.966421127319336	17828015.496333748
1.9698586463928223	18849729.79240673
1.9732913970947266	18594238.16094802
1.9767193794250488	18496376.159278065
1.9801424741744995	18930759.701123547
1.9835609197616577	19686240.456350904
1.9869745969772339	20532357.447636805
1.990383505821228	20642978.857393418
1.9937876462936401	21844573.491645236
1.9971871376037598	23059200.101140503
2.000581979751587	23739940.88001116
2.003972291946411	24879338.149685483
2.007357597351074	24901299.348653257
2.0107386112213135	25457124.451864563
2.0141148567199707	27121726.027723975
2.017486572265625	27740309.69744491
2.0208535194396973	29530175.706517816
2.0242159366607666	31767654.318153925
2.027573823928833	31354645.797919396
2.0309269428253174	31640073.363836605
2.034275770187378	33969379.39853106
2.0376198291778564	35387414.16763609
2.040959596633911	35646547.97055442
2.044294595718384	36753365.37812333
2.0476250648498535	38660531.87909218
2.0509510040283203	39125613.44019128
2.054272413253784	39341811.79820319
2.057589530944824	41702667.0370575
2.0609018802642822	42830419.46568561
2.0642096996307373	42570391.78068079
2.0675129890441895	43711251.38126175
2.0708119869232178	44364786.4207399
2.074106216430664	44193893.51442111
2.0773961544036865	44499817.496486746
2.080681324005127	45070236.29562027
2.0839622020721436	45447761.080566555
2.087238311767578	45897426.879815765
2.090510129928589	46593647.99055909
2.0937774181365967	46890063.830099784
2.0970399379730225	46840933.526430234
2.1002981662750244	46603489.055766836
2.1035518646240234	46205426.995734915
2.1068007946014404	45774475.07861722
2.1100454330444336	45520355.78631489
2.1132853031158447	45856401.71355981
2.116520881652832	45523902.29620789
2.1197516918182373	44908804.62311407
2.1229779720306396	45188022.98863193
2.12619948387146	45102940.787011154
2.1294167041778564	44352060.291739255
2.132629156112671	44139744.801876195
2.1358368396759033	43871015.022678085
2.139039993286133	42387207.18364348
2.1422386169433594	40333602.545187734
2.145432472229004	38763902.01782293
2.1486217975616455	38108508.263317876
2.151806354522705	37848822.182929955
2.1549863815307617	37565369.39321797
2.1581614017486572	36914632.05271966
2.16133189201355	35869850.59926048
2.1644976139068604	34920059.947933875
2.167658567428589	33855011.87101039
2.1708147525787354	32813334.52545617
2.173966407775879	31610747.87507996
2.1771130561828613	30043812.804190822
2.1802549362182617	28782025.18601671
2.183391809463501	27314053.171071902
2.1865241527557373	25297898.485746294
2.1896514892578125	23152233.06562044
2.1927738189697266	20672936.861581672
2.1958916187286377	17181405.808302045
2.1990041732788086	13122938.612911256
2.2021119594573975	10025933.59365832
2.2052149772644043	8466847.840028629
2.208312749862671	8580891.952828672
2.2114057540893555	10161282.496982051
2.214493751525879	12257233.374425549
2.217576742172241	13717639.93183046
2.2206547260284424	14227459.455142451
2.2237277030944824	14095730.70311892
2.2267956733703613	13340277.538061786
2.2298583984375	12532477.406090803
2.2329163551330566	12020403.967971517
2.235969066619873	11542534.270130558
2.2390167713165283	10958948.748845832
2.2420592308044434	10167570.133957734
2.2450966835021973	9397272.042968083
2.248128890991211	9003541.926333714
2.2511560916900635	8833135.695680078
2.254178285598755	8730975.271540089
2.257194995880127	8673204.951324685
2.260206699371338	8586864.864521882
2.2632133960723877	8589472.501996003
2.266214609146118	8498708.62269656
2.2692108154296875	8265032.083492144
2.2722020149230957	8131194.119275936
2.2751877307891846	8043570.075427659
2.278168201446533	7786648.599211185
2.2811436653137207	7231033.871547152
2.284113883972168	6575382.375238054
2.287078857421875	6093555.352682994
2.290038824081421	5589227.10203773
2.2929933071136475	5138737.553241632
2.295942783355713	5182558.498651988
2.298887014389038	5763835.882618106
2.301826238632202	6485172.156354426
2.304760217666626	7435484.116430926
2.3076889514923096	9112507.8105521
2.310612440109253	10765261.460266946
2.3135311603546143	10735156.694682892
2.3164443969726562	8206801.980437936
2.319352865219116	5479686.880256893
2.322256088256836	4493931.217160495
2.3251543045043945	4142710.803580367
2.328047275543213	3999568.4473590762
2.330935478210449	4227754.778818453
2.3338186740875244	4535116.958391346
2.3366971015930176	4829480.140137482
2.3395702838897705	5117834.103790456
2.3424389362335205	5255427.303475702
2.3453025817871094	5186050.016610054
2.348161458969116	5179758.84285984
2.351015567779541	5416372.544660256
2.353865146636963	5848198.286292799
2.3567099571228027	6317422.52902878
2.3595502376556396	6805348.147002509
2.3623859882354736	7384226.962759979
2.3652172088623047	7899361.858122928
2.368043899536133	7518921.22846157
2.370866537094116	5835653.501819197
2.3736846446990967	4815715.452716772
2.3764986991882324	4923261.613679806
2.3793084621429443	4695493.618673309
2.3821144104003906	4309437.989799085
2.384916305541992	4694517.452625402
2.387714147567749	5783863.311351425
2.3905084133148193	6389227.9493113775
2.393299102783203	6470877.0113038495
2.3960859775543213	6854397.109621556
2.398869514465332	7468046.146866645
2.4016497135162354	7974990.082488288
2.4044265747070312	8488933.14478556
2.407200336456299	8710673.90183837
2.409970998764038	8787456.877012279
2.4127390384674072	9151854.93709398
2.415503978729248	9171899.727864208
2.418266534805298	8954346.420060528
2.4210267066955566	8910297.329511506
2.4237842559814453	8501074.921665745
2.426539897918701	8101829.747228293
2.429293394088745	8495178.44483155
2.4320452213287354	9037490.363462482
2.4347951412200928	8819839.007840864
2.4375438690185547	8989331.863357006
2.440291166305542	9718247.920557264
2.443037271499634	9581746.74242898
2.445782423019409	9163471.014943998
2.4485268592834473	9151803.965846142
2.451270818710327	9058648.736769019
2.454014539718628	9096293.864696728
2.4567582607269287	9899240.78745452
2.4595019817352295	10268903.11874615
2.4622461795806885	10547978.807619393
2.4649908542633057	11094072.825170292
2.4677364826202393	10249739.856090102
2.4704833030700684	9189902.676022116
2.473231554031372	8932064.97789939
2.4759814739227295	9295978.738351114
2.4787333011627197	9711221.028731849
2.481487512588501	9752864.24981996
