#wavelength	surface flux
0.6450077295303345	15029.523906530028
0.6472567915916443	24252.423497398995
0.6494921445846558	33019.620156133606
0.6517150402069092	39794.0895888326
0.6539263725280762	47247.19974183377
0.6561272740364075	55560.92237823076
0.6583186388015747	64766.301856365695
0.6605015397071838	74853.12534107394
0.6626768708229065	85633.79153826619
0.6648455858230591	96439.16770078897
0.6670085787773132	102517.94392652441
0.6691668033599854	95231.41546274349
0.6713210344314575	94048.28670060169
0.6734722256660461	123271.8727629241
0.6756211519241333	158126.7469337744
0.6777685880661011	179155.29131653244
0.6799154281616211	195108.4125571654
0.6820623278617859	209417.8833750105
0.6842101216316223	222327.32528964523
0.6863595843315125	233554.90670227748
0.688511312007904	242301.27092991586
0.6906660795211792	246884.9204447845
0.6928245425224304	248320.04228032945
0.6949873566627502	251288.61950811336
0.6971551775932312	254794.0781350093
0.6993286609649658	253793.33045636842
0.7015084028244019	248595.9720633112
0.7036949396133423	241569.96651164774
0.7058889269828796	233084.0788027733
0.7080909013748169	222854.84155423054
0.710301399230957	210908.2157267129
0.712520956993103	197362.33271243054
0.7147500514984131	181141.8504013407
0.7169892191886902	162834.9714971403
0.7192389369010925	146993.78972330186
0.7214996814727783	133653.63110160403
0.723771870136261	119385.99411568293
0.7260559797286987	104904.89231018063
0.7283523678779602	91778.82855653064
0.7306615710258484	79805.4342500721
0.7329838871955872	68925.5632351464
0.7353196740150452	58946.602707926664
0.7376693487167358	49419.1228994983
0.7400332689285278	40692.24003775497
0.7424117922782898	32999.37620492726
0.7448052167892456	26371.967586314095
0.7472138404846191	20763.41931911114
0.7496379613876343	16099.49781071573
0.7520779371261597	12333.763632772152
0.7545340061187744	9375.919302271674
0.7570064663887024	7087.040987573814
0.7594954967498779	5283.074903899907
0.7620013952255249	3708.0656956707585
0.7645244002342224	2204.670784189822
0.7670646905899048	1205.760467562528
0.7696225643157959	1319.5184593299323
0.7721980810165405	2729.0105016483258
0.7747915983200073	4986.717728993342
0.7774031162261963	7264.734426239564
0.7800329327583313	10063.804586975737
0.7826811671257019	15151.456942479503
0.7853479981422424	22519.24274861906
0.7880334854125977	31537.442417104903
0.7907378077507019	40521.32572687599
0.7934610247612	47409.83818895733
0.7962033748626709	63699.893644591786
0.7989648580551147	95263.56685932059
0.801745593547821	130173.84701591036
0.8045456409454346	165872.40356167583
0.8073651194572449	205547.09923678762
0.8102040886878967	248456.0967288337
0.8130625486373901	297143.1183530196
0.8159406185150146	357460.2021581034
0.8188382983207703	429669.632762589
0.8217556476593018	510579.07161882526
0.8246926665306091	605303.3491501356
0.8276493549346924	712998.6944313901
0.8306257724761963	826701.1055903839
0.8336219191551208	950817.3527395739
0.8366377949714661	1089308.0668130247
0.8396733403205872	1243658.9171696738
0.8427285552024841	1416977.068460956
0.8458034992218018	1594407.1895704512
0.8488980531692505	1678064.4205741466
0.8520121574401855	1727245.4609848442
0.8551458716392517	2044100.3623965825
0.8582990765571594	2434666.9153036196
0.8614717125892639	2540299.462316145
0.8646637797355652	2601230.3240941544
0.8678751587867737	2836341.8324875543
0.8711057901382446	3115584.1632064627
0.8743556141853333	3402999.2729381346
0.87762451171875	3696725.7206875044
0.8809124231338501	3875942.843838264
0.8842192888259888	3985925.0613962873
0.8875449895858765	4101220.2098694793
0.8908893465995789	3978512.1555176256
0.894252359867096	3800958.9850089536
0.8976338505744934	4460969.890093766
0.9010337591171265	5789584.891805041
0.9044519662857056	6967022.071499024
0.9078882932662964	7748997.083115286
0.9113426208496094	8190602.844864776
0.914814829826355	8512475.254670477
0.9183048605918884	8987346.964535223
0.9218124747276306	9342598.469365878
0.925337553024292	8254248.988434709
0.9288799166679382	6017721.5799890375
0.9324395060539246	5026592.175270613
0.9360161423683167	5826050.937276876
0.9396095871925354	7173648.716049191
0.943219780921936	7980957.883487916
0.9468464851379395	8111811.26351369
0.9504896402359009	8171724.860116513
0.9541489481925964	8180375.812015675
0.9578243494033813	8044468.990083517
0.9615156054496765	8265214.504942657
0.9652225375175476	9226626.347657798
0.9689450263977051	10503916.082754277
0.9726828336715698	11468470.59802155
0.9764357805252075	12310903.28070561
0.9802037477493286	13233992.59756173
0.983986496925354	14099987.877826935
0.9877838492393494	15042006.515274946
0.9915955662727356	15934955.3748925
0.9954215884208679	16166479.118633104
0.9992615580558777	15444708.284369394
1.0031154155731201	15324764.664312832
1.0069829225540161	16661864.686923869
1.0108637809753418	18599495.09131204
1.0147579908370972	20835550.46637818
1.018665075302124	23166836.1677517
1.022585153579712	25217005.370105837
1.0265177488327026	26920175.35252834
1.0304628610610962	28784087.99330521
1.0344202518463135	31054050.792899523
1.0383895635604858	33269766.135714453
1.0423706769943237	35059496.61962147
1.0463634729385376	36451759.8352501
1.0503677129745483	37496254.02252686
1.0543830394744873	38474767.14715472
1.058409333229065	39617800.39902532
1.0624464750289917	40969310.76526812
1.0664942264556885	42405158.274868056
1.0705522298812866	43796507.64253223
1.0746204853057861	45377991.7263725
1.0786986351013184	46847829.869014286
1.0827864408493042	47238680.313680924
1.086883783340454	44442550.75739644
1.0909905433654785	37184412.65442275
1.0951062440872192	28347195.418759562
1.0992310047149658	21386260.43796062
1.10336434841156	16265187.966914238
1.1075061559677124	12224557.780756894
1.1116561889648438	9298113.419638434
1.115814208984375	7844976.394311681
1.1199802160263062	7810500.602372843
1.124153733253479	8650079.16201974
1.1283347606658936	9064058.885560011
1.1325229406356812	7802232.647331895
1.1367181539535522	7358223.861350856
1.1409201622009277	8842504.844854258
1.145128846168518	10053928.715679754
1.1493438482284546	10348782.829770979
1.1535650491714478	9759772.630454097
1.1577922105789185	9147939.59501632
1.1620250940322876	8921914.05352715
1.1662636995315552	8781938.528270207
1.170507550239563	9434917.481611703
1.174756646156311	10607253.344425837
1.1790107488632202	12497483.932193099
1.1832695007324219	15822393.71367612
1.1875330209732056	19406819.28575676
1.191800832748413	23074768.311572894
1.1960728168487549	27154244.71310776
1.2003488540649414	30938130.554276913
1.2046287059783936	34699330.89507179
1.2089121341705322	38257997.36262549
1.2131990194320679	41451779.88859852
1.2174891233444214	44763053.12001333
1.2217823266983032	47936976.71300852
1.2260783910751343	51208758.80096739
1.230377197265625	54434740.86838142
1.2346785068511963	56636595.79246474
1.238982081413269	56092694.62329814
1.2432878017425537	53865381.024535984
1.2475954294204712	52578196.68789007
1.2519049644470215	51532573.951308094
1.256216049194336	56476678.84993362
1.2605286836624146	65040768.29034826
1.2648425102233887	67960847.89486675
1.2691574096679688	67483718.97441632
1.2734732627868652	66238246.93439407
1.2777899503707886	64700623.067370355
1.2821072340011597	62069750.72754724
1.2864248752593994	57834781.24669605
1.2907428741455078	54414532.065500595
1.2950609922409058	53047328.97286155
1.2993791103363037	51771978.88382229
1.303696870803833	49891523.56800769
1.3080145120620728	47570295.26023966
1.3123314380645752	43839537.60438605
1.3166478872299194	40068676.776239514
1.3209635019302368	36733704.7951504
1.3252781629562378	30531893.18242688
1.3295916318893433	20168613.57369849
1.3339040279388428	9861219.387817482
1.3382149934768677	4157781.8653064542
1.3425244092941284	2254628.726543792
1.3468321561813354	1543396.9755524874
1.3511382341384888	1127235.3733221516
1.3554422855377197	870790.1042728956
1.3597444295883179	839884.9151243916
1.3640443086624146	1042570.2025561437
1.3683418035507202	1215687.7663038254
1.3726370334625244	1356539.9364881655
1.3769296407699585	1617415.379512495
1.381219506263733	1656109.6178755867
1.3855066299438477	1505900.3678849894
1.3897908926010132	1460601.101162661
1.3940720558166504	1404403.7643260628
1.3983501195907593	1353745.933830102
1.4026249647140503	1391876.6105629087
1.4068963527679443	1373096.1851370689
1.4111642837524414	1324162.0222544102
1.4154287576675415	1363584.0166095495
1.419689416885376	1368709.2606263072
1.4239463806152344	1400097.6722322179
1.4281994104385376	1641633.7216413296
1.4324485063552856	1917182.9085774
1.436693549156189	2074558.3061541675
1.440934419631958	2239280.728767144
1.4451709985733032	2544514.4296588534
1.449403166770935	3201920.86968459
1.453631043434143	3983129.092556904
1.4578542709350586	4502990.824364122
1.4620729684829712	4706686.76821583
1.4662868976593018	4691710.303038772
1.4704961776733398	4665133.141672918
1.4747005701065063	4923860.302834104
1.4788999557495117	5390105.865121586
1.4830944538116455	5719783.7149279695
1.4872838258743286	6046274.942991221
1.491468071937561	6517813.693123006
1.4956470727920532	7109634.1906012455
1.4998208284378052	7812748.697972583
1.5039892196655273	8553654.28687241
1.5081522464752197	9396655.708125465
1.5123097896575928	10337008.121154716
1.5164618492126465	11143188.975511337
1.5206083059310913	12135406.824785935
1.5247491598129272	13403446.765675785
1.5288842916488647	14650274.885295229
1.5330137014389038	15993071.013414126
1.5371372699737549	17198877.517215006
1.541254997253418	18236040.358294018
1.545366883277893	19676234.477753732
1.5494728088378906	21018663.003663313
1.5535727739334106	21704117.257151563
1.5576666593551636	22659795.45473908
1.561754584312439	24821048.479335673
1.5658363103866577	27385223.59586786
1.5699119567871094	28816582.740461662
1.5739814043045044	29413405.554606855
1.5780447721481323	30189880.525648706
1.582101821899414	30956742.047029696
1.5861525535583496	31127245.95142203
1.5901970863342285	30515088.080097027
1.5942351818084717	29589380.134285253
1.5982669591903687	28463136.039190095
1.6022924184799194	26556119.576887693
1.606311559677124	24271590.477406565
1.6103241443634033	22288264.26129088
1.6143304109573364	20137926.377125308
1.6183301210403442	18098706.65651545
1.6223233938217163	17368037.966592833
1.6263102293014526	17673188.672792662
1.6302905082702637	18264394.519293845
1.634264349937439	19667482.53816258
1.638231635093689	21969688.644512754
1.6421923637390137	22927486.637474146
1.646146535873413	21610036.465685852
1.6500942707061768	21080332.405842856
1.6540353298187256	20506823.695696887
1.6579699516296387	19252406.53003372
1.661897897720337	18444247.112279303
1.6658192873001099	12688302.597236507
1.6697341203689575	6899167.517149334
1.6736423969268799	9189987.952656517
1.677544116973877	13055118.628572809
1.6814392805099487	13406140.313445609
1.6853278875350952	12236242.594183646
1.6892099380493164	10871590.27760587
1.6930854320526123	9355099.909366917
1.696954369544983	7996827.485349301
1.7008168697357178	7209353.041192409
1.7046726942062378	7361202.802146075
1.708522081375122	8467328.542495055
1.712364912033081	9453064.617096424
1.7162011861801147	10046367.524388298
1.7200311422348022	10497613.377107665
1.723854422569275	10084062.21968649
1.7276713848114014	9362773.616456434
1.731481909751892	8898001.026043868
1.7352858781814575	8627049.065091126
1.7390835285186768	8821518.916880246
1.7428747415542603	9175614.1314096
1.7466596364974976	9267217.303443091
1.7504380941390991	8983508.403997028
1.7542102336883545	8129719.91048919
1.7579760551452637	7257150.425989372
1.7617355585098267	6872218.602529892
1.7654887437820435	6449023.803434188
1.7692357301712036	5786065.689317834
1.7729763984680176	5217251.276658994
1.776710867881775	5010968.035312195
1.7804391384124756	5000546.239598921
1.7841613292694092	4614308.659193752
1.7878772020339966	4143962.3246621573
1.7915871143341064	3683390.8777077124
1.7952908277511597	3432572.5159795964
1.7989884614944458	3509603.758611663
1.8026801347732544	3163145.6504956204
1.806365728378296	2911234.64430781
1.8100452423095703	3096035.1615114664
1.8137187957763672	3309101.344923174
1.817386507987976	3128870.674144887
1.8210482597351074	3094144.833273596
1.8247040510177612	3523306.131811657
1.828354001045227	3325681.0120160487
1.8319982290267944	2794373.5180224446
1.8356364965438843	2522964.4740658086
1.8392690420150757	2510508.659982433
1.8428958654403687	2792433.511095996
1.8465168476104736	2824591.6762239784
1.8501322269439697	2727892.2198839583
1.8537418842315674	2672943.1428304384
1.8573459386825562	2294669.855253865
1.860944390296936	1907522.4702446642
1.864537239074707	1771786.1736213106
1.8681244850158691	1736782.4312886526
1.871706247329712	1911812.6186393823
1.8752825260162354	2485532.1352156256
1.8788533210754395	3390885.0554044824
1.8824186325073242	4102303.5761147086
1.8859784603118896	4273203.73460128
1.8895330429077148	4275409.552102861
1.8930821418762207	4697039.412468934
1.8966259956359863	5063410.174837459
1.9001644849777222	4622158.727377261
1.9036977291107178	4213654.409419894
1.9072256088256836	4471169.860942243
1.9107483625411987	4457965.612432857
1.9142658710479736	4170547.158037959
1.9177782535552979	4291268.675568805
1.9212853908538818	4170019.129333161
1.9247875213623047	3737625.3444752404
1.9282845258712769	3337965.5757282055
1.9317764043807983	2965426.5248121535
1.9352631568908691	2689643.9924014304
1.9387450218200684	2429612.1349052936
1.942221760749817	2571087.7354409816
1.9456936120986938	2937641.5341137517
1.9491604566574097	3119818.0119187767
1.952622413635254	3128388.851720135
1.956079363822937	3014844.007359194
1.959531545639038	3123254.291528802
1.962978720664978	3378783.2029046495
1.966421127319336	3722011.6823282773
1.9698586463928223	3994125.9601229727
1.9732913970947266	3987435.5184597685
1.9767193794250488	4139963.378612524
1.9801424741744995	4368977.595898449
1.9835609197616577	4655545.154455407
1.9869745969772339	4991301.170870004
1.990383505821228	5132860.472960576
1.9937876462936401	5672299.349265082
1.9971871376037598	6231748.552823023
2.000581979751587	6534819.122696127
2.003972291946411	6862507.060955745
2.007357597351074	6896046.804671235
2.0107386112213135	7217166.86549891
2.0141148567199707	7725360.211372569
2.017486572265625	7787061.040731518
2.0208535194396973	8486482.877292523
2.0242159366607666	9470976.015414393
2.027573823928833	9451568.268478142
2.0309269428253174	9608608.044187346
2.034275770187378	10523960.757750746
2.0376198291778564	11066346.525449688
2.040959596633911	11126535.674179861
2.044294595718384	11723402.483618231
2.0476250648498535	12692872.3941065
2.0509510040283203	12872887.047273858
2.054272413253784	12935439.349295547
2.057589530944824	13883736.018943565
2.0609018802642822	14383082.715642331
2.0642096996307373	14343956.272763077
2.0675129890441895	14704315.20675493
2.0708119869232178	14935282.299511235
2.074106216430664	14943145.97719528
2.0773961544036865	15000706.659049688
2.080681324005127	15158024.564476904
2.0839622020721436	15284302.569026344
2.087238311767578	15386564.000616487
2.090510129928589	15561660.595172077
2.0937774181365967	15553621.414416859
2.0970399379730225	15371952.502628338
2.1002981662750244	15066712.367000591
2.1035518646240234	14725156.047796153
2.1068007946014404	14423375.02470472
2.1100454330444336	14155733.60624625
2.1132853031158447	14097615.687953837
2.116520881652832	13818023.421006666
2.1197516918182373	13421761.920742523
2.1229779720306396	13346906.493305203
2.12619948387146	13219288.96186457
2.1294167041778564	12914635.009528954
2.132629156112671	12739288.206759697
2.1358368396759033	12514075.460800903
2.139039993286133	11858124.326841153
2.1422386169433594	10807926.316591518
2.145432472229004	9870947.842577124
2.1486217975616455	9572467.485428799
2.151806354522705	9545740.700811228
2.1549863815307617	9368604.660911862
2.1581614017486572	8997532.96693101
2.16133189201355	8476712.597440472
2.1644976139068604	8026541.7198219495
2.167658567428589	7611336.018231435
2.1708147525787354	7316729.72827366
2.173966407775879	7046881.353188014
2.1771130561828613	6626881.1118536685
2.1802549362182617	6253539.533741109
2.183391809463501	5813436.572070342
2.1865241527557373	5259658.842639339
2.1896514892578125	4615901.503739261
2.1927738189697266	3802659.188241428
2.1958916187286377	2819902.447828182
2.1990041732788086	1844717.81343921
2.2021119594573975	1254871.1197840539
2.2052149772644043	1129519.0515393761
2.208312749862671	1309288.102646772
2.2114057540893555	1662278.9918968189
2.214493751525879	2028187.4103355259
2.217576742172241	2265441.3803197197
2.2206547260284424	2331015.6096230354
2.2237277030944824	2244108.5956140105
2.2267956733703613	2046544.3293216515
2.2298583984375	1856806.5404980078
2.2329163551330566	1745493.1074826731
2.235969066619873	1659661.6364972447
2.2390167713165283	1520158.1919719572
2.2420592308044434	1361076.7046764037
2.2450966835021973	1229319.9879094383
2.248128890991211	1134219.0065215265
2.2511560916900635	1087306.2520115385
2.254178285598755	1066365.3523893384
2.257194995880127	1059643.232117527
2.260206699371338	1061485.4717527074
2.2632133960723877	1083809.7128901351
2.266214609146118	1102931.149232495
2.2692108154296875	1095694.9957792452
2.2722020149230957	1085568.2651700007
2.2751877307891846	1061150.828530068
2.278168201446533	1035364.6504276594
2.2811436653137207	977941.8900369667
2.284113883972168	861955.7320795298
2.287078857421875	768945.9467768929
2.290038824081421	698562.6449279104
2.2929933071136475	645879.7373731413
2.295942783355713	664211.2592766237
2.298887014389038	764622.9649141576
2.301826238632202	886087.5654440225
2.304760217666626	1066712.6319604015
2.3076889514923096	1452800.8452802363
2.310612440109253	1931482.6034098093
2.3135311603546143	2016928.0195135141
2.3164443969726562	1387042.342416189
2.319352865219116	710825.7608404845
2.322256088256836	540117.2550260522
2.3251543045043945	536590.0244649972
2.328047275543213	538980.719972183
2.330935478210449	592862.8726949162
2.3338186740875244	656373.710741887
2.3366971015930176	708367.8672950423
2.3395702838897705	747823.6832283789
2.3424389362335205	751836.3259313754
2.3453025817871094	710351.7960547886
2.348161458969116	695971.1602397437
2.351015567779541	748694.2049769142
2.353865146636963	822915.683976224
2.3567099571228027	905985.5619555893
2.3595502376556396	1038519.6170643045
2.3623859882354736	1196147.224573118
2.3652172088623047	1290988.8031647585
2.368043899536133	1176532.9383609514
2.370866537094116	819424.5152138424
2.3736846446990967	615522.6046233339
2.3764986991882324	662256.4679082743
2.3793084621429443	668701.2097701238
2.3821144104003906	634503.6996190568
2.384916305541992	736597.2507643241
2.387714147567749	961970.8144371812
2.3905084133148193	1069554.2706431968
2.393299102783203	1061715.4326738636
2.3960859775543213	1120947.2660840696
2.398869514465332	1263765.300967633
2.4016497135162354	1418478.0882442931
2.4044265747070312	1550595.51594813
2.407200336456299	1599404.079694695
2.409970998764038	1667195.1662764573
2.4127390384674072	1807349.8698243091
2.415503978729248	1779108.5293963782
2.418266534805298	1669978.8225707095
2.4210267066955566	1651155.797806072
2.4237842559814453	1543825.4342618736
2.426539897918701	1462837.5564742747
2.429293394088745	1635364.7416779508
2.4320452213287354	1826002.9642601942
2.4347951412200928	1787161.908308042
2.4375438690185547	1866478.0144393542
2.440291166305542	2113135.1142444494
2.443037271499634	2126997.5095183416
2.445782423019409	2026027.4525715022
2.4485268592834473	2017769.2062561975
2.451270818710327	2024565.2790731087
2.454014539718628	2089137.2877481214
2.4567582607269287	2310936.738490828
2.4595019817352295	2428779.986796712
2.4622461795806885	2558243.5356926033
2.4649908542633057	2763712.7987485635
2.4677364826202393	2576226.7713132235
2.4704833030700684	2274348.7104774686
2.473231554031372	2191587.004933232
2.4759814739227295	2289365.0572086256
2.4787333011627197	2409681.7049158835
