#wavelength	surface flux
0.6450077295303345	83736.78069703173
0.6472567915916443	134152.64288173392
0.6494921445846558	180473.27820266254
0.6517150402069092	214745.38311468932
0.6539263725280762	251967.3683796325
0.6561272740364075	293103.63213303155
0.6583186388015747	338113.67084840167
0.6605015397071838	386192.9528766153
0.6626768708229065	434866.8535667248
0.6648455858230591	476056.0159984309
0.6670085787773132	476510.4360601141
0.6691668033599854	396717.47815525794
0.6713210344314575	361746.84345941275
0.6734722256660461	514528.0548440998
0.6756211519241333	717604.1298253788
0.6777685880661011	842972.5513456137
0.6799154281616211	927936.222818983
0.6820623278617859	1000675.5254771729
0.6842101216316223	1064941.2088035261
0.6863595843315125	1118784.3093866594
0.688511312007904	1157729.5992197373
0.6906660795211792	1171891.6985503538
0.6928245425224304	1169756.8607466118
0.6949873566627502	1182902.0363916904
0.6971551775932312	1205997.133092611
0.6993286609649658	1205439.817147874
0.7015084028244019	1182825.8978767763
0.7036949396133423	1149525.7561531286
0.7058889269828796	1103508.8059251232
0.7080909013748169	1050366.8951780454
0.710301399230957	995108.3630624063
0.712520956993103	934871.4850148801
0.7147500514984131	864028.5519838377
0.7169892191886902	786745.5599473021
0.7192389369010925	720766.0762854399
0.7214996814727783	662913.2458265465
0.723771870136261	599238.9482857962
0.7260559797286987	533939.1628439787
0.7283523678779602	473852.43269415473
0.7306615710258484	417959.84514991863
0.7329838871955872	365980.2763691525
0.7353196740150452	317663.8474618891
0.7376693487167358	271050.3431504761
0.7400332689285278	227433.46300110038
0.7424117922782898	187827.30405447452
0.7448052167892456	152455.0887369286
0.7472138404846191	121062.26563139465
0.7496379613876343	93325.73108707143
0.7520779371261597	69390.53448003081
0.7545340061187744	49374.912212830284
0.7570064663887024	33215.382671738786
0.7594954967498779	20747.081290385257
0.7620013952255249	11624.630607628736
0.7645244002342224	5465.968977737839
0.7670646905899048	2411.417468663144
0.7696225643157959	2690.037922735385
0.7721980810165405	6972.541548131753
0.7747915983200073	15802.094230382196
0.7774031162261963	27356.22550742155
0.7800329327583313	44162.171353665275
0.7826811671257019	75016.78632216962
0.7853479981422424	118327.92202641492
0.7880334854125977	168654.124393871
0.7907378077507019	215962.38222141485
0.7934610247612	248371.45007182375
0.7962033748626709	324270.74386728846
0.7989648580551147	471841.28627566155
0.801745593547821	628010.0587230215
0.8045456409454346	779453.3177410826
0.8073651194572449	943038.4417390106
0.8102040886878967	1117810.9426081495
0.8130625486373901	1314508.9088062095
0.8159406185150146	1540416.6175291804
0.8188382983207703	1797778.5230153324
0.8217556476593018	2122334.2122244076
0.8246926665306091	2519292.4975390523
0.8276493549346924	2944122.5355539876
0.8306257724761963	3386735.3905334114
0.8336219191551208	3869396.5243420717
0.8366377949714661	4400211.4330572365
0.8396733403205872	4981733.815117166
0.8427285552024841	5608498.858582694
0.8458034992218018	6212507.450482293
0.8488980531692505	6420236.974045333
0.8520121574401855	6489916.776387869
0.8551458716392517	7647751.5105717955
0.8582990765571594	8927068.499431437
0.8614717125892639	8555876.5271962
0.8646637797355652	7905228.090464683
0.8678751587867737	8321359.326864474
0.8711057901382446	8959215.371320184
0.8743556141853333	9681778.654486941
0.87762451171875	10697607.465224924
0.8809124231338501	11662993.001755716
0.8842192888259888	12683351.743183596
0.8875449895858765	13559130.455952926
0.8908893465995789	13343175.455795255
0.894252359867096	12889164.176657071
0.8976338505744934	15135883.17865066
0.9010337591171265	19297433.89063301
0.9044519662857056	22860110.601727646
0.9078882932662964	25544465.898453146
0.9113426208496094	27582933.590116333
0.914814829826355	29326782.256847996
0.9183048605918884	31049662.52996549
0.9218124747276306	31516341.39961783
0.925337553024292	27784025.911881093
0.9288799166679382	21635513.215819083
0.9324395060539246	19278173.802523974
0.9360161423683167	21450596.94553954
0.9396095871925354	24937509.216076132
0.943219780921936	27572513.903059304
0.9468464851379395	28742379.438131493
0.9504896402359009	29302408.969395485
0.9541489481925964	29346918.17095241
0.9578243494033813	28826008.22913027
0.9615156054496765	29107373.113865625
0.9652225375175476	31217705.89836384
0.9689450263977051	34099494.004698984
0.9726828336715698	36311828.876429185
0.9764357805252075	38496207.23153268
0.9802037477493286	41129826.87965344
0.983986496925354	43786834.75267071
0.9877838492393494	45746746.92595775
0.9915955662727356	45567497.12548904
0.9954215884208679	43154877.80576923
0.9992615580558777	37745536.02697684
1.0031154155731201	33681215.37588901
1.0069829225540161	35167385.83872666
1.0108637809753418	39644776.72563626
1.0147579908370972	45657409.75760334
1.018665075302124	52465743.251195535
1.022585153579712	58301118.145441286
1.0265177488327026	62419249.871395774
1.0304628610610962	67466925.54079401
1.0344202518463135	74673769.95158443
1.0383895635604858	81500039.67700918
1.0423706769943237	85974611.13573457
1.0463634729385376	87875661.10333617
1.0503677129745483	87653868.16972303
1.0543830394744873	87454942.8687478
1.058409333229065	89174345.23508938
1.0624464750289917	93120028.06493895
1.0664942264556885	98526246.54796952
1.0705522298812866	104553832.47673896
1.0746204853057861	111431542.00513156
1.0786986351013184	117995549.6097109
1.0827864408493042	121479497.0317632
1.086883783340454	116260197.6316712
1.0909905433654785	99403938.54121651
1.0951062440872192	78878801.27381738
1.0992310047149658	63292358.76968977
1.10336434841156	51499598.77355194
1.1075061559677124	41264597.609910525
1.1116561889648438	33711558.76616002
1.115814208984375	30053981.444666836
1.1199802160263062	29822237.649048313
1.124153733253479	32244389.004875127
1.1283347606658936	33512341.495706525
1.1325229406356812	28843922.316457693
1.1367181539535522	25258410.959436454
1.1409201622009277	28174998.421877645
1.145128846168518	33187420.23076089
1.1493438482284546	36386937.82435944
1.1535650491714478	36225141.741876684
1.1577922105789185	35501061.20880444
1.1620250940322876	34818442.18225018
1.1662636995315552	32553820.561189573
1.170507550239563	31308307.918321904
1.174756646156311	31100435.13175187
1.1790107488632202	32975598.280073293
1.1832695007324219	40357640.635151155
1.1875330209732056	49733245.82602458
1.191800832748413	58442912.49974428
1.1960728168487549	66800053.15064357
1.2003488540649414	74390213.41892247
1.2046287059783936	82826794.63892977
1.2089121341705322	91336929.82130899
1.2131990194320679	99279578.90295403
1.2174891233444214	107573600.34351394
1.2217823266983032	115680290.9340383
1.2260783910751343	124627145.56116696
1.230377197265625	133243623.94673987
1.2346785068511963	138520033.66521522
1.238982081413269	135515603.86940342
1.2432878017425537	127594288.82938342
1.2475954294204712	123726349.94774343
1.2519049644470215	121118803.29983461
1.256216049194336	133352591.39076588
1.2605286836624146	154385006.70965675
1.2648425102233887	161459724.77629623
1.2691574096679688	161835820.17434925
1.2734732627868652	161029403.76824316
1.2777899503707886	160007628.92295128
1.2821072340011597	156798000.85120848
1.2864248752593994	148702962.35345212
1.2907428741455078	142319196.1227326
1.2950609922409058	141058649.1432689
1.2993791103363037	139095350.36841446
1.303696870803833	134682177.03941104
1.3080145120620728	128249813.7016091
1.3123314380645752	119094455.15421648
1.3166478872299194	109955437.89159398
1.3209635019302368	100808658.66834609
1.3252781629562378	85307827.4704386
1.3295916318893433	58682547.93398696
1.3339040279388428	30360129.629972927
1.3382149934768677	14251127.687681876
1.3425244092941284	8992910.97801455
1.3468321561813354	6908111.7725256635
1.3511382341384888	5498369.864691647
1.3554422855377197	4631983.117035058
1.3597444295883179	4611057.452171843
1.3640443086624146	5390316.918387136
1.3683418035507202	5929626.467669002
1.3726370334625244	6129032.6907639885
1.3769296407699585	6770465.485411738
1.381219506263733	7049966.477226073
1.3855066299438477	6858409.498892462
1.3897908926010132	6785516.3645959925
1.3940720558166504	6499264.452115596
1.3983501195907593	6217586.69750136
1.4026249647140503	6231939.902502694
1.4068963527679443	5967486.274708122
1.4111642837524414	5619230.881291485
1.4154287576675415	5709266.78953449
1.419689416885376	5661725.366168557
1.4239463806152344	5525340.456260686
1.4281994104385376	5951827.476269973
1.4324485063552856	6655905.961059
1.436693549156189	7190133.385845374
1.440934419631958	7602860.316108313
1.4451709985733032	8221885.185499331
1.449403166770935	9761658.830159444
1.453631043434143	11742955.955423668
1.4578542709350586	13036377.67786482
1.4620729684829712	13438811.739443213
1.4662868976593018	13406869.97953046
1.4704961776733398	13479661.066067057
1.4747005701065063	14199373.043228505
1.4788999557495117	15317112.727172893
1.4830944538116455	16126765.543987704
1.4872838258743286	16995862.055855412
1.491468071937561	17990198.056715198
1.4956470727920532	18977638.533972386
1.4998208284378052	20189565.82064475
1.5039892196655273	21661755.62499878
1.5081522464752197	23705992.871811137
1.5123097896575928	26175185.364688035
1.5164618492126465	27857826.937818047
1.5206083059310913	29185136.766265042
1.5247491598129272	30857131.413059693
1.5288842916488647	32696104.585445724
1.5330137014389038	34971863.725307636
1.5371372699737549	36933549.97654052
1.541254997253418	38606547.111248225
1.545366883277893	41192354.33531243
1.5494728088378906	43517943.61251829
1.5535727739334106	44181644.19833551
1.5576666593551636	44925335.72230343
1.561754584312439	48522993.44076281
1.5658363103866577	53815900.97013696
1.5699119567871094	57187542.622177556
1.5739814043045044	58826160.85246392
1.5780447721481323	60262031.785851486
1.582101821899414	61953593.12324407
1.5861525535583496	63639746.414467596
1.5901970863342285	64216078.51104382
1.5942351818084717	64286619.465043634
1.5982669591903687	64003415.80735865
1.6022924184799194	61935668.61941247
1.606311559677124	59091448.48341552
1.6103241443634033	57180462.418229505
1.6143304109573364	55019368.70742227
1.6183301210403442	52741150.433209494
1.6223233938217163	53058771.34850782
1.6263102293014526	55296195.89608363
1.6302905082702637	57450359.91928772
1.634264349937439	60820851.01447609
1.638231635093689	65536671.37562361
1.6421923637390137	67224452.78003865
1.646146535873413	65048018.67418105
1.6500942707061768	64459085.04043306
1.6540353298187256	62785183.90479713
1.6579699516296387	59770275.35693818
1.661897897720337	57166057.34387925
1.6658192873001099	41905023.48668296
1.6697341203689575	27761618.444172386
1.6736423969268799	35596756.51061387
1.677544116973877	47272025.249309614
1.6814392805099487	48708528.54338894
1.6853278875350952	45279930.810753234
1.6892099380493164	40794532.4141321
1.6930854320526123	35999768.73514028
1.696954369544983	31700603.155760657
1.7008168697357178	29373215.039724536
1.7046726942062378	29472619.691759385
1.708522081375122	31166928.015101746
1.712364912033081	31950670.892836418
1.7162011861801147	31630548.372156646
1.7200311422348022	31653109.89928905
1.723854422569275	30424054.5615854
1.7276713848114014	28169778.951039717
1.731481909751892	26188315.674291678
1.7352858781814575	25061860.651676573
1.7390835285186768	25359514.8760005
1.7428747415542603	25961454.6281534
1.7466596364974976	25679486.84660306
1.7504380941390991	24668939.060467556
1.7542102336883545	22885651.862944596
1.7579760551452637	21116499.38198052
1.7617355585098267	20160764.40362797
1.7654887437820435	18881094.967200264
1.7692357301712036	16984925.221366383
1.7729763984680176	15558935.63113393
1.776710867881775	15128889.506996999
1.7804391384124756	15111277.386160402
1.7841613292694092	14159947.65512926
1.7878772020339966	12956022.911495704
1.7915871143341064	11796912.250260431
1.7952908277511597	11242354.476805294
1.7989884614944458	11377335.117986513
1.8026801347732544	10523183.528142806
1.806365728378296	9978095.80152328
1.8100452423095703	10426866.868437672
1.8137187957763672	11088668.473741964
1.817386507987976	10596689.811214058
1.8210482597351074	10097338.803191409
1.8247040510177612	11089255.37509891
1.828354001045227	11150340.884147618
1.8319982290267944	10192965.72583355
1.8356364965438843	9510337.53774164
1.8392690420150757	9390664.31133208
1.8428958654403687	9591628.97112159
1.8465168476104736	9223946.380014997
1.8501322269439697	8953960.011346532
1.8537418842315674	8732776.94697448
1.8573459386825562	7560787.070550207
1.860944390296936	6551939.4167940235
1.864537239074707	6506844.026567859
1.8681244850158691	6827751.064627169
1.871706247329712	7451145.709819065
1.8752825260162354	8567760.131457323
1.8788533210754395	10238066.061820576
1.8824186325073242	11908446.541558698
1.8859784603118896	12669911.824545149
1.8895330429077148	12730122.463308435
1.8930821418762207	13301146.854594158
1.8966259956359863	14145392.066312663
1.9001644849777222	13992261.188227877
1.9036977291107178	13544424.096688215
1.9072256088256836	14087496.936257184
1.9107483625411987	14288610.272237923
1.9142658710479736	13926107.561170898
1.9177782535552979	14103451.472604401
1.9212853908538818	13714936.187563151
1.9247875213623047	12934901.039584769
1.9282845258712769	12206565.460568067
1.9317764043807983	11252659.766658451
1.9352631568908691	10264502.72530597
1.9387450218200684	9201161.181945583
1.942221760749817	9341853.877961013
1.9456936120986938	10409164.911116488
1.9491604566574097	11035260.727440875
1.952622413635254	10953292.59281032
1.956079363822937	10415088.72853906
1.959531545639038	10555054.095350632
1.962978720664978	11058147.182321062
1.966421127319336	11735357.16190114
1.9698586463928223	12485856.459806914
1.9732913970947266	12419928.596063875
1.9767193794250488	12401984.143082285
1.9801424741744995	12686778.295156984
1.9835609197616577	13152249.545292228
1.9869745969772339	13744178.13930782
1.990383505821228	13999132.481707994
1.9937876462936401	15021859.558789471
1.9971871376037598	15887619.893164298
2.000581979751587	16348551.78207373
2.003972291946411	17093649.50268748
2.007357597351074	17119074.303394627
2.0107386112213135	17646776.04976199
2.0141148567199707	18853293.61026835
2.017486572265625	19267127.60219251
2.0208535194396973	20650838.164673496
2.0242159366607666	22450669.35529153
2.027573823928833	22220167.769154314
2.0309269428253174	22357033.812751
2.034275770187378	24094062.764607467
2.0376198291778564	25174801.622150198
2.040959596633911	25278703.973761044
2.044294595718384	26215014.46482638
2.0476250648498535	27886436.747416466
2.0509510040283203	28218869.451962203
2.054272413253784	28264607.92165378
2.057589530944824	30120852.053259585
2.0609018802642822	31038840.791552488
2.0642096996307373	30826993.229295123
2.0675129890441895	31702277.954235625
2.0708119869232178	32188024.006866124
2.074106216430664	32059018.149501383
2.0773961544036865	32225870.91394464
2.080681324005127	32550496.203903116
2.0839622020721436	32733446.89030807
2.087238311767578	32993062.644329976
2.090510129928589	33518659.538488664
2.0937774181365967	33715948.83798977
2.0970399379730225	33563941.081289075
2.1002981662750244	33195679.501704127
2.1035518646240234	32734463.94182601
2.1068007946014404	32210917.34366127
2.1100454330444336	31743474.989422686
2.1132853031158447	31858120.771336712
2.116520881652832	31484171.51405069
2.1197516918182373	30867474.260045715
2.1229779720306396	31020306.623281393
2.12619948387146	30905103.332358353
2.1294167041778564	30253634.006522946
2.132629156112671	30027534.89887041
2.1358368396759033	29710850.53584717
2.139039993286133	28232850.96666467
2.1422386169433594	26086882.394009188
2.145432472229004	24389681.326016434
2.1486217975616455	23818042.37259644
2.151806354522705	23713536.722366285
2.1549863815307617	23423236.83491711
2.1581614017486572	22799722.80077383
2.16133189201355	21854014.459298305
2.1644976139068604	20920453.6652675
2.167658567428589	19919620.54002902
2.1708147525787354	19141351.109557234
2.173966407775879	18320834.41572718
2.1771130561828613	17110809.150578365
2.1802549362182617	16097494.29235675
2.183391809463501	14963602.612896778
2.1865241527557373	13491950.204055136
2.1896514892578125	11942079.579414451
2.1927738189697266	10201248.009727325
2.1958916187286377	7968551.583525432
2.1990041732788086	5570647.052734919
2.2021119594573975	3901739.004746491
2.2052149772644043	3131279.628296962
2.208312749862671	3189762.2741112676
2.2114057540893555	4016850.2391825216
2.214493751525879	5179029.992231088
2.217576742172241	6062509.4000607105
2.2206547260284424	6402347.832325023
2.2237277030944824	6307125.769149525
2.2267956733703613	5887749.077877861
2.2298583984375	5439397.5064929295
2.2329163551330566	5145733.195163526
2.235969066619873	4890998.817821736
2.2390167713165283	4559446.500070649
2.2420592308044434	4148895.1681226254
2.2450966835021973	3761547.597134793
2.248128890991211	3548352.9855645145
2.2511560916900635	3450898.074148939
2.254178285598755	3386235.1819859054
2.257194995880127	3357113.744460026
2.260206699371338	3332395.4530585837
2.2632133960723877	3350023.8824108923
2.266214609146118	3312990.476062008
2.2692108154296875	3223985.65856859
2.2722020149230957	3186083.9154725266
2.2751877307891846	3141310.393561064
2.278168201446533	3014728.035678162
2.2811436653137207	2759560.208151881
2.284113883972168	2443711.0504952427
2.287078857421875	2195079.6893026573
2.290038824081421	1975280.9455206066
2.2929933071136475	1812192.679435757
2.295942783355713	1854854.7828203223
2.298887014389038	2122594.880420396
2.301826238632202	2445236.8401968153
2.304760217666626	2889147.9681601254
2.3076889514923096	3751505.60225453
2.310612440109253	4694340.453293206
2.3135311603546143	4802628.808731025
2.3164443969726562	3570706.7792529566
2.319352865219116	2184418.7413228108
2.322256088256836	1682937.793024064
2.3251543045043945	1515352.779750025
2.328047275543213	1453400.2739409676
2.330935478210449	1580645.7150249423
2.3338186740875244	1749017.215159428
2.3366971015930176	1901630.4578896577
2.3395702838897705	2031992.0838968058
2.3424389362335205	2066576.4473133096
2.3453025817871094	1993671.825443119
2.348161458969116	1972535.2112106958
2.351015567779541	2097197.3155046985
2.353865146636963	2303923.012120736
2.3567099571228027	2526020.648547585
2.3595502376556396	2762936.034862173
2.3623859882354736	3035777.551255887
2.3652172088623047	3322734.980871666
2.368043899536133	3231827.459778751
2.370866537094116	2463604.8185425606
2.3736846446990967	1924206.9209382504
2.3764986991882324	1937125.3999202114
2.3793084621429443	1836186.194743543
2.3821144104003906	1674624.9749413787
2.384916305541992	1882131.6655682542
2.387714147567749	2418262.9418116948
2.3905084133148193	2699281.758845818
2.393299102783203	2720827.8456002497
2.3960859775543213	2909083.3600262683
2.398869514465332	3218594.9748415244
2.4016497135162354	3515321.2964551523
2.4044265747070312	3875449.880430259
2.407200336456299	4080555.77435578
2.409970998764038	4144572.052269088
2.4127390384674072	4330211.466294849
2.415503978729248	4377255.6260670135
2.418266534805298	4282957.1294487035
2.4210267066955566	4194096.653317155
2.4237842559814453	3889800.0168551933
2.426539897918701	3673784.893790719
2.429293394088745	3923969.8372775987
2.4320452213287354	4230717.954767596
2.4347951412200928	4164463.40623049
2.4375438690185547	4318632.4913428435
2.440291166305542	4761661.74409698
2.443037271499634	4788109.165086427
2.445782423019409	4644410.098226132
2.4485268592834473	4642934.60537861
2.451270818710327	4649943.245643154
2.454014539718628	4769081.548588794
2.4567582607269287	5222394.05629604
2.4595019817352295	5497435.128575276
2.4622461795806885	5758756.758929869
2.4649908542633057	6135846.737265263
2.4677364826202393	5749033.718706398
2.4704833030700684	5188562.219782453
2.473231554031372	5079701.744769659
2.4759814739227295	5347022.73541695
2.4787333011627197	5618278.314831348
