#wavelength	surface flux
0.6450077295303345	256.7353687778734
0.6472567915916443	407.76510968258435
0.6494921445846558	543.5532250505772
0.6517150402069092	639.8276481491918
0.6539263725280762	742.1850444914314
0.6561272740364075	853.0822675568562
0.6583186388015747	976.0979582824164
0.6605015397071838	1116.5367363923915
0.6626768708229065	1270.2253934154996
0.6648455858230591	1433.8213213409083
0.6670085787773132	1580.7992667946114
0.6691668033599854	1638.6418950115626
0.6713210344314575	1728.9801295190516
0.6734722256660461	2015.294450604088
0.6756211519241333	2310.9377201959
0.6777685880661011	2496.6702738854033
0.6799154281616211	2649.1747817354826
0.6820623278617859	2782.244293774002
0.6842101216316223	2893.6857767240103
0.6863595843315125	2977.746182368665
0.688511312007904	3009.7384913244737
0.6906660795211792	2912.7983778416824
0.6928245425224304	2736.3991792883357
0.6949873566627502	2715.5139818770535
0.6971551775932312	2811.7702127338703
0.6993286609649658	2787.128961632153
0.7015084028244019	2664.995446762061
0.7036949396133423	2568.9022540723804
0.7058889269828796	2505.042727851818
0.7080909013748169	2441.0842541560655
0.710301399230957	2361.6800747437173
0.712520956993103	2251.27990245015
0.7147500514984131	2039.6530594944584
0.7169892191886902	1721.9696173792277
0.7192389369010925	1507.7792975256698
0.7214996814727783	1437.5266519242123
0.723771870136261	1338.4234317296794
0.7260559797286987	1220.0921028915634
0.7283523678779602	1155.9331542217274
0.7306615710258484	1137.4767722865622
0.7329838871955872	1178.0360498370962
0.7353196740150452	1231.8869603512373
0.7376693487167358	1241.0265605553536
0.7400332689285278	1240.706731037578
0.7424117922782898	1245.1298209827648
0.7448052167892456	1243.0401918235066
0.7472138404846191	1220.7324292471774
0.7496379613876343	1168.6104745812634
0.7520779371261597	1086.4070136945004
0.7545340061187744	975.0889101040574
0.7570064663887024	838.0057374128448
0.7594954967498779	676.8966838503422
0.7620013952255249	487.578056270758
0.7645244002342224	281.43041044110197
0.7670646905899048	140.46623419511832
0.7696225643157959	156.30369029457952
0.7721980810165405	357.63446648100256
0.7747915983200073	671.5585572259422
0.7774031162261963	940.3563761958361
0.7800329327583313	1177.451614972736
0.7826811671257019	1571.004464017652
0.7853479981422424	2046.3340113237937
0.7880334854125977	2454.9580062569626
0.7907378077507019	2752.4390146254646
0.7934610247612	2859.489827780728
0.7962033748626709	3184.8388206313725
0.7989648580551147	3920.232636300253
0.801745593547821	4616.535124348724
0.8045456409454346	5187.608232404781
0.8073651194572449	5633.576122979506
0.8102040886878967	5768.695842545986
0.8130625486373901	5843.810563271768
0.8159406185150146	6548.165995964924
0.8188382983207703	7890.521308609981
0.8217556476593018	9045.590179413293
0.8246926665306091	10343.466799176853
0.8276493549346924	12131.939325057167
0.8306257724761963	13823.031795565126
0.8336219191551208	15605.085248951016
0.8366377949714661	17804.58418708502
0.8396733403205872	20511.400696798955
0.8427285552024841	23899.39163320812
0.8458034992218018	27959.291301298323
0.8488980531692505	31401.702719710836
0.8520121574401855	34381.08428886824
0.8551458716392517	40161.26620146564
0.8582990765571594	46680.418705840704
0.8614717125892639	50699.927322782605
0.8646637797355652	55257.514028662605
0.8678751587867737	62742.27552151103
0.8711057901382446	71666.01256724847
0.8743556141853333	79092.50170371792
0.87762451171875	80163.12817765099
0.8809124231338501	68371.80989969938
0.8842192888259888	50608.03701540593
0.8875449895858765	39886.95591923639
0.8908893465995789	34432.36169801602
0.894252359867096	31834.93436579592
0.8976338505744934	43507.82352059021
0.9010337591171265	78228.25060515977
0.9044519662857056	122361.74764862693
0.9078882932662964	147168.9428271943
0.9113426208496094	147571.65364938753
0.914814829826355	140177.1819391947
0.9183048605918884	144638.97472438903
0.9218124747276306	152051.27242253604
0.925337553024292	116545.69652964479
0.9288799166679382	52831.0237268687
0.9324395060539246	20245.132224268007
0.9360161423683167	23841.68283012648
0.9396095871925354	38366.41061001774
0.943219780921936	45516.38027766104
0.9468464851379395	43106.624641967064
0.9504896402359009	40071.23769167801
0.9541489481925964	37509.67426055654
0.9578243494033813	35524.01631655438
0.9615156054496765	40232.854331820796
0.9652225375175476	60020.29026884933
0.9689450263977051	87148.73952834395
0.9726828336715698	101111.19699299098
0.9764357805252075	107329.77497132032
0.9802037477493286	115695.9574610299
0.983986496925354	120391.49500558808
0.9877838492393494	129558.05224925751
0.9915955662727356	158363.35524690122
0.9954215884208679	212431.33576154793
0.9992615580558777	296068.2865589551
1.0031154155731201	401611.52728030935
1.0069829225540161	488221.0141400673
1.0108637809753418	527838.9653459096
1.0147579908370972	531219.1619775204
1.018665075302124	519611.78873022005
1.022585153579712	539207.3127494322
1.0265177488327026	607786.3025025668
1.0304628610610962	652732.4032729081
1.0344202518463135	663881.6511967228
1.0383895635604858	734207.8483904147
1.0423706769943237	853760.350056999
1.0463634729385376	950332.7455221136
1.0503677129745483	1035779.7938146448
1.0543830394744873	1135917.9022041396
1.058409333229065	1215177.590023794
1.0624464750289917	1252471.521343497
1.0664942264556885	1250146.217452661
1.0705522298812866	1219640.8470455182
1.0746204853057861	1208054.7267377037
1.0786986351013184	1205029.4894400695
1.0827864408493042	1158791.3973199124
1.086883783340454	1007093.4282144031
1.0909905433654785	734544.1435546902
1.0951062440872192	456843.685856245
1.0992310047149658	269699.92593163636
1.10336434841156	154522.56509506883
1.1075061559677124	83094.66135422867
1.1116561889648438	42414.10383349679
1.115814208984375	21787.328356984803
1.1199802160263062	15656.157910832635
1.124153733253479	15331.089224218154
1.1283347606658936	16882.367205744467
1.1325229406356812	16436.931403856805
1.1367181539535522	22208.390056671986
1.1409201622009277	33504.23619308987
1.145128846168518	32416.031039046095
1.1493438482284546	22088.397636661037
1.1535650491714478	14069.80072790796
1.1577922105789185	11032.631488319255
1.1620250940322876	10937.140082527569
1.1662636995315552	14306.552296971924
1.170507550239563	27233.877836022097
1.174756646156311	49685.44160427451
1.1790107488632202	81824.20798568263
1.1832695007324219	120432.13338982362
1.1875330209732056	155941.8610410794
1.191800832748413	201355.9245599413
1.1960728168487549	264214.0571780947
1.2003488540649414	328534.92453082086
1.2046287059783936	398366.77622006956
1.2089121341705322	459812.97524568037
1.2131990194320679	505992.5605926573
1.2174891233444214	561818.2024775543
1.2217823266983032	643470.9020477314
1.2260783910751343	772950.2455996245
1.230377197265625	938522.0441340064
1.2346785068511963	1106396.6969960674
1.238982081413269	1287825.229153787
1.2432878017425537	1492042.2173399974
1.2475954294204712	1676947.7660624613
1.2519049644470215	1800132.4364508109
1.256216049194336	1935752.9833813182
1.2605286836624146	2105499.3775508795
1.2648425102233887	2170016.1127017103
1.2691574096679688	2060188.278934295
1.2734732627868652	1811432.7385226996
1.2777899503707886	1517644.674942252
1.2821072340011597	1226386.8891110697
1.2864248752593994	954791.6018171839
1.2907428741455078	779145.3320207904
1.2950609922409058	714621.258773381
1.2993791103363037	669247.3302179163
1.303696870803833	581100.8827471861
1.3080145120620728	485343.8196067862
1.3123314380645752	388519.9973306019
1.3166478872299194	326889.6711020062
1.3209635019302368	325020.21419051907
1.3252781629562378	289666.9455152022
1.3295916318893433	178988.05546072204
1.3339040279388428	69214.37969777334
1.3382149934768677	20722.449411562226
1.3425244092941284	7611.490969497393
1.3468321561813354	2493.911540961224
1.3511382341384888	992.3654444677431
1.3554422855377197	409.42842614904754
1.3597444295883179	228.54081944045205
1.3640443086624146	311.1244917691832
1.3683418035507202	436.9185275938698
1.3726370334625244	768.5497264518355
1.3769296407699585	1216.9655239864262
1.381219506263733	1078.6915745565097
1.3855066299438477	719.6993988097385
1.3897908926010132	759.9560132382659
1.3940720558166504	871.3289446707162
1.3983501195907593	924.951078273143
1.4026249647140503	1006.3418761427135
1.4068963527679443	1078.017838721416
1.4111642837524414	1295.6665813537597
1.4154287576675415	1608.8741188560316
1.419689416885376	1713.6184829199342
1.4239463806152344	2335.198877499538
1.4281994104385376	4399.583276779318
1.4324485063552856	5996.442413549385
1.436693549156189	6208.447251134007
1.440934419631958	7434.093754925503
1.4451709985733032	11029.42806729182
1.449403166770935	17283.57746348308
1.453631043434143	23245.38493287695
1.4578542709350586	25585.236761130625
1.4620729684829712	22608.720167226104
1.4662868976593018	15887.339462322678
1.4704961776733398	9309.01466246779
1.4747005701065063	5631.122082758925
1.4788999557495117	5793.442300720251
1.4830944538116455	7108.047675230568
1.4872838258743286	7484.423437870819
1.491468071937561	7139.013220141594
1.4956470727920532	8291.33201231829
1.4998208284378052	11571.990298797378
1.5039892196655273	13010.518481009536
1.5081522464752197	10581.258629920883
1.5123097896575928	7019.9888638821685
1.5164618492126465	7365.131356960946
1.5206083059310913	13564.882090419327
1.5247491598129272	20726.682771994012
1.5288842916488647	27548.185152744856
1.5330137014389038	35435.37748439921
1.5371372699737549	41993.61035792164
1.541254997253418	49422.46488292718
1.545366883277893	58649.59186377458
1.5494728088378906	70380.49845229667
1.5535727739334106	95249.977262543
1.5576666593551636	139744.35740775397
1.561754584312439	211638.97979418113
1.5658363103866577	306913.974731183
1.5699119567871094	378582.2107080744
1.5739814043045044	419283.52340229304
1.5780447721481323	476107.74458536
1.582101821899414	542478.6393685017
1.5861525535583496	579220.7849030145
1.5901970863342285	573763.5741329987
1.5942351818084717	538907.5133066634
1.5982669591903687	482170.25318857277
1.6022924184799194	397993.35551980446
1.606311559677124	309028.21629434533
1.6103241443634033	238486.73939665826
1.6143304109573364	166868.6527010407
1.6183301210403442	101118.81956375053
1.6223233938217163	72383.88513072839
1.6263102293014526	69061.77157191392
1.6302905082702637	73320.990000082
1.634264349937439	86958.69879319538
1.638231635093689	107893.84368351893
1.6421923637390137	111170.8099839168
1.646146535873413	86628.46773025177
1.6500942707061768	80808.34907780682
1.6540353298187256	91406.16677187855
1.6579699516296387	92238.4632862584
1.661897897720337	93245.61726098553
1.6658192873001099	60501.032905590095
1.6697341203689575	20690.36711026254
1.6736423969268799	20446.67879579207
1.677544116973877	26942.07896658292
1.6814392805099487	23690.76119689571
1.6853278875350952	20680.03518745952
1.6892099380493164	17243.17503631227
1.6930854320526123	11644.888201563777
1.696954369544983	7629.869384455853
1.7008168697357178	5508.7857903315235
1.7046726942062378	5836.2053730330745
1.708522081375122	10288.403762892849
1.712364912033081	17383.471194463596
1.7162011861801147	27847.23394696408
1.7200311422348022	36049.42744564398
1.723854422569275	32621.509761160203
1.7276713848114014	27751.830888669538
1.731481909751892	28681.48239251873
1.7352858781814575	33761.18753847308
1.7390835285186768	45934.822572819015
1.7428747415542603	60741.233182774035
1.7466596364974976	71251.36506635709
1.7504380941390991	72656.4544368453
1.7542102336883545	60117.61642997002
1.7579760551452637	44154.82309456235
1.7617355585098267	37276.49422833169
1.7654887437820435	36165.77164008637
1.7692357301712036	33307.1401850209
1.7729763984680176	28503.66468185372
1.776710867881775	31263.37476027921
1.7804391384124756	38090.91031247534
1.7841613292694092	34697.0162140718
1.7878772020339966	26546.097559189882
1.7915871143341064	19321.337092398302
1.7952908277511597	16502.67801877377
1.7989884614944458	19206.468705754032
1.8026801347732544	15622.27905417113
1.806365728378296	11398.84745129554
1.8100452423095703	11571.447562670603
1.8137187957763672	10670.093217123911
1.817386507987976	9127.550009229213
1.8210482597351074	11972.873810300815
1.8247040510177612	15995.478817635085
1.828354001045227	11271.636513826674
1.8319982290267944	5042.391935509506
1.8356364965438843	3387.345818813714
1.8392690420150757	3946.941642723032
1.8428958654403687	8329.289606909306
1.8465168476104736	11095.754218172075
1.8501322269439697	10488.511376994304
1.8537418842315674	9973.14190845888
1.8573459386825562	8214.98410589817
1.860944390296936	6148.608721237516
1.864537239074707	4546.949222801902
1.8681244850158691	2769.0541713322255
1.871706247329712	2103.761781782276
1.8752825260162354	5350.346470695106
1.8788533210754395	13413.983310520485
1.8824186325073242	18914.84972115799
1.8859784603118896	17653.91809200939
1.8895330429077148	15260.263686829225
1.8930821418762207	17311.729264289163
1.8966259956359863	18770.716843608978
1.9001644849777222	12216.304054821245
1.9036977291107178	6378.180404781385
1.9072256088256836	6326.085906028348
1.9107483625411987	5819.257415323573
1.9142658710479736	4326.943556193375
1.9177782535552979	4228.975502511462
1.9212853908538818	4384.953066576699
1.9247875213623047	3796.9609067897723
1.9282845258712769	2972.5549580961797
1.9317764043807983	2426.8763761114183
1.9352631568908691	2203.490702989525
1.9387450218200684	2040.510670798677
1.942221760749817	2465.4221663716885
1.9456936120986938	3177.981124917837
1.9491604566574097	3185.4435064811605
1.952622413635254	2994.06210511019
1.956079363822937	4031.187981431881
1.959531545639038	6008.063596714111
1.962978720664978	6884.856525075874
1.966421127319336	6887.008477887444
1.9698586463928223	6589.520199204347
1.9732913970947266	6911.562250415687
1.9767193794250488	8950.52789760497
1.9801424741744995	8992.17920393663
1.9835609197616577	8140.832380179963
1.9869745969772339	10122.809595756924
1.990383505821228	12754.675148996967
1.9937876462936401	17223.50759712151
1.9971871376037598	23916.33018509306
2.000581979751587	26866.171074183716
2.003972291946411	25179.342908917857
2.007357597351074	25695.53557123393
2.0107386112213135	26443.976160280792
2.0141148567199707	22875.481125277973
2.017486572265625	18140.785483557745
2.0208535194396973	17582.43138942515
2.0242159366607666	22615.578743887476
2.027573823928833	27349.812479004282
2.0309269428253174	31680.444101433623
2.034275770187378	36820.16100429987
2.0376198291778564	38933.799343150364
2.040959596633911	40614.65071721375
2.044294595718384	48008.58490050869
2.0476250648498535	56896.511764361945
2.0509510040283203	63167.169916571285
2.054272413253784	70586.18113787861
2.057589530944824	80162.6000084265
2.0609018802642822	89465.23280882537
2.0642096996307373	98587.72120119852
2.0675129890441895	107889.29780433241
2.0708119869232178	116889.06888633368
2.074106216430664	127038.01961727877
2.0773961544036865	135349.56890481705
2.080681324005127	141317.8411427825
2.0839622020721436	149309.5485538813
2.087238311767578	157219.3430198638
2.090510129928589	164863.49464797176
2.0937774181365967	168362.65076437825
2.0970399379730225	166366.76478742383
2.1002981662750244	163856.85039043706
2.1035518646240234	164499.0044193591
2.1068007946014404	164518.40368194188
2.1100454330444336	159569.30245866036
2.1132853031158447	156443.9033552075
2.116520881652832	151068.56382941926
2.1197516918182373	143228.71166595488
2.1229779720306396	137961.50895412892
2.12619948387146	133022.7744165225
2.1294167041778564	129255.66280808413
2.132629156112671	127106.69991855598
2.1358368396759033	124078.54410093666
2.139039993286133	116369.63787035766
2.1422386169433594	100020.49269394939
2.145432472229004	83571.44941330673
2.1486217975616455	76903.67823249566
2.151806354522705	72683.12621331673
2.1549863815307617	65592.39949480027
2.1581614017486572	58469.4018635236
2.16133189201355	50052.88893122822
2.1644976139068604	42679.044488852334
2.167658567428589	37434.02634130879
2.1708147525787354	34467.706875246266
2.173966407775879	34839.85211692621
2.1771130561828613	33119.95656106076
2.1802549362182617	29480.90032580174
2.183391809463501	26591.462934291885
2.1865241527557373	24643.060179685934
2.1896514892578125	20470.438730600858
2.1927738189697266	12845.897765306294
2.1958916187286377	6324.248692972774
2.1990041732788086	2674.8260766075946
2.2021119594573975	1197.15653644701
2.2052149772644043	1642.8053602084317
2.208312749862671	3163.2847133447676
2.2114057540893555	4426.888987662478
2.214493751525879	4877.3569092188445
2.217576742172241	4987.988128783069
2.2206547260284424	4567.422214460563
2.2237277030944824	3876.1079063339844
2.2267956733703613	3242.643013796811
2.2298583984375	2482.9943646003217
2.2329163551330566	2239.145486261389
2.235969066619873	2244.8691165616874
2.2390167713165283	1791.7200434198544
2.2420592308044434	1433.9811078819403
2.2450966835021973	1240.6982954659218
2.248128890991211	922.6922995715249
2.2511560916900635	741.6459105361063
2.254178285598755	667.8317755994773
2.257194995880127	608.7185165276599
2.260206699371338	635.1987086772505
2.2632133960723877	670.1728392647597
2.266214609146118	734.5239105856441
2.2692108154296875	876.5070822376235
2.2722020149230957	1051.5592826630584
2.2751877307891846	1058.3310079866822
2.278168201446533	1006.051323724711
2.2811436653137207	975.1530339407657
2.284113883972168	762.1864065784063
2.287078857421875	602.5733261297482
2.290038824081421	553.410599203586
2.2929933071136475	492.51039588425317
2.295942783355713	497.0229711192767
2.298887014389038	580.6525853525286
2.301826238632202	699.5101937775191
2.304760217666626	1012.0019896076392
2.3076889514923096	2176.882701475251
2.310612440109253	4287.289707939297
2.3135311603546143	4862.867359224455
2.3164443969726562	2627.863033802586
2.319352865219116	636.2638896967035
2.322256088256836	381.5679889808642
2.3251543045043945	543.1349902737695
2.328047275543213	579.2826484682485
2.330935478210449	616.6381004222025
2.3338186740875244	717.0117298810387
2.3366971015930176	775.0572792371017
2.3395702838897705	784.3531254316288
2.3424389362335205	819.4951025377184
2.3453025817871094	746.1187486001304
2.348161458969116	674.2590156586293
2.351015567779541	803.0390618057797
2.353865146636963	999.1107175690963
2.3567099571228027	1308.749902679714
2.3595502376556396	1939.4303036106717
2.3623859882354736	2522.9462972528286
2.3652172088623047	2461.772429564126
2.368043899536133	1769.017097532405
2.370866537094116	920.7861596430209
2.3736846446990967	614.5332630148962
2.3764986991882324	1012.8636435042008
2.3793084621429443	1395.7859377163545
2.3821144104003906	1342.0167363450907
2.384916305541992	1485.9385346380961
2.387714147567749	2075.560037945767
2.3905084133148193	2336.7502522825503
2.393299102783203	2147.580656890711
2.3960859775543213	2114.4664590127572
2.398869514465332	2651.707240027646
2.4016497135162354	3531.9074709389715
2.4044265747070312	4233.220914640066
2.407200336456299	4679.060310978708
2.409970998764038	6340.422101078196
2.4127390384674072	8305.159573301038
2.415503978729248	7369.471815500346
2.418266534805298	5364.541771693159
2.4210267066955566	4720.765225759722
2.4237842559814453	4052.110614970286
2.426539897918701	3932.9774169175107
2.429293394088745	5775.769857982717
2.4320452213287354	7268.2811102329715
2.4347951412200928	7342.078240581995
2.4375438690185547	9485.159087141914
2.440291166305542	13022.058919242674
2.443037271499634	13660.636545886779
2.445782423019409	12175.129971224895
2.4485268592834473	11555.395595148802
2.451270818710327	12233.893774378299
2.454014539718628	13984.313837142392
2.4567582607269287	16614.58789289194
2.4595019817352295	19112.236397376313
2.4622461795806885	22164.350048066575
2.4649908542633057	26006.158096175324
2.4677364826202393	25647.169647019036
2.4704833030700684	22262.57265024936
2.473231554031372	21026.81893172562
2.4759814739227295	22576.129976452212
2.4787333011627197	23449.754101725506
2.481487512588501	23395.516740350067
