#wavelength	surface flux
0.6450077295303345	616.3919340984357
0.6472567915916443	974.7004996105231
0.6494921445846558	1283.8739053742104
0.6517150402069092	1492.0184906722402
0.6539263725280762	1713.4367075598595
0.6561272740364075	1954.7148331162866
0.6583186388015747	2218.6745076820594
0.6605015397071838	2509.636078955721
0.6626768708229065	2822.9677800191653
0.6648455858230591	3152.663090654912
0.6670085787773132	3435.0157901502694
0.6691668033599854	3501.458179479032
0.6713210344314575	3647.332161696988
0.6734722256660461	4266.829532501258
0.6756211519241333	4920.65792478664
0.6777685880661011	5324.147901320521
0.6799154281616211	5658.203875712464
0.6820623278617859	5958.480206261176
0.6842101216316223	6220.563453544105
0.6863595843315125	6435.471809031075
0.688511312007904	6576.840622700371
0.6906660795211792	6566.937424154151
0.6928245425224304	6451.571635429915
0.6949873566627502	6463.826697873042
0.6971551775932312	6565.622772459999
0.6993286609649658	6519.262539642842
0.7015084028244019	6348.651354460979
0.7036949396133423	6178.386005421855
0.7058889269828796	6018.842160748794
0.7080909013748169	5841.85125743893
0.710301399230957	5637.408446688471
0.712520956993103	5394.009671357448
0.7147500514984131	5028.9169397291635
0.7169892191886902	4536.978673710204
0.7192389369010925	4177.413244455937
0.7214996814727783	3990.29661919088
0.723771870136261	3754.7233602042975
0.7260559797286987	3492.4244398822448
0.7283523678779602	3296.259147748115
0.7306615710258484	3152.8124756777665
0.7329838871955872	3080.438006387825
0.7353196740150452	3024.5129916663377
0.7376693487167358	2912.427728501933
0.7400332689285278	2783.719631771808
0.7424117922782898	2659.1623244168395
0.7448052167892456	2532.6892043903167
0.7472138404846191	2394.26578943368
0.7496379613876343	2236.4674332228833
0.7520779371261597	2056.6109277973155
0.7545340061187744	1848.1310655522916
0.7570064663887024	1604.8485757428214
0.7594954967498779	1318.8435870507847
0.7620013952255249	974.8093582929587
0.7645244002342224	586.8108237740815
0.7670646905899048	314.35744781326775
0.7696225643157959	346.64391363353616
0.7721980810165405	735.458026614247
0.7747915983200073	1327.3249930347865
0.7774031162261963	1834.5861137057914
0.7800329327583313	2285.9027553851884
0.7826811671257019	3002.9740446893516
0.7853479981422424	3865.4352948818864
0.7880334854125977	4639.975860738255
0.7907378077507019	5252.819185277676
0.7934610247612	5570.327955251222
0.7962033748626709	6376.211242797255
0.7989648580551147	8020.200254977402
0.801745593547821	9631.081963312965
0.8045456409454346	11053.542929993873
0.8073651194572449	12436.151951128848
0.8102040886878967	13567.381737079488
0.8130625486373901	14666.451011739478
0.8159406185150146	16571.05000171187
0.8188382983207703	19385.32825199341
0.8217556476593018	22114.257536417048
0.8246926665306091	25184.15313026802
0.8276493549346924	29039.427678569184
0.8306257724761963	32922.578263132724
0.8336219191551208	37141.279102447304
0.8366377949714661	42148.49684942797
0.8396733403205872	47970.49750266596
0.8427285552024841	54756.41898184365
0.8458034992218018	62283.31464106961
0.8488980531692505	67876.20448564498
0.8520121574401855	72665.27353115325
0.8551458716392517	84583.31424589975
0.8582990765571594	99684.52121864622
0.8614717125892639	110856.5453545983
0.8646637797355652	122248.95075544534
0.8678751587867737	136882.1068003784
0.8711057901382446	153484.85272327476
0.8743556141853333	169404.98260414533
0.87762451171875	179328.8232116641
0.8809124231338501	174312.10113958767
0.8842192888259888	159987.76263115596
0.8875449895858765	150625.74035460205
0.8908893465995789	140820.57599368016
0.894252359867096	132392.88625235925
0.8976338505744934	159294.17135572198
0.9010337591171265	229097.7919628287
0.9044519662857056	305308.3357309753
0.9078882932662964	349319.70936439943
0.9113426208496094	359532.6172580553
0.914814829826355	360338.1763548828
0.9183048605918884	377811.20926927344
0.9218124747276306	394433.168244621
0.925337553024292	322698.4345716758
0.9288799166679382	180956.63755732297
0.9324395060539246	105865.07103154829
0.9360161423683167	129893.49735866008
0.9396095871925354	187263.36813541813
0.943219780921936	213565.82625713965
0.9468464851379395	203764.86313887156
0.9504896402359009	195451.51101775462
0.9541489481925964	189651.5506739148
0.9578243494033813	182842.88562705595
0.9615156054496765	197432.11255098542
0.9652225375175476	256376.8989525484
0.9689450263977051	337538.66835036676
0.9726828336715698	388811.0519363657
0.9764357805252075	420799.8220766914
0.9802037477493286	458711.9769285155
0.983986496925354	493600.2759362586
0.9877838492393494	543336.6719443365
0.9915955662727356	631573.3371454678
0.9954215884208679	759375.2625509264
0.9992615580558777	926270.2254368474
1.0031154155731201	1118865.7116213054
1.0069829225540161	1284807.2151823249
1.0108637809753418	1394358.749543212
1.0147579908370972	1464449.225750462
1.018665075302124	1512727.8347342587
1.022585153579712	1584240.156911959
1.0265177488327026	1704473.9160114222
1.0304628610610962	1806358.5360502512
1.0344202518463135	1878540.289813642
1.0383895635604858	2004680.2820596588
1.0423706769943237	2165297.398896699
1.0463634729385376	2291072.372957778
1.0503677129745483	2404823.9435193995
1.0543830394744873	2533094.8829232776
1.058409333229065	2633537.97346316
1.0624464750289917	2689562.516743818
1.0664942264556885	2705520.1943674088
1.0705522298812866	2687036.03461493
1.0746204853057861	2686501.122858993
1.0786986351013184	2695801.0741736447
1.0827864408493042	2641059.169676558
1.086883783340454	2400929.105384506
1.0909905433654785	1915026.840549332
1.0951062440872192	1355187.1635261572
1.0992310047149658	913654.9090104377
1.10336434841156	599312.9474279714
1.1075061559677124	380812.02687985206
1.1116561889648438	238692.25209832736
1.115814208984375	163332.21695788894
1.1199802160263062	147326.2574346394
1.124153733253479	162267.01136677095
1.1283347606658936	176671.32559562207
1.1325229406356812	163168.2904702072
1.1367181539535522	190124.85354785336
1.1409201622009277	260366.71618862814
1.145128846168518	268317.5278852626
1.1493438482284546	225799.03810020053
1.1535650491714478	180533.88595726748
1.1577922105789185	156430.02195862614
1.1620250940322876	156658.61945222688
1.1662636995315552	182622.05941152456
1.170507550239563	265430.56642863556
1.174756646156311	391400.07571437355
1.1790107488632202	547834.4292954725
1.1832695007324219	727350.1064363203
1.1875330209732056	897465.7260956821
1.191800832748413	1094613.9995712189
1.1960728168487549	1339014.473543123
1.2003488540649414	1577562.1577210072
1.2046287059783936	1813636.6114490237
1.2089121341705322	2016269.5661429982
1.2131990194320679	2179844.3312039487
1.2174891233444214	2365123.2215618677
1.2217823266983032	2576455.5207054745
1.2260783910751343	2842111.73305752
1.230377197265625	3149736.840336651
1.2346785068511963	3438476.311555443
1.238982081413269	3706362.396111033
1.2432878017425537	3967929.2049845145
1.2475954294204712	4186947.5683259564
1.2519049644470215	4318965.631920513
1.256216049194336	4539817.97611109
1.2605286836624146	4823867.703620063
1.2648425102233887	4902744.674926904
1.2691574096679688	4760581.551770844
1.2734732627868652	4467479.261272559
1.2777899503707886	4102541.8489986155
1.2821072340011597	3668495.304844779
1.2864248752593994	3179349.3987278654
1.2907428741455078	2814087.368314727
1.2950609922409058	2655444.839788808
1.2993791103363037	2544536.9275971577
1.303696870803833	2370471.8451259662
1.3080145120620728	2177445.162025136
1.3123314380645752	1917813.8419922146
1.3166478872299194	1712087.4980764145
1.3209635019302368	1642615.6660528409
1.3252781629562378	1422871.0808473947
1.3295916318893433	926789.7163076362
1.3339040279388428	430706.6343181555
1.3382149934768677	170395.27657860305
1.3425244092941284	71813.36065730632
1.3468321561813354	31954.40770715179
1.3511382341384888	16478.94715607703
1.3554422855377197	8543.373419248432
1.3597444295883179	6195.813253983207
1.3640443086624146	8597.9255499041
1.3683418035507202	11541.35132149255
1.3726370334625244	17224.359319302606
1.3769296407699585	25579.26822456973
1.381219506263733	24153.292362546756
1.3855066299438477	17446.70939434475
1.3897908926010132	16880.612564158037
1.3940720558166504	17865.13315788277
1.3983501195907593	18259.00228154406
1.4026249647140503	19878.28158283761
1.4068963527679443	21013.898946790167
1.4111642837524414	22461.803722112825
1.4154287576675415	24942.153141991064
1.419689416885376	25735.082752825045
1.4239463806152344	31142.99995402794
1.4281994104385376	49019.37889534263
1.4324485063552856	63849.95110951452
1.436693549156189	67567.190037708
1.440934419631958	77518.14214474829
1.4451709985733032	103565.89338676886
1.449403166770935	149803.29233671844
1.453631043434143	197620.4107354917
1.4578542709350586	225774.8979631823
1.4620729684829712	220658.44482212476
1.4662868976593018	184778.04245326715
1.4704961776733398	139763.76063874777
1.4747005701065063	115256.49459738596
1.4788999557495117	124625.48591824087
1.4830944538116455	141374.53852774305
1.4872838258743286	149386.5401068075
1.491468071937561	153853.51651489982
1.4956470727920532	176082.3944411238
1.4998208284378052	223483.53603866688
1.5039892196655273	250877.4121883118
1.5081522464752197	230630.39903358504
1.5123097896575928	193782.45859737464
1.5164618492126465	206319.9018249502
1.5206083059310913	295974.47151603125
1.5247491598129272	398592.4478909651
1.5288842916488647	484312.5262869488
1.5330137014389038	565291.5923749976
1.5371372699737549	633057.9188505928
1.541254997253418	704218.1277323442
1.545366883277893	793823.8664655928
1.5494728088378906	895922.1629717952
1.5535727739334106	1033829.6450137633
1.5576666593551636	1245797.4455186448
1.561754584312439	1568643.439906852
1.5658363103866577	1946885.5634005028
1.5699119567871094	2194399.917653785
1.5739814043045044	2313067.834337947
1.5780447721481323	2466278.1182440077
1.582101821899414	2631167.9418739914
1.5861525535583496	2699632.106313035
1.5901970863342285	2645892.0488292607
1.5942351818084717	2521143.5065803705
1.5982669591903687	2342603.714890527
1.6022924184799194	2070665.5790960728
1.606311559677124	1757263.0518063642
1.6103241443634033	1466576.239560917
1.6143304109573364	1150761.9040695203
1.6183301210403442	856133.9893183842
1.6223233938217163	704772.9621973404
1.6263102293014526	664827.9401210048
1.6302905082702637	677182.9758649372
1.634264349937439	771112.9963109771
1.638231635093689	928656.7877516132
1.6421923637390137	984362.6033523679
1.646146535873413	858730.7926389324
1.6500942707061768	809887.6543594785
1.6540353298187256	839808.7999711799
1.6579699516296387	846111.5849634261
1.661897897720337	857948.8392429688
1.6658192873001099	566044.0621431879
1.6697341203689575	239189.57994554887
1.6736423969268799	291636.8674666696
1.677544116973877	403048.67994238343
1.6814392805099487	382624.1688761429
1.6853278875350952	339229.49519957596
1.6892099380493164	291799.52135830675
1.6930854320526123	223651.8959035378
1.696954369544983	167202.125805083
1.7008168697357178	133478.5802056658
1.7046726942062378	137640.51565183135
1.708522081375122	200548.9372247003
1.712364912033081	286673.01327809424
1.7162011861801147	383277.6614079446
1.7200311422348022	452806.06294148613
1.723854422569275	422319.4792971586
1.7276713848114014	378125.52299886406
1.731481909751892	378134.8863873783
1.7352858781814575	404956.1754318571
1.7390835285186768	475918.40211296023
1.7428747415542603	555724.9319140988
1.7466596364974976	602253.4795518327
1.7504380941390991	594957.6543805008
1.7542102336883545	508800.63071259414
1.7579760551452637	409212.95787789056
1.7617355585098267	362745.0240420041
1.7654887437820435	337786.1690873075
1.7692357301712036	303318.7657594923
1.7729763984680176	263360.97104316717
1.776710867881775	258435.1118028073
1.7804391384124756	277349.82070563536
1.7841613292694092	249889.170965592
1.7878772020339966	202572.4010619208
1.7915871143341064	158766.1889819971
1.7952908277511597	138243.35689786
1.7989884614944458	150585.1155928714
1.8026801347732544	123010.03725851075
1.806365728378296	95242.57068606565
1.8100452423095703	100446.23907066564
1.8137187957763672	100623.55542259882
1.817386507987976	89873.14916786445
1.8210482597351074	105435.5294960667
1.8247040510177612	134428.27339030686
1.828354001045227	103591.046334025
1.8319982290267944	59469.7949003974
1.8356364965438843	45355.063460128076
1.8392690420150757	47737.215721393346
1.8428958654403687	78409.1732008711
1.8465168476104736	95884.19001066858
1.8501322269439697	91463.05549229828
1.8537418842315674	88959.48750592618
1.8573459386825562	73963.97088098718
1.860944390296936	55507.952027086016
1.864537239074707	42441.744104422956
1.8681244850158691	30038.48441912326
1.871706247329712	28760.415053441604
1.8752825260162354	59186.77873197819
1.8788533210754395	123160.62437350393
1.8824186325073242	165891.8915655905
1.8859784603118896	158328.66039492126
1.8895330429077148	143688.4752809346
1.8930821418762207	166485.81363940187
1.8966259956359863	181997.39119112058
1.9001644849777222	129949.1530521601
1.9036977291107178	83786.51974366207
1.9072256088256836	85204.83274920002
1.9107483625411987	78827.15217353958
1.9142658710479736	62464.70436406268
1.9177782535552979	62589.79635978821
1.9212853908538818	62152.34029905615
1.9247875213623047	51785.38111071953
1.9282845258712769	41028.138355617586
1.9317764043807983	34395.92968257355
1.9352631568908691	31112.468412471913
1.9387450218200684	28293.13975845075
1.942221760749817	33160.54842534447
1.9456936120986938	41191.59942716966
1.9491604566574097	41968.807442929814
1.952622413635254	40090.18432122022
1.956079363822937	47094.567664223636
1.959531545639038	61614.86296573363
1.962978720664978	69587.54746786674
1.966421127319336	74271.58135623245
1.9698586463928223	75141.16752132487
1.9732913970947266	78361.22098167866
1.9767193794250488	97360.3326832117
1.9801424741744995	102233.40032323569
1.9835609197616577	101145.59163821687
1.9869745969772339	121023.44008893953
1.990383505821228	142190.06283749177
1.9937876462936401	178976.6244890044
1.9971871376037598	229579.94009508967
2.000581979751587	254540.87525225978
2.003972291946411	250710.2856705812
2.007357597351074	254584.8471013984
2.0107386112213135	270192.9498855492
2.0141148567199707	257356.93068526205
2.017486572265625	218628.2489048851
2.0208535194396973	220501.9174775493
2.0242159366607666	272215.31983078574
2.027573823928833	307954.45978652907
2.0309269428253174	339017.6154069167
2.034275770187378	380873.0546702559
2.0376198291778564	399017.5837630345
2.040959596633911	412810.55677246075
2.044294595718384	474178.5988453617
2.0476250648498535	549185.3498898847
2.0509510040283203	584680.4058179205
2.054272413253784	621191.9319215885
2.057589530944824	687448.2947311591
2.0609018802642822	745624.5036950221
2.0642096996307373	791048.5580328178
2.0675129890441895	840056.971088207
2.0708119869232178	885852.7859251942
2.074106216430664	928961.6378457278
2.0773961544036865	961740.5676117303
2.080681324005127	989736.2536308286
2.0839622020721436	1025344.6200390513
2.087238311767578	1056769.4642434188
2.090510129928589	1084403.0702466436
2.0937774181365967	1093387.6068776646
2.0970399379730225	1080757.9552440112
2.1002981662750244	1060818.4093108554
2.1035518646240234	1048839.8888026995
2.1068007946014404	1037505.5574910258
2.1100454330444336	1012163.6854983023
2.1132853031158447	997655.0723427049
2.116520881652832	968263.6543041058
2.1197516918182373	927263.7110139026
2.1229779720306396	903255.6573951103
2.12619948387146	879359.4777213408
2.1294167041778564	854879.1809542553
2.132629156112671	838000.6482033597
2.1358368396759033	816943.4779081233
2.139039993286133	770366.976277825
2.1422386169433594	681001.3956470779
2.145432472229004	592710.312981973
2.1486217975616455	555813.319368237
2.151806354522705	533741.9627025658
2.1549863815307617	497944.9674712677
2.1581614017486572	457298.1826334097
2.16133189201355	405105.2907895792
2.1644976139068604	359852.8633638217
2.167658567428589	327493.2111011546
2.1708147525787354	305959.286959877
2.173966407775879	298186.73398644256
2.1771130561828613	279024.65894217044
2.1802549362182617	253339.39794960432
2.183391809463501	230379.75350076339
2.1865241527557373	210358.3085868145
2.1896514892578125	176893.697131219
2.1927738189697266	121154.6368915139
2.1958916187286377	68811.82608140024
2.1990041732788086	33340.59136201858
2.2021119594573975	17177.013343305094
2.2052149772644043	20609.50322809702
2.208312749862671	34695.66510858878
2.2114057540893555	47158.40626256302
2.214493751525879	53049.33852067479
2.217576742172241	55983.617176032974
2.2206547260284424	53369.19748834245
2.2237277030944824	46816.35484949796
2.2267956733703613	39868.29233621386
2.2298583984375	31878.081441612143
2.2329163551330566	29237.29481962797
2.235969066619873	29354.352514121187
2.2390167713165283	24393.483364019987
2.2420592308044434	19884.54203620749
2.2450966835021973	17549.33916253897
2.248128890991211	14136.06350503969
2.2511560916900635	11941.068057928955
2.254178285598755	10840.460908245022
2.257194995880127	10121.239301611093
2.260206699371338	10451.012996018751
2.2632133960723877	11040.774337355324
2.266214609146118	11971.19509694712
2.2692108154296875	13262.256992757493
2.2722020149230957	14577.388825674947
2.2751877307891846	14444.195875207717
2.278168201446533	14056.161097487458
2.2811436653137207	13596.305232588742
2.284113883972168	10958.009463978025
2.287078857421875	9168.93612069485
2.290038824081421	8593.99691285746
2.2929933071136475	7757.082119666259
2.295942783355713	7840.576285881672
2.298887014389038	9166.927828360507
2.301826238632202	11001.95177796212
2.304760217666626	15074.435878658775
2.3076889514923096	27481.383104919638
2.310612440109253	47503.119417700356
2.3135311603546143	51945.13206063502
2.3164443969726562	29108.41396105438
2.319352865219116	8317.190540390762
2.322256088256836	5428.435037809666
2.3251543045043945	7235.299795961224
2.328047275543213	7689.382335352573
2.330935478210449	8234.220547906432
2.3338186740875244	9325.54133987857
2.3366971015930176	9955.83744682901
2.3395702838897705	10166.545518741188
2.3424389362335205	10526.096471756742
2.3453025817871094	9775.377485146542
2.348161458969116	9235.770742234969
2.351015567779541	10720.841707920541
2.353865146636963	12784.50767670311
2.3567099571228027	15782.066236713537
2.3595502376556396	21674.683017185173
2.3623859882354736	27502.729733961663
2.3652172088623047	27741.944167956295
2.368043899536133	21008.48288546679
2.370866537094116	11420.374426078819
2.3736846446990967	7618.462279595743
2.3764986991882324	11096.962942891434
2.3793084621429443	14414.625695631676
2.3821144104003906	14313.38896607851
2.384916305541992	16449.96838051207
2.387714147567749	22708.118133132066
2.3905084133148193	25691.415555293395
2.393299102783203	24225.56338716759
2.3960859775543213	24308.30088560533
2.398869514465332	29873.349350953187
2.4016497135162354	37961.456616160474
2.4044265747070312	43045.36796332577
2.407200336456299	44761.598863892425
2.409970998764038	55004.0501612706
2.4127390384674072	69332.16770710723
2.415503978729248	63599.56074922341
2.418266534805298	49654.742366528895
2.4210267066955566	46500.683260207195
2.4237842559814453	42181.86652349817
2.426539897918701	40503.060166942785
2.429293394088745	54985.406409056755
2.4320452213287354	67928.3596320357
2.4347951412200928	67000.494875944
2.4375438690185547	78734.09612894982
2.440291166305542	101452.721277392
2.443037271499634	104447.2635973596
2.445782423019409	93873.14897480475
2.4485268592834473	89484.20820790538
2.451270818710327	92187.1549873846
2.454014539718628	102428.2236945154
2.4567582607269287	120113.2449433591
2.4595019817352295	133513.46984228864
2.4622461795806885	149842.24990831243
2.4649908542633057	170812.39227041078
2.4677364826202393	162296.86041803277
2.4704833030700684	137777.95104347667
2.473231554031372	128731.79717018073
2.4759814739227295	135594.88369927165
2.4787333011627197	141555.6221666145
2.481487512588501	144081.5177671607
