#wavelength	surface flux
0.6450077295303345	23850.263933838614
0.6472567915916443	38168.17446675868
0.6494921445846558	51226.3902662659
0.6517150402069092	60808.2158006798
0.6539263725280762	71265.20960479564
0.6561272740364075	82894.55201562234
0.6583186388015747	95716.36173738659
0.6605015397071838	109703.1651995842
0.6626768708229065	124639.90321557745
0.6648455858230591	139713.5571778631
0.6670085787773132	148806.1597171548
0.6691668033599854	140128.35819292662
0.6713210344314575	139332.5044415101
0.6734722256660461	178727.5976970454
0.6756211519241333	224904.64411762235
0.6777685880661011	252405.2811545928
0.6799154281616211	273415.6367938583
0.6820623278617859	292296.45336327574
0.6842101216316223	309295.55291663273
0.6863595843315125	324074.84428628936
0.688511312007904	335792.1075326606
0.6906660795211792	343162.1271793666
0.6928245425224304	346968.39509280544
0.6949873566627502	350024.9287490782
0.6971551775932312	351495.4786217358
0.6993286609649658	348470.037990867
0.7015084028244019	341227.90039811854
0.7036949396133423	331262.70189367846
0.7058889269828796	318976.2664836121
0.7080909013748169	304291.21468422393
0.710301399230957	287423.25669089943
0.712520956993103	268708.37565587915
0.7147500514984131	247795.76506542016
0.7169892191886902	225271.21902196956
0.7192389369010925	204035.1131771204
0.7214996814727783	184424.0583005183
0.723771870136261	164616.56245780125
0.7260559797286987	145132.55084655512
0.7283523678779602	126989.89525594695
0.7306615710258484	110256.53213452596
0.7329838871955872	95029.17875707815
0.7353196740150452	81156.82262268482
0.7376693487167358	68372.79879391707
0.7400332689285278	56863.212002574925
0.7424117922782898	46692.53451277156
0.7448052167892456	37815.461959875465
0.7472138404846191	30177.118768573837
0.7496379613876343	23716.213518231918
0.7520779371261597	18366.058043727273
0.7545340061187744	14026.681132954369
0.7570064663887024	10553.354853098805
0.7594954967498779	7719.751621049035
0.7620013952255249	5222.0425497246415
0.7645244002342224	2988.775988518429
0.7670646905899048	1630.8783232438636
0.7696225643157959	1789.7346022382042
0.7721980810165405	3718.1560974608633
0.7747915983200073	7018.6801568486335
0.7774031162261963	10494.633524512667
0.7800329327583313	14723.805584396148
0.7826811671257019	22277.13112043207
0.7853479981422424	32950.508851299186
0.7880334854125977	45572.15594406848
0.7907378077507019	57860.784466153724
0.7934610247612	67012.84920960208
0.7962033748626709	88368.40176888369
0.7989648580551147	129635.15184825523
0.801745593547821	174841.63736734822
0.8045456409454346	221039.61904717438
0.8073651194572449	273817.5028698112
0.8102040886878967	333652.3962395989
0.8130625486373901	402464.2892272904
0.8159406185150146	483844.34010931174
0.8188382983207703	578892.4237545136
0.8217556476593018	688064.7361935832
0.8246926665306091	814661.7024250741
0.8276493549346924	956663.170977716
0.8306257724761963	1109895.0362098452
0.8336219191551208	1278296.9504875066
0.8366377949714661	1465252.5936346469
0.8396733403205872	1671292.59673568
0.8427285552024841	1897384.216641606
0.8458034992218018	2124790.900905914
0.8488980531692505	2232826.5055611352
0.8520121574401855	2300807.57328876
0.8551458716392517	2715451.4709304697
0.8582990765571594	3246677.9554917263
0.8614717125892639	3468565.859374184
0.8646637797355652	3651728.2748788153
0.8678751587867737	4025091.231018439
0.8711057901382446	4448676.765352687
0.8743556141853333	4882296.108746347
0.87762451171875	5342050.645646978
0.8809124231338501	5731351.282638703
0.8842192888259888	6065239.460499457
0.8875449895858765	6370750.100126241
0.8908893465995789	6305888.487191198
0.894252359867096	6128417.728928115
0.8976338505744934	7094952.182471535
0.9010337591171265	8848218.738431543
0.9044519662857056	10253849.62010952
0.9078882932662964	11262056.670617785
0.9113426208496094	12024342.317019278
0.914814829826355	12712529.355708519
0.9183048605918884	13522184.215128483
0.9218124747276306	14173033.33464251
0.925337553024292	13212921.595729819
0.9288799166679382	10729526.061209423
0.9324395060539246	9744188.799230097
0.9360161423683167	11408169.452855676
0.9396095871925354	13819449.60480379
0.943219780921936	15015956.357667813
0.9468464851379395	15140314.563424908
0.9504896402359009	15456055.149181476
0.9541489481925964	15798705.186097264
0.9578243494033813	15928089.19821077
0.9615156054496765	16572251.873372052
0.9652225375175476	18293726.482127488
0.9689450263977051	20566107.216813937
0.9726828336715698	22497561.361833062
0.9764357805252075	24271789.381155476
0.9802037477493286	26170227.806812864
0.983986496925354	27977550.156965934
0.9877838492393494	29418081.237482205
0.9915955662727356	30184218.681880902
0.9954215884208679	29948201.21675646
0.9992615580558777	28596245.130675986
1.0031154155731201	28454630.520837378
1.0069829225540161	30683546.18148736
1.0108637809753418	33630333.542449966
1.0147579908370972	36543932.691087455
1.018665075302124	39278053.08958515
1.022585153579712	41716682.84701104
1.0265177488327026	43830947.98851493
1.0304628610610962	46102351.837130554
1.0344202518463135	48849440.11870554
1.0383895635604858	51640853.07527226
1.0423706769943237	54119183.87547165
1.0463634729385376	56241753.24631791
1.0503677129745483	57947933.43317982
1.0543830394744873	59467309.38241139
1.058409333229065	61124536.49012411
1.0624464750289917	63123038.85314465
1.0664942264556885	65375812.56942298
1.0705522298812866	67635431.06244558
1.0746204853057861	69984929.85295752
1.0786986351013184	72217320.8785248
1.0827864408493042	73467937.15433958
1.086883783340454	71636410.27375694
1.0909905433654785	64774454.52756013
1.0951062440872192	54408720.93966208
1.0992310047149658	43813851.40348966
1.10336434841156	34220419.05820124
1.1075061559677124	25943856.71451463
1.1116561889648438	19668224.40410659
1.115814208984375	16723765.630980507
1.1199802160263062	17265897.27064228
1.124153733253479	20085915.332238555
1.1283347606658936	21652240.052743357
1.1325229406356812	18825923.822375674
1.1367181539535522	17524357.8454077
1.1409201622009277	20517152.72411603
1.145128846168518	23311452.734747782
1.1493438482284546	24474403.503584966
1.1535650491714478	23358513.780938372
1.1577922105789185	21757935.96110484
1.1620250940322876	21179614.383390218
1.1662636995315552	20475760.452113207
1.170507550239563	20613279.85008411
1.174756646156311	21738423.850464977
1.1790107488632202	24964580.752528742
1.1832695007324219	32051629.94469209
1.1875330209732056	39874015.807473205
1.191800832748413	46592073.77736824
1.1960728168487549	52940144.35958399
1.2003488540649414	58582147.45229299
1.2046287059783936	63881236.61578764
1.2089121341705322	68763483.84661166
1.2131990194320679	73208952.33031881
1.2174891233444214	77716439.58790836
1.2217823266983032	81731669.86088495
1.2260783910751343	85458507.08425035
1.230377197265625	88801966.47644715
1.2346785068511963	90178083.90645929
1.238982081413269	86742936.87638949
1.2432878017425537	80445900.82667714
1.2475954294204712	75539947.4782495
1.2519049644470215	72329275.18765701
1.256216049194336	80391351.1594756
1.2605286836624146	96232244.83505899
1.2648425102233887	104907372.1427906
1.2691574096679688	107655627.43624078
1.2734732627868652	108140943.38840644
1.2777899503707886	107470073.15656146
1.2821072340011597	105155646.13044304
1.2864248752593994	101094123.24140684
1.2907428741455078	97575853.39612621
1.2950609922409058	95435357.01971242
1.2993791103363037	93315600.4323354
1.303696870803833	90916239.30796681
1.3080145120620728	87840630.09945689
1.3123314380645752	82538717.32038859
1.3166478872299194	76475390.39591014
1.3209635019302368	69409825.30054963
1.3252781629562378	56660267.19303049
1.3295916318893433	37806488.413146585
1.3339040279388428	19204126.167766854
1.3382149934768677	7878539.095911255
1.3425244092941284	3820729.2674972257
1.3468321561813354	2588909.2296338826
1.3511382341384888	1936336.4844896914
1.3554422855377197	1513524.8438811705
1.3597444295883179	1514806.6412847245
1.3640443086624146	1965923.8566581185
1.3683418035507202	2405157.043811826
1.3726370334625244	2892199.1746458835
1.3769296407699585	3592030.2379834503
1.381219506263733	3544954.4979335726
1.3855066299438477	2914455.9423365504
1.3897908926010132	2609473.0677074348
1.3940720558166504	2463070.1813315614
1.3983501195907593	2459388.475516388
1.4026249647140503	2688221.5970729603
1.4068963527679443	2751494.4370081825
1.4111642837524414	2595475.5782747427
1.4154287576675415	2559443.92237294
1.419689416885376	2580279.1871095323
1.4239463806152344	2737573.9344472
1.4281994104385376	3276887.9447469837
1.4324485063552856	3783771.0398730626
1.436693549156189	4038569.8741882406
1.440934419631958	4394458.265552124
1.4451709985733032	5052001.528549359
1.449403166770935	6233499.394508114
1.453631043434143	7553855.474176563
1.4578542709350586	8631540.780854361
1.4620729684829712	9217942.626384184
1.4662868976593018	9216046.57554585
1.4704961776733398	9255429.601677213
1.4747005701065063	9879381.338861248
1.4788999557495117	10752592.578257
1.4830944538116455	11399527.522971638
1.4872838258743286	12047936.541308813
1.491468071937561	13030428.441646265
1.4956470727920532	14328704.170396142
1.4998208284378052	15784838.204439754
1.5039892196655273	17252197.532005906
1.5081522464752197	18580401.128414474
1.5123097896575928	20003919.98272618
1.5164618492126465	21687790.38601867
1.5206083059310913	23847346.02542243
1.5247491598129272	26096519.210152924
1.5288842916488647	28021664.936741073
1.5330137014389038	30082034.24384586
1.5371372699737549	32104750.03663139
1.541254997253418	33817701.5462346
1.545366883277893	35764775.69574762
1.5494728088378906	37574659.97801049
1.5535727739334106	38831695.89613864
1.5576666593551636	40369230.47511373
1.561754584312439	42821172.562993
1.5658363103866577	45432801.68717298
1.5699119567871094	47001414.85191634
1.5739814043045044	47784442.156495355
1.5780447721481323	48615432.34521056
1.582101821899414	49382122.337719694
1.5861525535583496	49557595.66856807
1.5901970863342285	48957907.9827155
1.5942351818084717	47963005.10111071
1.5982669591903687	46734969.97905195
1.6022924184799194	44765455.56892242
1.606311559677124	42231656.411235355
1.6103241443634033	39614914.58114715
1.6143304109573364	36760344.850047015
1.6183301210403442	33988570.48788129
1.6223233938217163	32173458.838268172
1.6263102293014526	31269155.561894342
1.6302905082702637	31002955.548959527
1.634264349937439	31899075.518284235
1.638231635093689	33944763.946857095
1.6421923637390137	35251894.21349407
1.646146535873413	34928600.43519484
1.6500942707061768	34910256.093045436
1.6540353298187256	34404556.287260495
1.6579699516296387	33637662.8127888
1.661897897720337	31664305.156961154
1.6658192873001099	21984021.687434856
1.6697341203689575	14773568.371904802
1.6736423969268799	20153144.002105042
1.677544116973877	26554308.82657176
1.6814392805099487	27213187.024173506
1.6853278875350952	25526325.643712558
1.6892099380493164	23536766.778843667
1.6930854320526123	21476961.256959636
1.696954369544983	19567518.645869922
1.7008168697357178	18303570.156427752
1.7046726942062378	18235293.48133246
1.708522081375122	19401360.264079
1.712364912033081	20440561.9318646
1.7162011861801147	21078534.37090415
1.7200311422348022	21592616.853668507
1.723854422569275	20980735.816254433
1.7276713848114014	19965817.19087365
1.731481909751892	19209485.21650051
1.7352858781814575	18382837.15159804
1.7390835285186768	17742384.6580303
1.7428747415542603	17325101.095746346
1.7466596364974976	16747294.307365716
1.7504380941390991	15758307.182537826
1.7542102336883545	14129092.793652691
1.7579760551452637	12663579.049629848
1.7617355585098267	11950346.545805845
1.7654887437820435	10995168.534428805
1.7692357301712036	9743816.246832328
1.7729763984680176	8738019.134977534
1.776710867881775	8024208.082241496
1.7804391384124756	7554794.838670977
1.7841613292694092	6826847.066735164
1.7878772020339966	6232157.738238585
1.7915871143341064	5760869.734497561
1.7952908277511597	5342493.949173791
1.7989884614944458	5191333.431929224
1.8026801347732544	4532915.606955074
1.806365728378296	4133932.810457674
1.8100452423095703	4415344.338838667
1.8137187957763672	4684205.059338186
1.817386507987976	4411398.921885215
1.8210482597351074	4424225.674786186
1.8247040510177612	5062620.128340241
1.828354001045227	4711197.878420122
1.8319982290267944	3957377.077668874
1.8356364965438843	3659630.2364972737
1.8392690420150757	3632985.024773959
1.8428958654403687	4054484.132151994
1.8465168476104736	4172868.4516160297
1.8501322269439697	4012675.974899372
1.8537418842315674	3841533.349837765
1.8573459386825562	3304736.450832684
1.860944390296936	2817689.9344698554
1.864537239074707	2601751.0637989324
1.8681244850158691	2490502.9629458096
1.871706247329712	2750823.8749860064
1.8752825260162354	3714382.0797762983
1.8788533210754395	5154740.103906609
1.8824186325073242	6150101.893800681
1.8859784603118896	6253948.736014396
1.8895330429077148	6192599.384888685
1.8930821418762207	6896972.933468487
1.8966259956359863	7447241.832894901
1.9001644849777222	6657799.703465606
1.9036977291107178	5928051.801916284
1.9072256088256836	6205770.505152653
1.9107483625411987	6158643.262699827
1.9142658710479736	5713160.217952288
1.9177782535552979	5772261.496895702
1.9212853908538818	5505252.626912769
1.9247875213623047	4896956.477515897
1.9282845258712769	4456290.87690699
1.9317764043807983	4082891.4069257854
1.9352631568908691	3790948.1887015617
1.9387450218200684	3447843.577692368
1.942221760749817	3619472.3562840763
1.9456936120986938	4120165.7673790874
1.9491604566574097	4404600.757221554
1.952622413635254	4440503.195781957
1.956079363822937	4270979.546679158
1.959531545639038	4414066.802798029
1.962978720664978	4813820.263337639
1.966421127319336	5382323.702965465
1.9698586463928223	5729053.914491687
1.9732913970947266	5625422.893587584
1.9767193794250488	5893556.486164232
1.9801424741744995	6352117.156912448
1.9835609197616577	6965034.38513539
1.9869745969772339	7488013.4514299715
1.990383505821228	7365939.370318912
1.9937876462936401	7917532.858106534
1.9971871376037598	8770035.602646673
2.000581979751587	9224892.793617463
2.003972291946411	9814786.37898048
2.007357597351074	9893142.974828003
2.0107386112213135	10212067.277574882
2.0141148567199707	10958106.158159737
2.017486572265625	11051964.297352688
2.0208535194396973	11754698.117365032
2.0242159366607666	12847468.79824526
2.027573823928833	12852161.400108717
2.0309269428253174	13076941.201614382
2.034275770187378	14101241.96341234
2.0376198291778564	14670174.028724555
2.040959596633911	14727253.192068052
2.044294595718384	15308454.849883594
2.0476250648498535	16198587.965131998
2.0509510040283203	16370696.452749768
2.054272413253784	16510307.796032479
2.057589530944824	17381041.797087274
2.0609018802642822	17832224.124381807
2.0642096996307373	17808637.58611618
2.0675129890441895	18118387.77984035
2.0708119869232178	18357982.518745907
2.074106216430664	18370432.438059382
2.0773961544036865	18433680.65776067
2.080681324005127	18624608.830705717
2.0839622020721436	18777167.062764965
2.087238311767578	18854812.40183539
2.090510129928589	18948889.244120304
2.0937774181365967	18927955.199981563
2.0970399379730225	18810175.39809511
2.1002981662750244	18610459.78357505
2.1035518646240234	18363925.013122726
2.1068007946014404	18153875.826437492
2.1100454330444336	17997331.12019135
2.1132853031158447	17969883.399122927
2.116520881652832	17768667.569269367
2.1197516918182373	17479857.961464044
2.1229779720306396	17401582.6101841
2.12619948387146	17275272.07612219
2.1294167041778564	17012944.26270695
2.132629156112671	16822161.363662105
2.1358368396759033	16596783.539231373
2.139039993286133	16141189.399837488
2.1422386169433594	15451236.853171712
2.145432472229004	14786858.030879948
2.1486217975616455	14474813.378967116
2.151806354522705	14351931.687269941
2.1549863815307617	14213218.731716987
2.1581614017486572	13906465.322108421
2.16133189201355	13416512.767268157
2.1644976139068604	13021347.365415923
2.167658567428589	12658647.690470787
2.1708147525787354	12281731.639991146
2.173966407775879	11880252.630847268
2.1771130561828613	11401599.043168845
2.1802549362182617	10973767.39120771
2.183391809463501	10458636.724373035
2.1865241527557373	9821096.7811277
2.1896514892578125	9040209.654385809
2.1927738189697266	7958572.976525573
2.1958916187286377	6477456.593006305
2.1990041732788086	4819083.102674732
2.2021119594573975	3704090.291801412
2.2052149772644043	3493473.965076299
2.208312749862671	3943217.651053896
2.2114057540893555	4602953.495531852
2.214493751525879	5141018.768571091
2.217576742172241	5437805.965534376
2.2206547260284424	5502156.947116111
2.2237277030944824	5367610.013573157
2.2267956733703613	4978804.096789057
2.2298583984375	4578925.430100755
2.2329163551330566	4387165.477381199
2.235969066619873	4265364.673738105
2.2390167713165283	4018003.4863771624
2.2420592308044434	3685091.0716876932
2.2450966835021973	3424780.2999701854
2.248128890991211	3270637.144219396
2.2511560916900635	3193120.492125293
2.254178285598755	3137201.6738859233
2.257194995880127	3111006.5035138195
2.260206699371338	3095397.4082840956
2.2632133960723877	3107283.6805166034
2.266214609146118	3158766.6668689684
2.2692108154296875	3174065.7399932607
2.2722020149230957	3162699.555615836
2.2751877307891846	3104361.658447717
2.278168201446533	3041694.7889138157
2.2811436653137207	2918825.4874395607
2.284113883972168	2680642.246237745
2.287078857421875	2507416.5164133515
2.290038824081421	2341485.9756578086
2.2929933071136475	2208573.8478302476
2.295942783355713	2263996.4768395647
2.298887014389038	2516865.0495607
2.301826238632202	2846422.467867137
2.304760217666626	3295748.8995467983
2.3076889514923096	4122067.20686227
2.310612440109253	5043332.565318428
2.3135311603546143	5017599.11525102
2.3164443969726562	3469479.451856222
2.319352865219116	1994892.9661294075
2.322256088256836	1750410.3369245133
2.3251543045043945	1844426.9252603159
2.328047275543213	1862534.2064207257
2.330935478210449	1937468.4862709004
2.3338186740875244	2020507.970623316
2.3366971015930176	2066592.0094175248
2.3395702838897705	2081601.6104739031
2.3424389362335205	2070965.5574796489
2.3453025817871094	2025087.8710340862
2.348161458969116	2044861.9069078832
2.351015567779541	2193761.2532014074
2.353865146636963	2390406.608404311
2.3567099571228027	2600402.040723512
2.3595502376556396	2958861.3384746877
2.3623859882354736	3373766.371127457
2.3652172088623047	3507959.620894366
2.368043899536133	3033286.733090396
2.370866537094116	2082285.1318645054
2.3736846446990967	1678232.5672114368
2.3764986991882324	1904118.9041112221
2.3793084621429443	2019625.6670907617
2.3821144104003906	1998084.9830179329
2.384916305541992	2207460.900857759
2.387714147567749	2661311.4506884776
2.3905084133148193	2887057.9212018196
2.393299102783203	2870946.1837285594
2.3960859775543213	2981942.3503977675
2.398869514465332	3305508.485237765
2.4016497135162354	3596899.050566146
2.4044265747070312	3696623.764881463
2.407200336456299	3662410.9470534194
2.409970998764038	3849606.4719100045
2.4127390384674072	4216501.917850833
2.415503978729248	4078652.585136587
2.418266534805298	3802389.5679591307
2.4210267066955566	3955239.712788178
2.4237842559814453	3935514.052274885
2.426539897918701	3747683.627336093
2.429293394088745	4038969.039587448
2.4320452213287354	4412258.287752792
2.4347951412200928	4198502.652448009
2.4375438690185547	4228459.658193744
2.440291166305542	4693377.557927118
2.443037271499634	4617800.320337339
2.445782423019409	4294595.701289512
2.4485268592834473	4265958.580494482
2.451270818710327	4190517.970433676
2.454014539718628	4179533.977271786
2.4567582607269287	4585641.999668664
2.4595019817352295	4679486.335091666
2.4622461795806885	4757395.279011834
2.4649908542633057	5050262.8605142925
2.4677364826202393	4592525.023201001
2.4704833030700684	3989781.894007761
2.473231554031372	3767963.76720163
2.4759814739227295	3800408.905472517
2.4787333011627197	3967709.4861302455
2.481487512588501	4079172.4100524983
