#wavelength	surface flux
0.6450077295303345	126.79696737456678
0.6472567915916443	198.09528018082082
0.6494921445846558	256.37188013498985
0.6517150402069092	291.30646939479755
0.6539263725280762	326.03025494474446
0.6561272740364075	361.880968345822
0.6583186388015747	400.06823165792855
0.6605015397071838	442.7063391140579
0.6626768708229065	487.9890379628761
0.6648455858230591	534.457092177422
0.6670085787773132	576.0397110403287
0.6691668033599854	595.3116255952734
0.6713210344314575	621.3301703761497
0.6734722256660461	693.1564593072434
0.6756211519241333	765.9707999431026
0.6777685880661011	812.2754602890396
0.6799154281616211	851.3530781136097
0.6820623278617859	886.7132678523318
0.6842101216316223	918.288003403497
0.6863595843315125	944.9860706429663
0.688511312007904	959.7904157286496
0.6906660795211792	938.0861374908685
0.6928245425224304	891.9761397773433
0.6949873566627502	897.4709499452758
0.6971551775932312	947.18739767623
0.6993286609649658	961.313978755254
0.7015084028244019	944.5225060597284
0.7036949396133423	938.4190327130854
0.7058889269828796	944.8434816149821
0.7080909013748169	952.5336083081463
0.710301399230957	955.4976057055956
0.712520956993103	944.9995148420321
0.7147500514984131	883.3824385271656
0.7169892191886902	762.0993965418826
0.7192389369010925	687.7897351291404
0.7214996814727783	687.1673623265957
0.723771870136261	664.5159378058082
0.7260559797286987	623.5742746986016
0.7283523678779602	607.188499248869
0.7306615710258484	614.8671325073187
0.7329838871955872	660.1287599466152
0.7353196740150452	710.9414407287153
0.7376693487167358	731.251912069821
0.7400332689285278	744.7109130076067
0.7424117922782898	758.6361067737313
0.7448052167892456	764.1143537986278
0.7472138404846191	755.5607566058244
0.7496379613876343	731.4892414152337
0.7520779371261597	692.5954070466915
0.7545340061187744	637.9314912633691
0.7570064663887024	567.0700536508252
0.7594954967498779	478.94012026637375
0.7620013952255249	365.3475870682633
0.7645244002342224	226.60880056374015
0.7670646905899048	125.53823976729286
0.7696225643157959	138.46801793189277
0.7721980810165405	283.5419333064191
0.7747915983200073	491.43409649508277
0.7774031162261963	637.282676327142
0.7800329327583313	744.1792214105934
0.7826811671257019	966.902932871041
0.7853479981422424	1248.6327606471323
0.7880334854125977	1473.6220215754581
0.7907378077507019	1619.9595413257503
0.7934610247612	1644.5874010015243
0.7962033748626709	1811.6520180940947
0.7989648580551147	2239.274550954154
0.801745593547821	2626.407582547583
0.8045456409454346	2906.5381247007117
0.8073651194572449	3088.2617300254215
0.8102040886878967	3051.2958444351884
0.8130625486373901	2911.3847996021987
0.8159406185150146	3094.2087625636123
0.8188382983207703	3679.507694893649
0.8217556476593018	4174.35138787559
0.8246926665306091	4676.838483471335
0.8276493549346924	5366.9362854646415
0.8306257724761963	5939.499371669607
0.8336219191551208	6538.014525245198
0.8366377949714661	7354.068259685373
0.8396733403205872	8353.247253454667
0.8427285552024841	9528.329613477305
0.8458034992218018	10864.639858980852
0.8488980531692505	12072.109004266214
0.8520121574401855	13108.290287009995
0.8551458716392517	14582.959543617035
0.8582990765571594	16083.227304396278
0.8614717125892639	16994.697602340322
0.8646637797355652	18066.457658020812
0.8678751587867737	19863.38781273857
0.8711057901382446	21939.225894126175
0.8743556141853333	23501.85824210347
0.87762451171875	23400.581142165785
0.8809124231338501	20213.160364031537
0.8842192888259888	15711.16691192108
0.8875449895858765	12989.99478705096
0.8908893465995789	11479.846085012783
0.894252359867096	10250.94863958133
0.8976338505744934	12182.533621783565
0.9010337591171265	19895.72368662159
0.9044519662857056	29630.50496640102
0.9078882932662964	34078.98141602755
0.9113426208496094	33308.591566672214
0.914814829826355	31814.26803496166
0.9183048605918884	32969.986145047136
0.9218124747276306	34693.32284716685
0.925337553024292	27014.581314321666
0.9288799166679382	12265.122000205734
0.9324395060539246	4057.6251927540225
0.9360161423683167	4932.873390196104
0.9396095871925354	8792.85252693385
0.943219780921936	10024.361367967065
0.9468464851379395	8462.856488537376
0.9504896402359009	7475.55902132066
0.9541489481925964	7061.292115065696
0.9578243494033813	6936.074492315729
0.9615156054496765	8383.466831255784
0.9652225375175476	13781.894229559697
0.9689450263977051	21748.379750235712
0.9726828336715698	26076.734485808654
0.9764357805252075	27413.12619024025
0.9802037477493286	29717.41011459472
0.983986496925354	32458.029833285003
0.9877838492393494	36400.77030335954
0.9915955662727356	44279.625941016246
0.9954215884208679	56566.03939518482
0.9992615580558777	71988.47619685244
1.0031154155731201	88316.99355173082
1.0069829225540161	98388.94194369558
1.0108637809753418	96985.46381224299
1.0147579908370972	86561.06868380123
1.018665075302124	73691.7907097366
1.022585153579712	70138.84235633085
1.0265177488327026	79146.92878395322
1.0304628610610962	83893.54285152242
1.0344202518463135	80074.01206986279
1.0383895635604858	87185.17082334853
1.0423706769943237	105762.09088853419
1.0463634729385376	122528.87350889828
1.0503677129745483	138486.19869136447
1.0543830394744873	157112.630978681
1.058409333229065	173435.16601759204
1.0624464750289917	182801.76444096328
1.0664942264556885	184900.41300941465
1.0705522298812866	182406.58305812726
1.0746204853057861	181888.91485342366
1.0786986351013184	182917.4335631116
1.0827864408493042	180002.0541851396
1.086883783340454	167320.95119387106
1.0909905433654785	140028.30296830836
1.0951062440872192	103700.77611877823
1.0992310047149658	68611.95327343623
1.10336434841156	39761.879638140046
1.1075061559677124	20142.473869911024
1.1116561889648438	9050.24764251429
1.115814208984375	3853.6446061650418
1.1199802160263062	2575.6405731980444
1.124153733253479	2742.42283872546
1.1283347606658936	3256.680145306465
1.1325229406356812	3510.8710598124308
1.1367181539535522	5512.867192390637
1.1409201622009277	8366.531734143415
1.145128846168518	7597.477241530489
1.1493438482284546	4831.229586761109
1.1535650491714478	2961.883226980657
1.1577922105789185	2266.1899715065147
1.1620250940322876	2455.398861404476
1.1662636995315552	3782.7480523272216
1.170507550239563	8080.043388768041
1.174756646156311	15938.302654549154
1.1790107488632202	26471.779089627893
1.1832695007324219	36809.55068685577
1.1875330209732056	43722.49956137886
1.191800832748413	49144.152550193416
1.1960728168487549	55529.82819050234
1.2003488540649414	62260.468402096245
1.2046287059783936	70008.28895924802
1.2089121341705322	75945.53601092972
1.2131990194320679	79683.63137879819
1.2174891233444214	85221.06689593391
1.2217823266983032	96015.15423750211
1.2260783910751343	117890.48524612775
1.230377197265625	147767.89521952794
1.2346785068511963	178093.18996981592
1.238982081413269	213218.95543789002
1.2432878017425537	256042.26425210285
1.2475954294204712	295719.5156547419
1.2519049644470215	322872.8510712324
1.256216049194336	351937.5904580279
1.2605286836624146	398469.05485647655
1.2648425102233887	441856.89132098673
1.2691574096679688	446955.39851432166
1.2734732627868652	404064.5354721967
1.2777899503707886	337350.8818016149
1.2821072340011597	267586.4508997409
1.2864248752593994	206054.31449605673
1.2907428741455078	168108.89739425885
1.2950609922409058	153106.14844689358
1.2993791103363037	143028.12149301372
1.303696870803833	126053.1187084131
1.3080145120620728	107416.81488339382
1.3123314380645752	85833.44038993564
1.3166478872299194	70537.18127146033
1.3209635019302368	71243.4214261408
1.3252781629562378	67666.7350361666
1.3295916318893433	45075.22140864973
1.3339040279388428	19100.27173072312
1.3382149934768677	6395.229305978652
1.3425244092941284	2107.9357112206594
1.3468321561813354	499.2300116497764
1.3511382341384888	160.25814077111423
1.3554422855377197	52.63065474885803
1.3597444295883179	21.543694558487353
1.3640443086624146	29.005402550612825
1.3683418035507202	44.23524449944979
1.3726370334625244	97.60292518102689
1.3769296407699585	167.3449054576511
1.381219506263733	139.7357758016466
1.3855066299438477	77.45859214564352
1.3897908926010132	82.4008964106098
1.3940720558166504	105.1854837249758
1.3983501195907593	123.89131942987505
1.4026249647140503	142.13488427848975
1.4068963527679443	155.8471894512572
1.4111642837524414	199.50209428029282
1.4154287576675415	262.7970485279193
1.419689416885376	298.0994412184986
1.4239463806152344	480.0196469536901
1.4281994104385376	1025.4307273686113
1.4324485063552856	1409.7391342478334
1.436693549156189	1414.1072749229716
1.440934419631958	1781.6022828685955
1.4451709985733032	2903.815919700961
1.449403166770935	4759.088474646631
1.453631043434143	6704.768737882639
1.4578542709350586	7878.581768113497
1.4620729684829712	6903.86969589205
1.4662868976593018	4317.181447435862
1.4704961776733398	2219.1329573655294
1.4747005701065063	1175.8136691177845
1.4788999557495117	1041.5471423926815
1.4830944538116455	1190.5409579193438
1.4872838258743286	1211.7493656001177
1.491468071937561	1138.0916556428515
1.4956470727920532	1339.1217530315416
1.4998208284378052	2003.8899466104688
1.5039892196655273	2461.4101395374455
1.5081522464752197	2011.4585099974433
1.5123097896575928	1128.2947554924087
1.5164618492126465	1076.9840188934922
1.5206083059310913	2172.6588364877184
1.5247491598129272	3500.6119078579336
1.5288842916488647	4749.091533457504
1.5330137014389038	5975.988846262485
1.5371372699737549	6840.295985759614
1.541254997253418	7984.442337182342
1.545366883277893	9753.290123548362
1.5494728088378906	12854.24303822489
1.5535727739334106	20222.99266279898
1.5576666593551636	32935.442043063005
1.561754584312439	53134.87926186925
1.5658363103866577	82413.16518525139
1.5699119567871094	110066.64284215776
1.5739814043045044	131170.1255261129
1.5780447721481323	156438.19679581025
1.582101821899414	186138.49879010202
1.5861525535583496	210030.6475329591
1.5901970863342285	221382.14008168783
1.5942351818084717	221275.09692497287
1.5982669591903687	209039.07758162863
1.6022924184799194	180448.5811141873
1.606311559677124	143342.90570653017
1.6103241443634033	107841.89187628332
1.6143304109573364	72475.42639480597
1.6183301210403442	42032.9532280184
1.6223233938217163	25965.751712721205
1.6263102293014526	19792.569758515827
1.6302905082702637	17666.009345632498
1.634264349937439	19639.114535670007
1.638231635093689	24519.427981401335
1.6421923637390137	26355.154334469906
1.646146535873413	22099.473499328225
1.6500942707061768	21112.504472274763
1.6540353298187256	24454.17028417439
1.6579699516296387	28937.320457587975
1.661897897720337	31344.127069114296
1.6658192873001099	19314.37276301739
1.6697341203689575	6569.403684989179
1.6736423969268799	6969.986879490265
1.677544116973877	8879.26439691737
1.6814392805099487	7696.445136595661
1.6853278875350952	6607.292929001815
1.6892099380493164	5523.896719382586
1.6930854320526123	3826.6229971211997
1.696954369544983	2550.018363130791
1.7008168697357178	1796.5468416962358
1.7046726942062378	1752.7977530594185
1.708522081375122	3257.1206315757595
1.712364912033081	6216.782308139278
1.7162011861801147	10878.261829390347
1.7200311422348022	14161.176204257057
1.723854422569275	12131.519211503735
1.7276713848114014	9822.487571311385
1.731481909751892	10603.94118768029
1.7352858781814575	13248.584531263641
1.7390835285186768	18626.403403917295
1.7428747415542603	25114.14459877272
1.7466596364974976	29389.06270623287
1.7504380941390991	29848.36879599315
1.7542102336883545	24768.299764980617
1.7579760551452637	17923.9709273261
1.7617355585098267	14422.102259648716
1.7654887437820435	13250.662159290257
1.7692357301712036	12084.048674445798
1.7729763984680176	10157.189691811365
1.776710867881775	10401.498908820276
1.7804391384124756	12248.419315414323
1.7841613292694092	10808.375361929238
1.7878772020339966	7768.3903906750475
1.7915871143341064	5391.1864026765625
1.7952908277511597	4442.06497987487
1.7989884614944458	5105.410232412128
1.8026801347732544	3828.835653908321
1.806365728378296	2291.731024478496
1.8100452423095703	2133.1688737159407
1.8137187957763672	1772.4738343219697
1.817386507987976	1420.7900709917983
1.8210482597351074	1999.3797513693817
1.8247040510177612	2734.554667806157
1.828354001045227	1814.3183347852582
1.8319982290267944	664.5836933223318
1.8356364965438843	415.0320540954507
1.8392690420150757	524.6410696169115
1.8428958654403687	1323.5591165442902
1.8465168476104736	1903.980789261491
1.8501322269439697	1858.2568672081713
1.8537418842315674	1700.3851452864756
1.8573459386825562	1292.643051784358
1.860944390296936	955.2322905071891
1.864537239074707	728.0488724037214
1.8681244850158691	405.4300306005286
1.871706247329712	242.70249295997306
1.8752825260162354	837.0969652953895
1.8788533210754395	2516.969178010222
1.8824186325073242	3735.58115678264
1.8859784603118896	3490.5377109678566
1.8895330429077148	2930.9798679211663
1.8930821418762207	3299.3202679612145
1.8966259956359863	3619.1169581035665
1.9001644849777222	2213.302411504697
1.9036977291107178	937.1817702312546
1.9072256088256836	950.343759965805
1.9107483625411987	909.6751477349252
1.9142658710479736	674.87788198957
1.9177782535552979	705.439176892654
1.9212853908538818	764.5419118015596
1.9247875213623047	652.5194283030164
1.9282845258712769	489.2710356105369
1.9317764043807983	391.63297882199413
1.9352631568908691	364.7069645276689
1.9387450218200684	330.01317054067346
1.942221760749817	384.95385425465173
1.9456936120986938	527.0002169497791
1.9491604566574097	576.5399533490377
1.952622413635254	579.5774723540179
1.956079363822937	847.2075150888702
1.959531545639038	1333.0635586645724
1.962978720664978	1595.8010530618424
1.966421127319336	1724.0050885264548
1.9698586463928223	1666.974845025296
1.9732913970947266	1672.0809471367868
1.9767193794250488	2217.470009759332
1.9801424741744995	2183.236540630562
1.9835609197616577	1870.1780543593884
1.9869745969772339	2420.8393931401174
1.990383505821228	3142.1423927433702
1.9937876462936401	4336.7982451064845
1.9971871376037598	6059.106130142741
2.000581979751587	6590.981012990271
2.003972291946411	5833.963876452844
2.007357597351074	5706.958710685283
2.0107386112213135	5995.366485000471
2.0141148567199707	5508.603950013657
2.017486572265625	4528.263307086329
2.0208535194396973	4208.080215733417
2.0242159366607666	5234.404097738882
2.027573823928833	6397.084455625628
2.0309269428253174	7534.417430462112
2.034275770187378	8813.473000005388
2.0376198291778564	9329.149745203318
2.040959596633911	9842.773370916913
2.044294595718384	11668.214091917765
2.0476250648498535	13639.333765224857
2.0509510040283203	15115.608636291183
2.054272413253784	16746.98677617278
2.057589530944824	18609.453281962273
2.0609018802642822	20650.267462799344
2.0642096996307373	22462.200423538998
2.0675129890441895	24021.33244766628
2.0708119869232178	25524.74117245824
2.074106216430664	27073.3845760567
2.0773961544036865	28302.552097876032
2.080681324005127	29102.7743676935
2.0839622020721436	30222.120216046278
2.087238311767578	31286.931690291767
2.090510129928589	32175.697819298763
2.0937774181365967	32533.81118719764
2.0970399379730225	32128.418875489704
2.1002981662750244	31711.67887112151
2.1035518646240234	31814.017183116976
2.1068007946014404	31847.525178592463
2.1100454330444336	31208.392095310384
2.1132853031158447	30783.72326108073
2.116520881652832	30033.966297030496
2.1197516918182373	28917.81330947377
2.1229779720306396	28032.04941320251
2.12619948387146	27207.6378732255
2.1294167041778564	26537.31505435509
2.132629156112671	26001.399562868293
2.1358368396759033	25488.38525257657
2.139039993286133	24539.409706875893
2.1422386169433594	22148.669987190162
2.145432472229004	19597.552354638792
2.1486217975616455	18267.18755948969
2.151806354522705	17147.039854404367
2.1549863815307617	15735.741921197048
2.1581614017486572	14400.559712892866
2.16133189201355	12577.790402833674
2.1644976139068604	10805.7553768228
2.167658567428589	9651.850685907359
2.1708147525787354	8931.080371675951
2.173966407775879	8855.472033781005
2.1771130561828613	8296.116843322488
2.1802549362182617	7334.071609246656
2.183391809463501	6732.61476958459
2.1865241527557373	6394.9530625805155
2.1896514892578125	5354.248547092838
2.1927738189697266	3430.7234359969193
2.1958916187286377	1721.9108273188217
2.1990041732788086	678.465660576132
2.2021119594573975	266.8750994553789
2.2052149772644043	423.29088106605707
2.208312749862671	907.9368522434705
2.2114057540893555	1226.289719886351
2.214493751525879	1217.9138551705357
2.217576742172241	1148.6613978004184
2.2206547260284424	999.1790489642141
2.2237277030944824	816.1368737256895
2.2267956733703613	664.102714801195
2.2298583984375	487.8416747025386
2.2329163551330566	440.39068060605075
2.235969066619873	444.12123278856984
2.2390167713165283	346.05442009325856
2.2420592308044434	280.46243112958285
2.2450966835021973	248.60753117695003
2.248128890991211	179.69407774379394
2.2511560916900635	139.1371524751762
2.254178285598755	120.56661513768243
2.257194995880127	101.10822717744189
2.260206699371338	102.13375233316084
2.2632133960723877	110.0037846120696
2.266214609146118	124.29304767498155
2.2692108154296875	162.7610248748167
2.2722020149230957	225.18716030701975
2.2751877307891846	240.99058638245944
2.278168201446533	226.4956125780332
2.2811436653137207	215.34806415378446
2.284113883972168	164.2976235989709
2.287078857421875	129.0360177492105
2.290038824081421	117.74316785284242
2.2929933071136475	99.98900128578795
2.295942783355713	93.58608998344683
2.298887014389038	102.24838141557456
2.301826238632202	121.63153884055782
2.304760217666626	192.06309061760606
2.3076889514923096	526.6052629196654
2.310612440109253	1176.9676573503427
2.3135311603546143	1356.0286270022373
2.3164443969726562	701.4555503784396
2.319352865219116	147.53486625525773
2.322256088256836	90.34302670431714
2.3251543045043945	144.14475314036764
2.328047275543213	149.65200932141167
2.330935478210449	136.83493303354322
2.3338186740875244	144.40926972497527
2.3366971015930176	145.60243391936405
2.3395702838897705	139.69870644104046
2.3424389362335205	152.3231905256633
2.3453025817871094	141.28403035951413
2.348161458969116	126.00632108972404
2.351015567779541	160.29715948785284
2.353865146636963	211.24638528762952
2.3567099571228027	304.9599795615003
2.3595502376556396	515.575144115614
2.3623859882354736	695.4141033337072
2.3652172088623047	636.9854902347566
2.368043899536133	400.6623219330511
2.370866537094116	179.68784378632137
2.3736846446990967	128.14252776333467
2.3764986991882324	270.4317350688453
2.3793084621429443	420.9248899862068
2.3821144104003906	419.33828330971227
2.384916305541992	425.97463709635656
2.387714147567749	560.4454716412816
2.3905084133148193	632.9720648265267
2.393299102783203	573.2871756598723
2.3960859775543213	555.3659128586586
2.398869514465332	712.4156883763997
2.4016497135162354	932.0565529156287
2.4044265747070312	1056.4122335876375
2.407200336456299	1168.4997264779295
2.409970998764038	1768.4156427796397
2.4127390384674072	2492.1198937064087
2.415503978729248	2201.9487493717465
2.418266534805298	1499.7342605131957
2.4210267066955566	1307.8552710006945
2.4237842559814453	1141.3276067982229
2.426539897918701	1126.6906250154298
2.429293394088745	1764.0958028391547
2.4320452213287354	2277.5850832434894
2.4347951412200928	2264.490038206609
2.4375438690185547	2974.9110931574182
2.440291166305542	4200.659755486344
2.443037271499634	4391.49190473493
2.445782423019409	3799.069720227997
2.4485268592834473	3516.164143786158
2.451270818710327	3786.009727267125
2.454014539718628	4559.061132172917
2.4567582607269287	5625.390694971884
2.4595019817352295	6548.378104235986
2.4622461795806885	7554.3489356313285
2.4649908542633057	9020.446601027115
2.4677364826202393	9213.868791373814
2.4704833030700684	8063.544152152977
2.473231554031372	7584.178131049977
2.4759814739227295	8211.1449471064
2.4787333011627197	8364.66846333321
2.481487512588501	8049.484731934246
