#wavelength	surface flux
0.6450077295303345	296847.70619485126
0.6472567915916443	470484.44838734425
0.6494921445846558	620370.5490756581
0.6517150402069092	720876.21006671
0.6539263725280762	826073.3950642414
0.6561272740364075	938345.4076775522
0.6583186388015747	1057168.4051634613
0.6605015397071838	1179960.3316153476
0.6626768708229065	1298564.7152433975
0.6648455858230591	1388805.7217903344
0.6670085787773132	1359011.2146825488
0.6691668033599854	1104011.6934328952
0.6713210344314575	977775.6440101283
0.6734722256660461	1371756.4459686582
0.6756211519241333	1893853.3617856274
0.6777685880661011	2193473.240187146
0.6799154281616211	2383599.984409452
0.6820623278617859	2548198.4015639555
0.6842101216316223	2697673.2645848766
0.6863595843315125	2826814.7620558776
0.688511312007904	2936624.145152686
0.6906660795211792	3009989.1136553637
0.6928245425224304	3045145.2003335664
0.6949873566627502	3093402.2638361226
0.6971551775932312	3154100.5140316305
0.6993286609649658	3168377.554293524
0.7015084028244019	3136274.361012328
0.7036949396133423	3066805.33177229
0.7058889269828796	2945618.4106352534
0.7080909013748169	2808330.181533578
0.710301399230957	2687207.154697242
0.712520956993103	2565996.935904595
0.7147500514984131	2430202.060384894
0.7169892191886902	2285059.276830463
0.7192389369010925	2143837.5292692524
0.7214996814727783	2000247.0066613497
0.723771870136261	1843726.4959713668
0.7260559797286987	1680206.1027652107
0.7283523678779602	1517430.94138651
0.7306615710258484	1357346.2511213073
0.7329838871955872	1202195.997416558
0.7353196740150452	1052889.0134773687
0.7376693487167358	909060.305529219
0.7400332689285278	773147.4599501723
0.7424117922782898	646486.7143784028
0.7448052167892456	529716.1372540453
0.7472138404846191	423245.1501248126
0.7496379613876343	327430.9931046921
0.7520779371261597	243019.76884612764
0.7545340061187744	170857.95932797724
0.7570064663887024	111716.75818728078
0.7594954967498779	66136.67240565516
0.7620013952255249	34012.708750870996
0.7645244002342224	14357.39522524755
0.7670646905899048	5729.387930456252
0.7696225643157959	6438.353792887542
0.7721980810165405	18447.368404595956
0.7747915983200073	45792.40957876146
0.7774031162261963	84204.81452696974
0.7800329327583313	141726.2195512376
0.7826811671257019	246684.11325775075
0.7853479981422424	390991.77860155964
0.7880334854125977	553164.1751623693
0.7907378077507019	700565.8933525736
0.7934610247612	795267.5902335682
0.7962033748626709	1017225.8766329268
0.7989648580551147	1449756.4438586226
0.801745593547821	1893152.3189540298
0.8045456409454346	2307399.551333114
0.8073651194572449	2754485.388622261
0.8102040886878967	3238934.341657716
0.8130625486373901	3765919.420397814
0.8159406185150146	4288121.34269056
0.8188382983207703	4825236.332676697
0.8217556476593018	5602386.000705149
0.8246926665306091	6573452.938126485
0.8276493549346924	7520451.676411619
0.8306257724761963	8474329.077457648
0.8336219191551208	9502172.746342191
0.8366377949714661	10614628.532012774
0.8396733403205872	11795476.23317114
0.8427285552024841	12963776.523290252
0.8458034992218018	13964121.299802482
0.8488980531692505	14165737.331073103
0.8520121574401855	14149050.735231197
0.8551458716392517	16320521.862060605
0.8582990765571594	18568040.48517255
0.8614717125892639	17192212.918301824
0.8646637797355652	15322857.82309842
0.8678751587867737	15947792.3799933
0.8711057901382446	17114743.633530717
0.8743556141853333	18455851.438082553
0.87762451171875	20560774.08359561
0.8809124231338501	22789211.817394327
0.8842192888259888	25165591.226751596
0.8875449895858765	27321200.926308416
0.8908893465995789	27662739.07497833
0.894252359867096	27471354.147307456
0.8976338505744934	31756490.338685025
0.9010337591171265	38685567.88192024
0.9044519662857056	43796874.921407804
0.9078882932662964	47969370.84352728
0.9113426208496094	52377548.722939625
0.914814829826355	56912260.396513306
0.9183048605918884	61042428.88599782
0.9218124747276306	63067006.42242002
0.925337553024292	59553567.91431719
0.9288799166679382	52462944.94383094
0.9324395060539246	50819190.84716945
0.9360161423683167	56667809.92197737
0.9396095871925354	64152308.21022106
0.943219780921936	69031901.93979299
0.9468464851379395	71116874.7749136
0.9504896402359009	72229451.29593822
0.9541489481925964	72234702.87974037
0.9578243494033813	71312336.01450203
0.9615156054496765	71919856.4178733
0.9652225375175476	76096326.73560253
0.9689450263977051	82490529.27874133
0.9726828336715698	88485044.55780025
0.9764357805252075	94751098.97263828
0.9802037477493286	101953328.75465225
0.983986496925354	108253060.37412341
0.9877838492393494	107055830.69437394
0.9915955662727356	94968031.28422737
0.9954215884208679	81618750.8612982
0.9992615580558777	69152759.53303118
1.0031154155731201	61273691.86175099
1.0069829225540161	64111982.285961114
1.0108637809753418	71797185.42072551
1.0147579908370972	80443265.83886407
1.018665075302124	89379263.84596689
1.022585153579712	96864238.21270813
1.0265177488327026	101341395.71806397
1.0304628610610962	107160400.28477176
1.0344202518463135	116966066.92927592
1.0383895635604858	126643623.9495343
1.0423706769943237	133003099.44609144
1.0463634729385376	135858295.7800408
1.0503677129745483	135288591.72242188
1.0543830394744873	134237444.06878614
1.058409333229065	136446825.6429022
1.0624464750289917	142471085.0197612
1.0664942264556885	151292316.2879698
1.0705522298812866	162000386.86309877
1.0746204853057861	174184920.8610412
1.0786986351013184	186323463.6707133
1.0827864408493042	196163557.3803802
1.086883783340454	199090819.26583847
1.0909905433654785	190043670.31493726
1.0951062440872192	171249969.3877819
1.0992310047149658	149791505.48725075
1.10336434841156	128809820.02355559
1.1075061559677124	109819626.35909784
1.1116561889648438	96017386.5804966
1.115814208984375	91086112.7320666
1.1199802160263062	94436757.0849518
1.124153733253479	103801249.04029863
1.1283347606658936	107611024.68985139
1.1325229406356812	92773021.5753498
1.1367181539535522	76763852.4636085
1.1409201622009277	80018716.46944559
1.145128846168518	98686388.99650508
1.1493438482284546	115062350.96240959
1.1535650491714478	117176462.57456048
1.1577922105789185	113422262.01587926
1.1620250940322876	107528958.78958383
1.1662636995315552	93719161.65047078
1.170507550239563	80569860.20472234
1.174756646156311	73448183.02164334
1.1790107488632202	75383206.86730248
1.1832695007324219	94370983.41274217
1.1875330209732056	118818550.76014249
1.191800832748413	136755377.0488538
1.1960728168487549	149551709.52798074
1.2003488540649414	160545628.1113978
1.2046287059783936	173654052.42137265
1.2089121341705322	187293152.62821352
1.2131990194320679	200310399.70175904
1.2174891233444214	213202637.83327842
1.2217823266983032	224151429.89287868
1.2260783910751343	235672357.23011485
1.230377197265625	245116182.81352267
1.2346785068511963	245738888.87270033
1.238982081413269	228177029.6291874
1.2432878017425537	202150608.2408221
1.2475954294204712	187587366.0146282
1.2519049644470215	179575769.93993863
1.256216049194336	204463962.144075
1.2605286836624146	252720635.68487427
1.2648425102233887	278314120.7287108
1.2691574096679688	288822602.3964261
1.2734732627868652	293801143.20798415
1.2777899503707886	295877222.2702999
1.2821072340011597	294735445.049685
1.2864248752593994	287140583.48160434
1.2907428741455078	280386121.27188605
1.2950609922409058	279546253.3539297
1.2993791103363037	279826718.07075423
1.303696870803833	278229444.90637654
1.3080145120620728	272890988.7010922
1.3123314380645752	262859292.74043044
1.3166478872299194	250260566.63691846
1.3209635019302368	231597329.50848746
1.3252781629562378	196995684.7125126
1.3295916318893433	141414367.61681446
1.3339040279388428	79212611.54308172
1.3382149934768677	38649227.06334614
1.3425244092941284	24589197.206300847
1.3468321561813354	20116275.1887507
1.3511382341384888	16825455.510545466
1.3554422855377197	14619849.483849365
1.3597444295883179	14994269.295402545
1.3640443086624146	17744123.57088992
1.3683418035507202	19823934.56939894
1.3726370334625244	21285466.22861403
1.3769296407699585	24047659.50149671
1.381219506263733	24784836.041864365
1.3855066299438477	23199158.92121641
1.3897908926010132	21864227.557626262
1.3940720558166504	20299575.55559059
1.3983501195907593	19462973.295687806
1.4026249647140503	20036158.665853143
1.4068963527679443	19696906.124789044
1.4111642837524414	18292662.874859005
1.4154287576675415	17873669.67183109
1.419689416885376	17739127.698213533
1.4239463806152344	17598994.038822893
1.4281994104385376	18843955.05012907
1.4324485063552856	20684880.278944843
1.436693549156189	21942608.291879278
1.440934419631958	23038285.20718115
1.4451709985733032	24742214.929771338
1.449403166770935	28397582.169952206
1.453631043434143	32700160.66322714
1.4578542709350586	35672952.21642281
1.4620729684829712	37014704.46781661
1.4662868976593018	37205247.467954405
1.4704961776733398	37843064.27989569
1.4747005701065063	39952712.60081525
1.4788999557495117	42565325.2496396
1.4830944538116455	44509313.90501605
1.4872838258743286	46328922.606318906
1.491468071937561	48447009.6992847
1.4956470727920532	50924974.75533628
1.4998208284378052	53961087.604536325
1.5039892196655273	57651591.56868308
1.5081522464752197	61822844.8912581
1.5123097896575928	66359197.13743673
1.5164618492126465	70162586.70703891
1.5206083059310913	74097404.37859692
1.5247491598129272	78505306.84734294
1.5288842916488647	82526880.20722592
1.5330137014389038	87382677.35568175
1.5371372699737549	92126049.99728568
1.541254997253418	95968934.4498906
1.545366883277893	100768211.3837689
1.5494728088378906	105320702.10702594
1.5535727739334106	107687686.09592904
1.5576666593551636	109710898.25689217
1.561754584312439	114852487.23407914
1.5658363103866577	122240273.3153244
1.5699119567871094	127526548.2113032
1.5739814043045044	130516622.85498765
1.5780447721481323	132854668.60312557
1.582101821899414	135399476.37833527
1.5861525535583496	137923497.7130328
1.5901970863342285	139176791.18390033
1.5942351818084717	139726119.44525594
1.5982669591903687	139716902.9939375
1.6022924184799194	137964877.43198532
1.606311559677124	135351582.3187968
1.6103241443634033	133144917.24279727
1.6143304109573364	130631819.21727578
1.6183301210403442	127801807.90872733
1.6223233938217163	126577742.49655755
1.6263102293014526	126832100.45496029
1.6302905082702637	127586916.17019741
1.634264349937439	129919139.68215151
1.638231635093689	133771555.86314633
1.6421923637390137	135731234.83715805
1.646146535873413	135167904.25644836
1.6500942707061768	134987756.30482712
1.6540353298187256	132907599.54317415
1.6579699516296387	130195115.74528517
1.661897897720337	123502451.5045722
1.6658192873001099	97953999.93621638
1.6697341203689575	80729688.09494337
1.6736423969268799	96797851.12884647
1.677544116973877	114718752.81243894
1.6814392805099487	117032327.3677376
1.6853278875350952	112289980.11284912
1.6892099380493164	105742528.29070862
1.6930854320526123	99185270.67462094
1.696954369544983	93119081.26509815
1.7008168697357178	89257873.63130228
1.7046726942062378	88156348.91217002
1.708522081375122	88155027.93583569
1.712364912033081	86567582.738344
1.7162011861801147	83877178.81456481
1.7200311422348022	82273058.81795692
1.723854422569275	79606979.7884553
1.7276713848114014	75432022.32996964
1.731481909751892	71342107.69576812
1.7352858781814575	67601745.9037032
1.7390835285186768	64791673.642323464
1.7428747415542603	62553923.55072031
1.7466596364974976	59972499.94283132
1.7504380941390991	57049372.97344263
1.7542102336883545	52879309.77527742
1.7579760551452637	49140931.43511797
1.7617355585098267	47491169.86266664
1.7654887437820435	44921963.3814215
1.7692357301712036	40937652.06082205
1.7729763984680176	37590885.6393179
1.776710867881775	35284604.355557136
1.7804391384124756	33725773.53463213
1.7841613292694092	31326547.136358965
1.7878772020339966	29460187.222651854
1.7915871143341064	28120520.95518099
1.7952908277511597	26981063.86223359
1.7989884614944458	26263367.93361735
1.8026801347732544	23958126.707207773
1.806365728378296	22819857.80204811
1.8100452423095703	23796845.388743166
1.8137187957763672	25103142.542840198
1.817386507987976	24066464.161285397
1.8210482597351074	23179723.533014383
1.8247040510177612	25225434.34674788
1.828354001045227	25028863.16090827
1.8319982290267944	23015867.33489359
1.8356364965438843	21954096.237024095
1.8392690420150757	21731833.657682277
1.8428958654403687	21854275.23364725
1.8465168476104736	20871259.154391605
1.8501322269439697	20228313.302919358
1.8537418842315674	19597252.247849956
1.8573459386825562	17044130.713808067
1.860944390296936	15024778.99115752
1.864537239074707	15097399.687044121
1.8681244850158691	15980304.533625863
1.871706247329712	17312546.212779973
1.8752825260162354	19559765.80055797
1.8788533210754395	22937888.336693443
1.8824186325073242	26150057.803378187
1.8859784603118896	27465226.38205361
1.8895330429077148	27571498.439175192
1.8930821418762207	29058977.8330076
1.8966259956359863	31050695.23249904
1.9001644849777222	30697694.582588185
1.9036977291107178	29701833.638484515
1.9072256088256836	30631874.0164138
1.9107483625411987	30905115.562865272
1.9142658710479736	30123643.510210294
1.9177782535552979	30268546.860206995
1.9212853908538818	29133128.69964671
1.9247875213623047	27380325.128885187
1.9282845258712769	26063030.49106853
1.9317764043807983	24311650.613394473
1.9352631568908691	22448455.915937304
1.9387450218200684	20248030.67281073
1.942221760749817	20346093.14466361
1.9456936120986938	22435758.958842684
1.9491604566574097	23585912.82875394
1.952622413635254	23347203.976252392
1.956079363822937	22252558.856222667
1.959531545639038	22282228.574922517
1.962978720664978	23133670.681143753
1.966421127319336	24657301.50383197
1.9698586463928223	25932561.39094034
1.9732913970947266	25341419.42961886
1.9767193794250488	25239706.824072536
1.9801424741744995	26033068.816438917
1.9835609197616577	27323285.1861271
1.9869745969772339	28533819.21861382
1.990383505821228	28259609.71288074
1.9937876462936401	29579506.67486686
1.9971871376037598	31376695.482907847
2.000581979751587	32433739.494247403
2.003972291946411	34151320.88232884
2.007357597351074	34140759.184318766
2.0107386112213135	34615922.85512296
2.0141148567199707	36869838.02780372
2.017486572265625	37764115.96487753
2.0208535194396973	39989663.612799585
2.0242159366607666	42692681.2379709
2.027573823928833	42090146.21858609
2.0309269428253174	42636090.01155202
2.034275770187378	45654652.82176309
2.0376198291778564	47362940.53561859
2.040959596633911	47726547.09511804
2.044294595718384	48984211.016456395
2.0476250648498535	51081268.53366984
2.0509510040283203	51682785.891593106
2.054272413253784	52101958.36515622
2.057589530944824	54831181.79890744
2.0609018802642822	56047316.97177309
2.0642096996307373	55703351.764974765
2.0675129890441895	57033682.52180533
2.0708119869232178	57836582.820702516
2.074106216430664	57610366.647251144
2.0773961544036865	58006998.61190923
2.080681324005127	58790472.868370935
2.0839622020721436	59286842.68632092
2.087238311767578	59783618.45446283
2.090510129928589	60524588.28507483
2.0937774181365967	60847262.89428029
2.0970399379730225	60809562.361189984
2.1002981662750244	60612000.979968324
2.1035518646240234	60226414.75430111
2.1068007946014404	59843002.22027059
2.1100454330444336	59719548.05900328
2.1132853031158447	60144316.607383795
2.116520881652832	59860556.169791274
2.1197516918182373	59276415.497238174
2.1229779720306396	59550258.37449124
2.12619948387146	59443513.17477915
2.1294167041778564	58655962.37797237
2.132629156112671	58408271.72448605
2.1358368396759033	58146253.11869092
2.139039993286133	56800605.18041096
2.1422386169433594	55017829.651129305
2.145432472229004	53652553.74684682
2.1486217975616455	52919825.68581822
2.151806354522705	52518886.092450045
2.1549863815307617	52262491.044463545
2.1581614017486572	51628921.283804886
2.16133189201355	50542098.637426466
2.1644976139068604	49604086.39885069
2.167658567428589	48551520.86427127
2.1708147525787354	47338449.08280112
2.173966407775879	45880182.18713222
2.1771130561828613	44183171.04347281
2.1802549362182617	42848000.2251219
2.183391809463501	41241977.07284632
2.1865241527557373	39003377.39561202
2.1896514892578125	36582669.4093362
2.1927738189697266	33663776.65056541
2.1958916187286377	29300164.429136246
2.1990041732788086	23942068.48004673
2.2021119594573975	19514973.695869368
2.2052149772644043	17207914.326365612
2.208312749862671	17494284.109606978
2.2114057540893555	19773304.401318092
2.214493751525879	22544451.983747344
2.217576742172241	24314458.456434708
2.2206547260284424	24897273.013246786
2.2237277030944824	24744387.764751077
2.2267956733703613	23598411.168024883
2.2298583984375	22387867.50600536
2.2329163551330566	21696351.53324944
2.235969066619873	21037332.61167486
2.2390167713165283	20187539.0669877
2.2420592308044434	18960000.863535844
2.2450966835021973	17819958.091638878
2.248128890991211	17324210.348893978
2.2511560916900635	17132809.604697682
2.254178285598755	16997023.36553943
2.257194995880127	16942427.043304704
2.260206699371338	16812598.03172435
2.2632133960723877	16717052.423236944
2.266214609146118	16544408.202061063
2.2692108154296875	16201702.42745678
2.2722020149230957	15956009.914792335
2.2751877307891846	15767907.711897729
2.278168201446533	15334432.923774624
2.2811436653137207	14458881.3180494
2.284113883972168	13450992.803815288
2.287078857421875	12730811.176068854
2.290038824081421	11846499.48968525
2.2929933071136475	10977101.085818904
2.295942783355713	10970246.199762568
2.298887014389038	11897963.55570406
2.301826238632202	13136079.099892046
2.304760217666626	14687543.758168947
2.3076889514923096	17132119.244433515
2.310612440109253	19366989.061469723
2.3135311603546143	18996544.213218104
2.3164443969726562	14831792.296188816
2.319352865219116	10562149.70979012
2.322256088256836	9119971.430908157
2.3251543045043945	8618453.220880626
2.328047275543213	8394607.021618694
2.330935478210449	8705898.992221782
2.3338186740875244	9131372.893057765
2.3366971015930176	9548676.381999398
2.3395702838897705	9956660.179522548
2.3424389362335205	10184842.225000767
2.3453025817871094	10180351.551970292
2.348161458969116	10271088.486086495
2.351015567779541	10656651.929577135
2.353865146636963	11367212.258189606
2.3567099571228027	12132011.541708317
2.3595502376556396	12963704.493301716
2.3623859882354736	14016046.889198594
2.3652172088623047	14756383.382442102
2.368043899536133	13750201.895513631
2.370866537094116	10727319.602501377
2.3736846446990967	9178148.686424583
2.3764986991882324	9543288.803589182
2.3793084621429443	9224203.00807059
2.3821144104003906	8579494.599975076
2.384916305541992	9172221.892508792
2.387714147567749	10920006.09172948
2.3905084133148193	11925287.476909773
2.393299102783203	12076420.595821567
2.3960859775543213	12663589.044280203
2.398869514465332	13646686.213054297
2.4016497135162354	14342840.900928883
2.4044265747070312	14844163.14792724
2.407200336456299	14921096.480967972
2.409970998764038	15010304.711349785
2.4127390384674072	15618377.963238442
2.415503978729248	15515766.293775072
2.418266534805298	15068469.282135742
2.4210267066955566	15186668.339788673
2.4237842559814453	14815227.683610465
2.426539897918701	14164064.642948488
2.429293394088745	14622936.034557035
2.4320452213287354	15373562.49667801
2.4347951412200928	14843268.129690293
2.4375438690185547	14945394.130424019
2.440291166305542	15965347.515071535
2.443037271499634	15498409.04015369
2.445782423019409	14663359.350765888
2.4485268592834473	14690080.178176086
2.451270818710327	14406144.474287562
2.454014539718628	14206662.218627766
2.4567582607269287	15446731.76213453
2.4595019817352295	15822812.308115937
2.4622461795806885	15963253.481753428
2.4649908542633057	16652111.127125695
2.4677364826202393	15186765.162583044
2.4704833030700684	13505021.845006384
2.473231554031372	13006662.15301357
2.4759814739227295	13373726.83600142
2.4787333011627197	13953578.9451579
