#wavelength	surface flux
0.6450077295303345	504.7807104986458
0.6472567915916443	796.8033510743304
0.6494921445846558	1046.8526540626299
0.6517150402069092	1211.5377224153021
0.6539263725280762	1383.397080632998
0.6561272740364075	1567.28993956289
0.6583186388015747	1765.9771364397468
0.6605015397071838	1984.3990475941475
0.6626768708229065	2217.7234078236997
0.6648455858230591	2460.8442017573075
0.6670085787773132	2672.070777519691
0.6691668033599854	2736.903269120539
0.6713210344314575	2850.4863067618085
0.6734722256660461	3274.984335745263
0.6756211519241333	3715.034326273841
0.6777685880661011	3983.9849604327937
0.6799154281616211	4205.605847358791
0.6820623278617859	4402.683555204074
0.6842101216316223	4572.71363226501
0.6863595843315125	4709.771192973401
0.688511312007904	4791.374482783897
0.6906660795211792	4745.338516089133
0.6928245425224304	4612.7099839179455
0.6949873566627502	4613.435039468943
0.6971551775932312	4715.848614589145
0.6993286609649658	4694.399622684239
0.7015084028244019	4568.7888997288
0.7036949396133423	4455.926357628883
0.7058889269828796	4362.880568865949
0.7080909013748169	4260.4264386591585
0.710301399230957	4135.947574618963
0.712520956993103	3973.815195034092
0.7147500514984131	3691.410416663495
0.7169892191886902	3278.9453844763448
0.7192389369010925	2985.8885089962437
0.7214996814727783	2860.4309176214542
0.723771870136261	2690.100931802333
0.7260559797286987	2490.9422409260264
0.7283523678779602	2352.0071598749464
0.7306615710258484	2263.901413307941
0.7329838871955872	2247.786533310348
0.7353196740150452	2248.2327212324153
0.7376693487167358	2195.6994320916833
0.7400332689285278	2131.5612908640305
0.7424117922782898	2073.4928321753464
0.7448052167892456	2010.2066991974173
0.7472138404846191	1928.6949347533127
0.7496379613876343	1819.408354866374
0.7520779371261597	1678.5404331062643
0.7545340061187744	1502.5502369435544
0.7570064663887024	1292.0536293969492
0.7594954967498779	1047.5175527524925
0.7620013952255249	765.8337327283716
0.7645244002342224	464.31681541171383
0.7670646905899048	259.1865426989255
0.7696225643157959	285.449114119042
0.7721980810165405	582.899150861948
0.7747915983200073	1043.2131279861787
0.7774031162261963	1439.0214211034936
0.7800329327583313	1795.6703886631356
0.7826811671257019	2397.663971803415
0.7853479981422424	3127.5193910387416
0.7880334854125977	3757.8566776354314
0.7907378077507019	4224.248537509813
0.7934610247612	4419.110481224989
0.7962033748626709	4999.494003129764
0.7989648580551147	6260.329035408254
0.801745593547821	7479.443097103031
0.8045456409454346	8526.49182554956
0.8073651194572449	9494.30263273708
0.8102040886878967	10161.772108560193
0.8130625486373901	10740.542974441014
0.8159406185150146	12059.090426322766
0.8188382983207703	14235.620990425617
0.8217556476593018	16273.677449224479
0.8246926665306091	18539.05330579401
0.8276493549346924	21454.931291728546
0.8306257724761963	24288.488420397396
0.8336219191551208	27330.49144226854
0.8366377949714661	31011.306711459725
0.8396733403205872	35322.663793566826
0.8427285552024841	40357.58600258795
0.8458034992218018	45998.30356519949
0.8488980531692505	50452.48996805691
0.8520121574401855	54267.624518421784
0.8551458716392517	62474.57041286811
0.8582990765571594	72423.46585453858
0.8614717125892639	79516.88932889324
0.8646637797355652	86884.12168884043
0.8678751587867737	96818.17378701035
0.8711057901382446	108156.63176592918
0.8743556141853333	118564.98207322582
0.87762451171875	123724.32636713606
0.8809124231338501	116908.71469057136
0.8842192888259888	103291.48764570257
0.8875449895858765	94572.14486927509
0.8908893465995789	87444.17792862318
0.894252359867096	81407.65686187943
0.8976338505744934	97792.24192277524
0.9010337591171265	144967.17567631684
0.9044519662857056	198980.5075690087
0.9078882932662964	228589.31205652605
0.9113426208496094	232731.01678956792
0.914814829826355	230774.83322753725
0.9183048605918884	241844.0957469415
0.9218124747276306	253450.46159173764
0.925337553024292	203978.50051347408
0.9288799166679382	106605.56335005586
0.9324395060539246	53919.01580814818
0.9360161423683167	67087.37083874832
0.9396095871925354	102422.33340935259
0.943219780921936	117169.36192219879
0.9468464851379395	108591.3527491027
0.9504896402359009	101930.51771923075
0.9541489481925964	97845.3898155246
0.9578243494033813	94237.99920026118
0.9615156054496765	104427.8374565783
0.9652225375175476	144492.65089330758
0.9689450263977051	200764.5986867098
0.9726828336715698	234888.15122926282
0.9764357805252075	253905.0270066736
0.9802037477493286	277930.2852986771
0.983986496925354	300949.04647657275
0.9877838492393494	334311.0008219586
0.9915955662727356	396678.09273050004
0.9954215884208679	491957.8216244178
0.9992615580558777	620572.1787480813
1.0031154155731201	769789.8812959313
1.0069829225540161	893084.4820731978
1.0108637809753418	961286.7784888315
1.0147579908370972	986140.5406782447
1.018665075302124	990145.1604833937
1.022585153579712	1029009.926825727
1.0265177488327026	1127251.197813813
1.0304628610610962	1201180.8415845523
1.0344202518463135	1233184.3239251445
1.0383895635604858	1325323.3917573453
1.0423706769943237	1465895.8173194146
1.0463634729385376	1576641.9340127497
1.0503677129745483	1673196.5483704607
1.0543830394744873	1782062.6899833528
1.058409333229065	1868362.248678374
1.0624464750289917	1912585.816280757
1.0664942264556885	1916931.935234765
1.0705522298812866	1891548.481320955
1.0746204853057861	1882282.5213990826
1.0786986351013184	1879624.0206793647
1.0827864408493042	1826328.2927810336
1.086883783340454	1638926.1412512308
1.0909905433654785	1280930.6859432599
1.0951062440872192	879893.9647348352
1.0992310047149658	569410.7442123371
1.10336434841156	353075.90885973215
1.1075061559677124	208070.23961035177
1.1116561889648438	118291.60519929281
1.115814208984375	71970.99799274016
1.1199802160263062	61238.3908857026
1.124153733253479	67501.85239907805
1.1283347606658936	75081.51746095406
1.1325229406356812	71281.31737004023
1.1367181539535522	89567.95551872194
1.1409201622009277	127345.78991134178
1.145128846168518	127086.87725727179
1.1493438482284546	99326.29460008403
1.1535650491714478	73777.65138531527
1.1577922105789185	61320.253602035446
1.1620250940322876	62051.16653435196
1.1662636995315552	77220.23426075967
1.170507550239563	125226.57540611728
1.174756646156311	201717.88465376053
1.1790107488632202	298597.2226582729
1.1832695007324219	405965.30365404335
1.1875330209732056	503177.03144644713
1.191800832748413	612459.9255791438
1.1960728168487549	748331.9319897284
1.2003488540649414	884162.626231713
1.2046287059783936	1022794.1402907347
1.2089121341705322	1139364.5557022071
1.2131990194320679	1230561.3213693742
1.2174891233444214	1338591.981799191
1.2217823266983032	1475105.5313673734
1.2260783910751343	1670108.9355989408
1.230377197265625	1910870.9017008767
1.2346785068511963	2147099.6361868787
1.238982081413269	2383497.41606844
1.2432878017425537	2630478.9642898776
1.2475954294204712	2844262.8909667353
1.2519049644470215	2983387.5126200896
1.256216049194336	3173839.412703683
1.2605286836624146	3419315.2782512037
1.2648425102233887	3518857.62243326
1.2691574096679688	3411026.312442767
1.2734732627868652	3135892.261467925
1.2777899503707886	2784168.530148978
1.2821072340011597	2392487.2780331457
1.2864248752593994	1991723.7477354913
1.2907428741455078	1712133.2991639117
1.2950609922409058	1594326.1040713857
1.2993791103363037	1513093.1700339157
1.303696870803833	1382987.2483947643
1.3080145120620728	1240770.0165000465
1.3123314380645752	1060656.5923134906
1.3166478872299194	923794.1662001286
1.3209635019302368	894118.8965981781
1.3252781629562378	783405.5512730002
1.3295916318893433	502118.09689087095
1.3339040279388428	218871.73309109156
1.3382149934768677	77082.74032036857
1.3425244092941284	28112.59455080832
1.3468321561813354	10038.636571831883
1.3511382341384888	4492.014964002693
1.3554422855377197	2000.9274854301857
1.3597444295883179	1242.3081692240387
1.3640443086624146	1760.9860565229342
1.3683418035507202	2473.8094615158966
1.3726370334625244	4230.859197460207
1.3769296407699585	6715.25115547771
1.381219506263733	6090.968717962617
1.3855066299438477	3982.3539972830254
1.3897908926010132	3875.474366782271
1.3940720558166504	4306.7344842392085
1.3983501195907593	4559.954740046585
1.4026249647140503	5086.816199510689
1.4068963527679443	5487.476540766948
1.4111642837524414	6119.86969038954
1.4154287576675415	7044.28799370167
1.419689416885376	7372.189033883788
1.4239463806152344	9738.095265129454
1.4281994104385376	17335.19851911251
1.4324485063552856	23102.05873627396
1.436693549156189	23749.8637557035
1.440934419631958	28033.6283176228
1.4451709985733032	40314.611242483676
1.449403166770935	61232.264511851026
1.453631043434143	82574.2718444835
1.4578542709350586	95339.68167106164
1.4620729684829712	90047.79346725723
1.4662868976593018	68527.50807113825
1.4704961776733398	45371.39058156405
1.4747005701065063	32476.258204472968
1.4788999557495117	34233.24529888089
1.4830944538116455	39877.74076833691
1.4872838258743286	41858.20832362147
1.491468071937561	41918.39701721896
1.4956470727920532	49021.79388373652
1.4998208284378052	66336.77562254205
1.5039892196655273	76137.83780383147
1.5081522464752197	65910.71648302242
1.5123097896575928	47787.532012029435
1.5164618492126465	49936.44641105727
1.5206083059310913	83258.48524011411
1.5247491598129272	121835.47039066242
1.5288842916488647	154884.24795018355
1.5330137014389038	187390.31264606325
1.5371372699737549	214524.66327447243
1.541254997253418	245969.8884634634
1.545366883277893	286129.0105422099
1.5494728088378906	334964.35634259816
1.5535727739334106	417080.4618390082
1.5576666593551636	548400.2926653371
1.561754584312439	745221.2661011415
1.5658363103866577	988876.6667405724
1.5699119567871094	1168043.0037582503
1.5739814043045044	1268854.1396761679
1.5780447721481323	1391101.1586935674
1.582101821899414	1525049.1643411333
1.5861525535583496	1598543.2841942476
1.5901970863342285	1587738.7639274597
1.5942351818084717	1520672.4671521306
1.5982669591903687	1407330.4420000385
1.6022924184799194	1224401.6211745956
1.606311559677124	1010645.7208902149
1.6103241443634033	812504.3732017825
1.6143304109573364	602665.9891183539
1.6183301210403442	411935.25504628726
1.6223233938217163	313356.70270099345
1.6263102293014526	282891.3799649115
1.6302905082702637	284135.49713424826
1.634264349937439	328648.6524632705
1.638231635093689	404194.8845170739
1.6421923637390137	429976.5447443934
1.646146535873413	366770.89254352154
1.6500942707061768	343461.5477200644
1.6540353298187256	366108.0249689901
1.6579699516296387	381588.7358045851
1.661897897720337	393847.25496933574
1.6658192873001099	254952.17084895185
1.6697341203689575	97669.99247004787
1.6736423969268799	111781.73083777004
1.677544116973877	152120.34104554568
1.6814392805099487	140200.05055972797
1.6853278875350952	122445.60883468235
1.6892099380493164	103293.23398272065
1.6930854320526123	75181.84527939561
1.696954369544983	53160.38614022671
1.7008168697357178	40352.42103289566
1.7046726942062378	41641.74102974733
1.708522081375122	66636.10485713526
1.712364912033081	104053.48562505454
1.7162011861801147	150919.58959871985
1.7200311422348022	184490.79323221737
1.723854422569275	168086.9187825041
1.7276713848114014	146869.52287221202
1.731481909751892	149946.7271798014
1.7352858781814575	166368.4436358336
1.7390835285186768	204865.88299776174
1.7428747415542603	249173.05863088465
1.7466596364974976	275812.578421532
1.7504380941390991	273548.4171222315
1.7542102336883545	229257.1817834044
1.7579760551452637	176280.2398743185
1.7617355585098267	151354.3355792391
1.7654887437820435	139912.74095851017
1.7692357301712036	124944.27408977554
1.7729763984680176	106469.20936118012
1.776710867881775	105300.014358856
1.7804391384124756	116170.50635267132
1.7841613292694092	103751.31674361195
1.7878772020339966	80810.99439276363
1.7915871143341064	60886.53071467706
1.7952908277511597	51982.04701683256
1.7989884614944458	57753.49436434029
1.8026801347732544	45551.38877054984
1.806365728378296	32325.947746990285
1.8100452423095703	33169.294561812414
1.8137187957763672	31738.43038390462
1.817386507987976	27627.630074696368
1.8210482597351074	34804.15862905584
1.8247040510177612	45800.98682857468
1.828354001045227	33164.37547085053
1.8319982290267944	16235.875970829891
1.8356364965438843	11602.502312162052
1.8392690420150757	12836.055253668552
1.8428958654403687	24575.355691453016
1.8465168476104736	31957.821822724767
1.8501322269439697	30608.520644779477
1.8537418842315674	29309.574848551514
1.8573459386825562	23777.0258999184
1.860944390296936	17429.135432681123
1.864537239074707	12868.832447821922
1.8681244850158691	8200.996927840675
1.871706247329712	6992.915813617947
1.8752825260162354	17145.12888283932
1.8788533210754395	40773.616063713635
1.8824186325073242	56773.74522983467
1.8859784603118896	53035.82281612083
1.8895330429077148	46318.92501417309
1.8930821418762207	53921.81559024126
1.8966259956359863	59478.914228715345
1.9001644849777222	39924.774971237486
1.9036977291107178	22276.943503896506
1.9072256088256836	22283.696786926223
1.9107483625411987	20541.04202980173
1.9142658710479736	15570.78845454679
1.9177782535552979	15416.232426296498
1.9212853908538818	15644.369755624388
1.9247875213623047	13099.54848169646
1.9282845258712769	10168.89388255042
1.9317764043807983	8392.063593759845
1.9352631568908691	7617.571779912561
1.9387450218200684	6932.121226837985
1.942221760749817	8242.129807997668
1.9456936120986938	10630.368733360987
1.9491604566574097	10970.37869219593
1.952622413635254	10478.828407388475
1.956079363822937	13348.07522149252
1.959531545639038	18820.289517462235
1.962978720664978	21545.084304795622
1.966421127319336	22815.89731047932
1.9698586463928223	22677.27249435116
1.9732913970947266	23556.032298320777
1.9767193794250488	30227.20979605072
1.9801424741744995	30993.44064813374
1.9835609197616577	29012.544736693897
1.9869745969772339	35614.92587831084
1.990383505821228	43482.57567994733
1.9937876462936401	57148.62637611687
1.9971871376037598	76713.97484962358
2.000581979751587	84954.57491463251
2.003972291946411	80861.8904642951
2.007357597351074	82332.45836613687
2.0107386112213135	87268.03106755437
2.0141148567199707	80671.43771317518
2.017486572265625	66133.39445645652
2.0208535194396973	63991.94901648482
2.0242159366607666	79750.45253403131
2.027573823928833	93135.0223289748
2.0309269428253174	105251.69869889063
2.034275770187378	119975.40670659396
2.0376198291778564	125816.08919415186
2.040959596633911	131527.53285121452
2.044294595718384	154389.26420276202
2.0476250648498535	180599.15593224714
2.0509510040283203	196099.40574593964
2.054272413253784	213444.53460410374
2.057589530944824	238568.17732493524
2.0609018802642822	262902.75104164664
2.0642096996307373	284106.410562096
2.0675129890441895	305036.1970305945
2.0708119869232178	325215.4427008747
2.074106216430664	345668.0086963231
2.0773961544036865	361930.04729197355
2.080681324005127	374609.4789544099
2.0839622020721436	390900.4397236128
2.087238311767578	405820.69235316693
2.090510129928589	418847.49585982575
2.0937774181365967	424190.4851316549
2.0970399379730225	419887.6568483548
2.1002981662750244	413622.89735892176
2.1035518646240234	411961.99208900763
2.1068007946014404	409690.0023321471
2.1100454330444336	399890.4112373903
2.1132853031158447	393995.89040203247
2.116520881652832	382363.9036952585
2.1197516918182373	365626.03305338597
2.1229779720306396	354645.23571569816
2.12619948387146	344009.8111368794
2.1294167041778564	334077.22715641186
2.132629156112671	326909.85227341845
2.1358368396759033	318550.3367559639
2.139039993286133	301037.6942668393
2.1422386169433594	265611.46934871376
2.145432472229004	230018.57906963534
2.1486217975616455	213911.78906375496
2.151806354522705	202639.46538454588
2.1549863815307617	186487.27546404
2.1581614017486572	169908.49860288514
2.16133189201355	148648.29728369068
2.1644976139068604	129640.76667181902
2.167658567428589	116649.1293380755
2.1708147525787354	108045.85824225639
2.173966407775879	105515.53628085711
2.1771130561828613	98156.50511442387
2.1802549362182617	87582.51154964579
2.183391809463501	79566.87542782299
2.1865241527557373	73634.67620922615
2.1896514892578125	61698.38379623503
2.1927738189697266	40883.37407297981
2.1958916187286377	21941.261610858557
2.1990041732788086	9862.958801346953
2.2021119594573975	4679.777235682044
2.2052149772644043	6166.849992846401
2.208312749862671	11376.014275939357
2.2114057540893555	15516.060118412954
2.214493751525879	16758.673498021653
2.217576742172241	17071.382839395596
2.2206547260284424	15825.303361838623
2.2237277030944824	13607.06034988041
2.2267956733703613	11441.902822266557
2.2298583984375	8883.56220779417
2.2329163551330566	8137.224077380907
2.235969066619873	8237.946066117715
2.2390167713165283	6682.758700505312
2.2420592308044434	5368.560844384432
2.2450966835021973	4726.02872049978
2.248128890991211	3681.605721253086
2.2511560916900635	3028.2717153418353
2.254178285598755	2708.8583776414957
2.257194995880127	2450.3561848373147
2.260206699371338	2520.404059798924
2.2632133960723877	2683.5183322810885
2.266214609146118	2955.8849104381547
2.2692108154296875	3432.8528696790177
2.2722020149230957	4015.2365706475916
2.2751877307891846	4052.6125429628637
2.278168201446533	3902.592746941075
2.2811436653137207	3772.279644885434
2.284113883972168	2995.121822617219
2.287078857421875	2467.8870027114735
2.290038824081421	2307.037355978504
2.2929933071136475	2053.600762882989
2.295942783355713	2039.016436055114
2.298887014389038	2351.201697088392
2.301826238632202	2830.9909428412793
2.304760217666626	4042.595489820841
2.3076889514923096	8208.842749023797
2.310612440109253	15306.102583181457
2.3135311603546143	16914.27454734995
2.3164443969726562	9134.94320042165
2.319352865219116	2332.1034161132216
2.322256088256836	1501.1188069112861
2.3251543045043945	2138.2157427848197
2.328047275543213	2271.142464630696
2.330935478210449	2344.8699988199455
2.3338186740875244	2617.6046211792923
2.3366971015930176	2738.0253832788826
2.3395702838897705	2728.739237345653
2.3424389362335205	2862.816009901004
2.3453025817871094	2670.6949181124965
2.348161458969116	2495.545399787005
2.351015567779541	2977.2205221140866
2.353865146636963	3663.509230049276
2.3567099571228027	4727.691896256369
2.3595502376556396	6898.310730489921
2.3623859882354736	8924.768162955503
2.3652172088623047	8738.20505403901
2.368043899536133	6259.29104724597
2.370866537094116	3210.8467030667207
2.3736846446990967	2145.5479613227926
2.3764986991882324	3488.719359305677
2.3793084621429443	4849.6486034116315
2.3821144104003906	4844.980705828677
2.384916305541992	5380.925495594348
2.387714147567749	7347.414975822477
2.3905084133148193	8310.851621321548
2.393299102783203	7745.195551825244
2.3960859775543213	7688.692793200908
2.398869514465332	9596.657525682082
2.4016497135162354	12380.793128086927
2.4044265747070312	14064.709624993846
2.407200336456299	14813.671594515738
2.409970998764038	19381.38695922601
2.4127390384674072	25442.119883142088
2.415503978729248	22999.910620700255
2.418266534805298	17078.32943002119
2.4210267066955566	15648.778344125758
2.4237842559814453	14020.593733911066
2.426539897918701	13540.757403795405
2.429293394088745	19382.474256935846
2.4320452213287354	24422.55733412867
2.4347951412200928	24132.305270852547
2.4375438690185547	29423.8141296023
2.440291166305542	39184.31520946724
2.443037271499634	40542.28317518886
2.445782423019409	35894.44068796877
2.4485268592834473	33769.680262033085
2.451270818710327	35161.10417703679
2.454014539718628	40022.32187674943
2.4567582607269287	47678.11187608779
2.4595019817352295	53889.062674554036
2.4622461795806885	61352.71269553412
2.4649908542633057	71007.73077826876
2.4677364826202393	68603.3535894519
2.4704833030700684	58333.920622289406
2.473231554031372	54302.032725926525
2.4759814739227295	57556.25242533215
2.4787333011627197	59699.62736664145
