#wavelength	surface flux
0.6450077295303345	2275.7039654199352
0.6472567915916443	3662.820465608272
0.6494921445846558	4970.013967097449
0.6517150402069092	5971.067098412095
0.6539263725280762	7074.005558193797
0.6561272740364075	8306.076799348362
0.6583186388015747	9677.094989860634
0.6605015397071838	11197.438458295093
0.6626768708229065	12851.658057321692
0.6648455858230591	14602.212476921473
0.6670085787773132	15991.647513786731
0.6691668033599854	15919.204451230828
0.6713210344314575	16447.32698093888
0.6734722256660461	20285.566942228535
0.6756211519241333	24499.662544889383
0.6777685880661011	27080.34612188508
0.6799154281616211	29197.850358381696
0.6820623278617859	31131.428568373143
0.6842101216316223	32855.824163215155
0.6863595843315125	34308.95197460108
0.688511312007904	35353.920120015275
0.6906660795211792	35663.8333932521
0.6928245425224304	35432.52255065164
0.6949873566627502	35562.61307429547
0.6971551775932312	35851.67993865917
0.6993286609649658	35372.43784243816
0.7015084028244019	34227.6639029757
0.7036949396133423	32897.28685544019
0.7058889269828796	31457.141207969362
0.7080909013748169	29831.076667247617
0.710301399230957	28005.705278885693
0.712520956993103	25984.60147311161
0.7147500514984131	23545.34802181128
0.7169892191886902	20759.55367875569
0.7192389369010925	18506.460321928524
0.7214996814727783	16847.59700666231
0.723771870136261	15088.618770414605
0.7260559797286987	13323.344240779823
0.7283523678779602	11836.16931030639
0.7306615710258484	10575.059390405992
0.7329838871955872	9536.227599050813
0.7353196740150452	8634.174538623049
0.7376693487167358	7735.415625589626
0.7400332689285278	6905.87818928583
0.7424117922782898	6181.004865640657
0.7448052167892456	5548.111424290266
0.7472138404846191	4980.96910966472
0.7496379613876343	4454.446224303195
0.7520779371261597	3954.675225665098
0.7545340061187744	3459.9559423894902
0.7570064663887024	2943.0854878823884
0.7594954967498779	2368.9520331447925
0.7620013952255249	1697.749084281729
0.7645244002342224	986.7993260516382
0.7670646905899048	524.8719554015033
0.7696225643157959	580.380216854223
0.7721980810165405	1242.7017220766745
0.7747915983200073	2317.0162156362967
0.7774031162261963	3311.925910218473
0.7800329327583313	4240.539957978966
0.7826811671257019	5657.297320725227
0.7853479981422424	7406.82972995579
0.7880334854125977	9148.171257840579
0.7907378077507019	10682.994374327829
0.7934610247612	11698.195946723996
0.7962033748626709	14089.339623534126
0.7989648580551147	18794.467630585557
0.801745593547821	23859.229235541996
0.8045456409454346	28954.233000419208
0.8073651194572449	34561.267356422
0.8102040886878967	40385.89456585941
0.8130625486373901	46992.930460711745
0.8159406185150146	56211.53993013484
0.8188382983207703	68244.13392451187
0.8217556476593018	81115.21785871711
0.8246926665306091	96280.83803896776
0.8276493549346924	114686.95484495694
0.8306257724761963	134388.33841025867
0.8336219191551208	156347.15570387171
0.8366377949714661	181822.23674460445
0.8396733403205872	211261.94866212612
0.8427285552024841	245467.49836083164
0.8458034992218018	282370.43732505274
0.8488980531692505	305462.66623279906
0.8520121574401855	323932.0924685007
0.8551458716392517	388763.3824334853
0.8582990765571594	474191.0044263427
0.8614717125892639	532309.7946731006
0.8646637797355652	588252.978931698
0.8678751587867737	661330.7520832684
0.8711057901382446	743334.4887943462
0.8743556141853333	824904.4501093198
0.87762451171875	887873.4340940819
0.8809124231338501	894420.5188195579
0.8842192888259888	862316.1158787485
0.8875449895858765	841529.0940478595
0.8908893465995789	793651.3039449942
0.894252359867096	748480.1234348898
0.8976338505744934	904477.7716448649
0.9010337591171265	1257168.1417458032
0.9044519662857056	1607524.3279005704
0.9078882932662964	1823799.9037731139
0.9113426208496094	1904234.026398019
0.914814829826355	1939379.3466365202
0.9183048605918884	2037866.0234576527
0.9218124747276306	2118712.0583969518
0.925337553024292	1775483.4410480154
0.9288799166679382	1097899.9132309882
0.9324395060539246	760446.8285937927
0.9360161423683167	917478.0454364208
0.9396095871925354	1235152.1000983345
0.943219780921936	1401530.4784467528
0.9468464851379395	1384158.8924139044
0.9504896402359009	1361639.3396026588
0.9541489481925964	1338468.5251873496
0.9578243494033813	1292944.6630529054
0.9615156054496765	1354772.2200316994
0.9652225375175476	1631515.3932564757
0.9689450263977051	2002655.9746579414
0.9726828336715698	2255061.0566391815
0.9764357805252075	2445255.8011127566
0.9802037477493286	2656729.0056306915
0.983986496925354	2845617.3730411935
0.9877838492393494	3110178.70122988
0.9915955662727356	3519675.349359188
0.9954215884208679	3976513.8475573394
0.9992615580558777	4438409.754097912
1.0031154155731201	5035972.224938898
1.0069829225540161	5725428.199396072
1.0108637809753418	6370068.485146497
1.0147579908370972	6998915.655480881
1.018665075302124	7605272.2342939
1.022585153579712	8191006.2141140625
1.0265177488327026	8804615.490774386
1.0304628610610962	9425901.241213152
1.0344202518463135	10064151.787879491
1.0383895635604858	10760815.802744225
1.0423706769943237	11418740.363437215
1.0463634729385376	11947085.99799037
1.0503677129745483	12425352.012761507
1.0543830394744873	12931075.79136706
1.058409333229065	13364439.040576216
1.0624464750289917	13704178.344686642
1.0664942264556885	13939007.820454484
1.0705522298812866	14057537.965972705
1.0746204853057861	14240770.341857644
1.0786986351013184	14403436.181373453
1.0827864408493042	14157898.48395462
1.086883783340454	12785237.593567556
1.0909905433654785	10002915.432127686
1.0951062440872192	6945357.723168345
1.0992310047149658	4717861.937914723
1.10336434841156	3221481.8943219306
1.1075061559677124	2170569.343314971
1.1116561889648438	1474319.3373312196
1.115814208984375	1117988.1329700937
1.1199802160263062	1072037.0888759925
1.124153733253479	1198190.8273582787
1.1283347606658936	1279993.7307818206
1.1325229406356812	1126970.2896306259
1.1367181539535522	1187428.1040886878
1.1409201622009277	1549702.243778239
1.145128846168518	1673081.8815302236
1.1493438482284546	1556337.7855496998
1.1535650491714478	1350809.562239138
1.1577922105789185	1206030.590838522
1.1620250940322876	1184195.3883935665
1.1662636995315552	1269405.8889815165
1.170507550239563	1611258.4815776767
1.174756646156311	2122521.7285299753
1.1790107488632202	2791625.6938439896
1.1832695007324219	3675704.545510156
1.1875330209732056	4569218.195168853
1.191800832748413	5618597.438713244
1.1960728168487549	6928497.71146954
1.2003488540649414	8207404.803389191
1.2046287059783936	9473958.234785026
1.2089121341705322	10614657.697107263
1.2131990194320679	11593645.21924979
1.2174891233444214	12654335.145920467
1.2217823266983032	13732570.469079845
1.2260783910751343	14898472.905458331
1.230377197265625	16145602.933562417
1.2346785068511963	17219671.706120923
1.238982081413269	17831575.678811513
1.2432878017425537	18121621.991746824
1.2475954294204712	18363428.360667482
1.2519049644470215	18395651.776434492
1.256216049194336	19679367.423382428
1.2605286836624146	21616910.980746444
1.2648425102233887	21961238.134974983
1.2691574096679688	21246250.87638768
1.2734732627868652	20216973.161237378
1.2777899503707886	19085675.69394294
1.2821072340011597	17610898.39518544
1.2864248752593994	15711948.184178045
1.2907428741455078	14228195.968115682
1.2950609922409058	13581557.008522425
1.2993791103363037	13075320.2163278
1.303696870803833	12352110.569397828
1.3080145120620728	11560072.56539219
1.3123314380645752	10382758.300103106
1.3166478872299194	9312221.1454686
1.3209635019302368	8629680.665456936
1.3252781629562378	7167703.137195412
1.3295916318893433	4556951.182064538
1.3339040279388428	2080889.8539737503
1.3382149934768677	809452.7389573413
1.3425244092941284	387578.58895923785
1.3468321561813354	223805.35445283033
1.3511382341384888	141871.39989502667
1.3554422855377197	93543.61177185058
1.3597444295883179	81787.62385592413
1.3640443086624146	107125.05675266124
1.3683418035507202	133692.1024589571
1.3726370334625244	166098.0983637561
1.3769296407699585	216628.73236558362
1.381219506263733	214615.74213729604
1.3855066299438477	178535.73026108346
1.3897908926010132	173205.69688725926
1.3940720558166504	172918.92824293702
1.3983501195907593	170384.8781974204
1.4026249647140503	179001.63709340544
1.4068963527679443	182113.7440914283
1.4111642837524414	183995.34793457296
1.4154287576675415	196123.95393272728
1.419689416885376	199929.22803654074
1.4239463806152344	218605.55199736438
1.4281994104385376	288352.56709404325
1.4324485063552856	354990.02065221884
1.436693549156189	384205.94400221313
1.440934419631958	425356.3283232492
1.4451709985733032	515290.3002138079
1.449403166770935	691048.5586226579
1.453631043434143	886464.1974438392
1.4578542709350586	1010558.530347481
1.4620729684829712	1037316.0576093472
1.4662868976593018	977870.8937080912
1.4704961776733398	883858.3761586836
1.4747005701065063	867481.6101934306
1.4788999557495117	956489.2499946585
1.4830944538116455	1038453.6105023344
1.4872838258743286	1098253.9060742678
1.491468071937561	1177246.0769275972
1.4956470727920532	1323912.4663143835
1.4998208284378052	1543200.9697300848
1.5039892196655273	1699583.879026726
1.5081522464752197	1751168.6732179176
1.5123097896575928	1787388.7926266794
1.5164618492126465	1943352.709526109
1.5206083059310913	2339373.0820878535
1.5247491598129272	2811937.110939569
1.5288842916488647	3228882.4595137397
1.5330137014389038	3643370.5180413616
1.5371372699737549	4003994.6168988664
1.541254997253418	4338057.515651034
1.545366883277893	4796779.676601888
1.5494728088378906	5255893.372439134
1.5535727739334106	5619453.051749281
1.5576666593551636	6192283.297847302
1.561754584312439	7221463.883569444
1.5658363103866577	8368787.300194974
1.5699119567871094	8995407.470868215
1.5739814043045044	9220591.120795991
1.5780447721481323	9577157.27859004
1.582101821899414	9943269.82726972
1.5861525535583496	9971361.529321972
1.5901970863342285	9617033.104617825
1.5942351818084717	9093648.047506537
1.5982669591903687	8466397.82819696
1.6022924184799194	7570268.013798597
1.606311559677124	6573278.3355860915
1.6103241443634033	5692911.510451176
1.6143304109573364	4744591.987009512
1.6183301210403442	3868814.727531094
1.6223233938217163	3484267.5183780156
1.6263102293014526	3476661.2234285553
1.6302905082702637	3619864.2484715884
1.634264349937439	4057981.0370523226
1.638231635093689	4764096.287611802
1.6421923637390137	5025626.123520635
1.646146535873413	4526784.878853138
1.6500942707061768	4345831.037616617
1.6540353298187256	4342130.442925853
1.6579699516296387	4114996.3216365576
1.661897897720337	4022287.588096798
1.6658192873001099	2713183.677145152
1.6697341203689575	1262559.9583480966
1.6736423969268799	1604563.8867529288
1.677544116973877	2288003.7066944474
1.6814392805099487	2270172.3286191467
1.6853278875350952	2029752.4659315448
1.6892099380493164	1767974.8711701992
1.6930854320526123	1440263.1874732852
1.696954369544983	1157859.2194794912
1.7008168697357178	991268.2612159563
1.7046726942062378	1026688.5581865993
1.708522081375122	1323080.1670523356
1.712364912033081	1657087.9503830757
1.7162011861801147	1954600.6188322823
1.7200311422348022	2171321.750660387
1.723854422569275	2068309.4174262627
1.7276713848114014	1897606.1279420652
1.731481909751892	1844184.710125522
1.7352858781814575	1862430.2032370882
1.7390835285186768	2023938.1247931756
1.7428747415542603	2221126.718941945
1.7466596364974976	2326532.599528044
1.7504380941390991	2281455.1524171056
1.7542102336883545	2013452.1933496576
1.7579760551452637	1720356.7788603362
1.7617355585098267	1586545.108836781
1.7654887437820435	1487999.8315082614
1.7692357301712036	1341859.1579652207
1.7729763984680176	1196786.0089174858
1.776710867881775	1164031.7465071639
1.7804391384124756	1198528.157052141
1.7841613292694092	1095027.0691822388
1.7878772020339966	943177.089617874
1.7915871143341064	790151.9755648143
1.7952908277511597	712005.8314600777
1.7989884614944458	748406.7558874552
1.8026801347732544	647968.511399641
1.806365728378296	562904.7715190925
1.8100452423095703	604799.811597245
1.8137187957763672	636114.4234449678
1.817386507987976	587636.7326794119
1.8210482597351074	619886.6098953274
1.8247040510177612	744538.5803792613
1.828354001045227	642723.370955186
1.8319982290267944	464071.2902398207
1.8356364965438843	389780.10990488774
1.8392690420150757	393650.35834770335
1.8428958654403687	514718.7213148904
1.8465168476104736	566403.5725642332
1.8501322269439697	541127.3116138679
1.8537418842315674	530838.043710027
1.8573459386825562	449243.43183910515
1.860944390296936	352439.7766281634
1.864537239074707	295649.2254049923
1.8681244850158691	252190.49876755849
1.871706247329712	271819.814099165
1.8752825260162354	433769.0864543691
1.8788533210754395	719912.9983409399
1.8824186325073242	916501.2418569457
1.8859784603118896	918681.4687063589
1.8895330429077148	890749.4485389586
1.8930821418762207	1012169.884130076
1.8966259956359863	1092424.1251240952
1.9001644849777222	884076.9372821443
1.9036977291107178	706028.9344499358
1.9072256088256836	741272.9216921247
1.9107483625411987	709493.7901335245
1.9142658710479736	617990.9643781516
1.9177782535552979	638200.1238757008
1.9212853908538818	624022.3798379332
1.9247875213623047	530878.8254606519
1.9282845258712769	441808.81746956136
1.9317764043807983	379606.1997487895
1.9352631568908691	344345.4947165123
1.9387450218200684	313530.57386357256
1.942221760749817	352744.7894329582
1.9456936120986938	416164.16133615025
1.9491604566574097	429573.03167799464
1.952622413635254	422091.4160534019
1.956079363822937	432670.9647882074
1.959531545639038	488689.92234645115
1.962978720664978	544337.9817378446
1.966421127319336	602791.5186629852
1.9698586463928223	633692.9624666981
1.9732913970947266	642728.7495767203
1.9767193794250488	727853.6983661744
1.9801424741744995	788510.2934631754
1.9835609197616577	840548.927166145
1.9869745969772339	947128.0963809952
1.990383505821228	1033407.8363311426
1.9937876462936401	1212565.2386899502
1.9971871376037598	1414468.2167341057
2.000581979751587	1522527.523514764
2.003972291946411	1563380.3679622854
2.007357597351074	1570390.8415881917
2.0107386112213135	1658556.9819952722
2.0141148567199707	1698249.1562618061
2.017486572265625	1609205.739533046
2.0208535194396973	1737607.8041575772
2.0242159366607666	2036004.3725434348
2.027573823928833	2136756.259849721
2.0309269428253174	2240061.167899048
2.034275770187378	2478890.582274842
2.0376198291778564	2605295.0326945926
2.040959596633911	2636754.5195849463
2.044294595718384	2873313.7688160446
2.0476250648498535	3213629.2100986973
2.0509510040283203	3308954.019176277
2.054272413253784	3375973.545066839
2.057589530944824	3655600.3435491766
2.0609018802642822	3848241.709916293
2.0642096996307373	3930871.749589
2.0675129890441895	4073571.6328826076
2.0708119869232178	4194236.2123923963
2.074106216430664	4276760.36300625
2.0773961544036865	4331646.60370426
2.080681324005127	4401029.918043318
2.0839622020721436	4486219.777505841
2.087238311767578	4550943.344576464
2.090510129928589	4615066.642509166
2.0937774181365967	4615913.931196493
2.0970399379730225	4551446.398215262
2.1002981662750244	4445853.151422613
2.1035518646240234	4346525.613776678
2.1068007946014404	4262730.825638919
2.1100454330444336	4162413.5181586132
2.1132853031158447	4114079.005082494
2.116520881652832	4004715.9496142752
2.1197516918182373	3857727.4846448535
2.1229779720306396	3793434.896747145
2.12619948387146	3724510.214603188
2.1294167041778564	3631959.2357584233
2.132629156112671	3571784.3252844242
2.1358368396759033	3492270.9115829617
2.139039993286133	3298429.991556199
2.1422386169433594	2953680.1917918622
2.145432472229004	2624466.466204862
2.1486217975616455	2510895.92849272
2.151806354522705	2474942.526818
2.1549863815307617	2377102.852901879
2.1581614017486572	2229908.856128005
2.16133189201355	2036730.804356581
2.1644976139068604	1874798.2136708347
2.167658567428589	1747090.6693017362
2.1708147525787354	1664257.5153132055
2.173966407775879	1616692.4143693775
2.1771130561828613	1525790.022253549
2.1802549362182617	1427940.4528359491
2.183391809463501	1312243.9577916246
2.1865241527557373	1179429.8523253296
2.1896514892578125	1005119.4793954917
2.1927738189697266	750555.13274381
2.1958916187286377	485736.0857501511
2.1990041732788086	272953.7456278576
2.2021119594573975	163119.24199903954
2.2052149772644043	164336.68050731067
2.208312749862671	226121.88922325958
2.2114057540893555	300573.77618046984
2.214493751525879	360290.3222409888
2.217576742172241	398193.0457635216
2.2206547260284424	399082.24205773626
2.2237277030944824	366870.247349904
2.2267956733703613	321409.0363088796
2.2298583984375	275657.45631057775
2.2329163551330566	253922.60955432753
2.235969066619873	245112.7907565699
2.2390167713165283	214120.51273786282
2.2420592308044434	182938.26756069614
2.2450966835021973	163631.59637652684
2.248128890991211	142729.58800065191
2.2511560916900635	129461.52715850144
2.254178285598755	122820.80159441147
2.257194995880127	120573.8220401844
2.260206699371338	123798.50982657133
2.2632133960723877	128978.10404058332
2.266214609146118	135248.3239613665
2.2692108154296875	139136.60486538403
2.2722020149230957	140852.1241033092
2.2751877307891846	137106.59153707742
2.278168201446533	134867.8224200256
2.2811436653137207	129637.18945481931
2.284113883972168	109322.05668466583
2.287078857421875	94410.98377377281
2.290038824081421	87356.19735209898
2.2929933071136475	80450.5788476535
2.295942783355713	82226.69592722332
2.298887014389038	95553.48803627433
2.301826238632202	112333.06728685774
2.304760217666626	141875.0660955234
2.3076889514923096	216226.8227982805
2.310612440109253	324607.2681825219
2.3135311603546143	350415.36279121734
2.3164443969726562	218531.62917989574
2.319352865219116	84692.90298698933
2.322256088256836	59693.218640453124
2.3251543045043945	67691.90235906513
2.328047275543213	70550.82941262322
2.330935478210449	77820.28720576805
2.3338186740875244	87550.88473392396
2.3366971015930176	94913.69203867966
2.3395702838897705	99964.18149937557
2.3424389362335205	101505.06249235163
2.3453025817871094	94298.48095447224
2.348161458969116	90831.64766719926
2.351015567779541	100401.82853375758
2.353865146636963	113264.97687628107
2.3567099571228027	129820.80113649686
2.3595502376556396	159745.5563746954
2.3623859882354736	192511.2864375335
2.3652172088623047	203089.35429427534
2.368043899536133	171276.99459958656
2.370866537094116	106846.45753434865
2.3736846446990967	75884.5415167347
2.3764986991882324	91533.39599203758
2.3793084621429443	102765.65685156315
2.3821144104003906	100407.80483546165
2.384916305541992	118039.63651219051
2.387714147567749	159010.08692644586
2.3905084133148193	178041.99786609825
2.393299102783203	172059.54979919523
2.3960859775543213	177040.7448558903
2.398869514465332	208032.73688070077
2.4016497135162354	249068.68439771744
2.4044265747070312	278668.370397378
2.407200336456299	287778.67639388226
2.409970998764038	318479.3987591728
2.4127390384674072	367717.3673792861
2.415503978729248	349818.6311483938
2.418266534805298	303296.654952317
2.4210267066955566	293977.75247386337
2.4237842559814453	272462.71541979245
2.426539897918701	260172.4971636595
2.429293394088745	316049.7004109476
2.4320452213287354	370619.5044780153
2.4347951412200928	364680.14144608675
2.4375438690185547	400500.49822085246
2.440291166305542	480180.7162242676
2.443037271499634	487535.2267721264
2.445782423019409	452984.2196762494
2.4485268592834473	444793.6029749054
2.451270818710327	451627.07668940176
2.454014539718628	480748.5540721274
2.4567582607269287	547028.1859379055
2.4595019817352295	590129.3985500176
2.4622461795806885	641634.8836797044
2.4649908542633057	711744.3463058384
2.4677364826202393	665127.3954430624
2.4704833030700684	572062.4021641217
2.473231554031372	542265.343968733
2.4759814739227295	567802.0850097385
2.4787333011627197	597459.158368632
2.481487512588501	611315.0302943325
