#wavelength	surface flux
0.6450077295303345	102517.8081389538
0.6472567915916443	163709.24385871543
0.6494921445846558	218751.71573112402
0.6517150402069092	258140.32210926944
0.6539263725280762	300542.112123936
0.6561272740364075	347093.3153499463
0.6583186388015747	397663.1832771705
0.6605015397071838	451749.8219576259
0.6626768708229065	507608.96582633775
0.6648455858230591	558853.4017815997
0.6670085787773132	572112.4361058134
0.6691668033599854	498817.0440103069
0.6713210344314575	468800.7043283331
0.6734722256660461	635371.0315109446
0.6756211519241333	845064.757308063
0.6777685880661011	967820.8538261877
0.6799154281616211	1052437.4516705575
0.6820623278617859	1125406.2184863137
0.6842101216316223	1190302.057314824
0.6863595843315125	1246408.2362771756
0.688511312007904	1291634.821473409
0.6906660795211792	1321394.624639973
0.6928245425224304	1337489.768949287
0.6949873566627502	1351892.2976707616
0.6971551775932312	1362800.0493083445
0.6993286609649658	1357054.193968044
0.7015084028244019	1335014.8187150368
0.7036949396133423	1301846.5271229085
0.7058889269828796	1258177.4063470338
0.7080909013748169	1205957.527374418
0.710301399230957	1147449.787633388
0.712520956993103	1082731.7171108788
0.7147500514984131	1010307.8643902605
0.7169892191886902	932094.419521816
0.7192389369010925	856144.261630474
0.7214996814727783	783052.6349894152
0.723771870136261	708048.7925218623
0.7260559797286987	633004.0017878931
0.7283523678779602	561029.5968451239
0.7306615710258484	492619.16504727857
0.7329838871955872	428371.4960316639
0.7353196740150452	368205.41937964497
0.7376693487167358	311622.6291464533
0.7400332689285278	259427.73371488898
0.7424117922782898	212103.5193628188
0.7448052167892456	169819.86991524856
0.7472138404846191	132650.37237079273
0.7496379613876343	100583.82008489255
0.7520779371261597	73589.59529679103
0.7545340061187744	51547.41073502066
0.7570064663887024	34257.670357303134
0.7594954967498779	21396.315207526906
0.7620013952255249	12341.501257296222
0.7645244002342224	6297.4766551758885
0.7670646905899048	3234.9528148394493
0.7696225643157959	3553.863569024797
0.7721980810165405	7902.857977639629
0.7747915983200073	16647.776652268956
0.7774031162261963	28168.86739585491
0.7800329327583313	45590.41963024497
0.7826811671257019	78346.12812429969
0.7853479981422424	125149.38786400316
0.7880334854125977	180645.21120005034
0.7907378077507019	233676.84935231303
0.7934610247612	271193.05147387576
0.7962033748626709	358865.53279124945
0.7989648580551147	528326.210989142
0.801745593547821	708350.2681344429
0.8045456409454346	884707.1987362836
0.8073651194572449	1080896.6021979353
0.8102040886878967	1299108.584094964
0.8130625486373901	1543296.4213532463
0.8159406185150146	1809180.7905264765
0.8188382983207703	2101768.0929412204
0.8217556476593018	2467550.5673280316
0.8246926665306091	2903342.667552326
0.8276493549346924	3362674.6693992643
0.8306257724761963	3845102.9814910265
0.8336219191551208	4369202.616496983
0.8366377949714661	4942724.435214893
0.8396733403205872	5566277.734580532
0.8427285552024841	6236960.160801515
0.8458034992218018	6884645.13579929
0.8488980531692505	7110030.455324357
0.8520121574401855	7190803.760928337
0.8551458716392517	8413654.104292756
0.8582990765571594	9839558.44443852
0.8614717125892639	9775756.076542834
0.8646637797355652	9531733.637587564
0.8678751587867737	10310607.77983586
0.8711057901382446	11319906.23812762
0.8743556141853333	12366401.812600657
0.87762451171875	13659595.423437059
0.8809124231338501	14901818.008164551
0.8842192888259888	16130944.131562918
0.8875449895858765	17285293.84849954
0.8908893465995789	17325816.30363747
0.894252359867096	16972468.207100745
0.8976338505744934	19591984.727367606
0.9010337591171265	24078387.583527762
0.9044519662857056	27469878.90612128
0.9078882932662964	30050900.147610493
0.9113426208496094	32383797.77881272
0.914814829826355	34679603.21206889
0.9183048605918884	37114903.55237306
0.9218124747276306	38974562.586146116
0.925337553024292	37334102.67356097
0.9288799166679382	32656735.811549053
0.9324395060539246	31449521.746387213
0.9360161423683167	35848786.89052523
0.9396095871925354	41614672.13354079
0.943219780921936	44956533.60601391
0.9468464851379395	46117530.218729205
0.9504896402359009	47318911.68727195
0.9541489481925964	48267070.9647376
0.9578243494033813	48629612.847452916
0.9615156054496765	50037748.86530122
0.9652225375175476	53851648.10376017
0.9689450263977051	59050491.62974065
0.9726828336715698	63772337.95275678
0.9764357805252075	68425576.02368069
0.9802037477493286	73471449.30620746
0.983986496925354	77835701.94729061
0.9877838492393494	78308366.58637114
0.9915955662727356	73459818.28535236
0.9954215884208679	66991565.07661305
0.9992615580558777	59427912.874081425
1.0031154155731201	55444354.88508277
1.0069829225540161	59035188.86233984
1.0108637809753418	65487595.64436162
1.0147579908370972	72162515.96438393
1.018665075302124	78564414.06472915
1.022585153579712	84043002.93823133
1.0265177488327026	88199734.12346339
1.0304628610610962	93107389.6892911
1.0344202518463135	99819474.71876797
1.0383895635604858	106391064.3429649
1.0423706769943237	111667393.62166199
1.0463634729385376	115620571.17241023
1.0503677129745483	117676412.28609186
1.0543830394744873	118988591.28749663
1.058409333229065	121751568.19060074
1.0624464750289917	126606382.37148967
1.0664942264556885	133025189.59277174
1.0705522298812866	140329296.11715317
1.0746204853057861	148124683.42981437
1.0786986351013184	155470076.42228332
1.0827864408493042	161004079.1507558
1.086883783340454	161240770.44428742
1.0909905433654785	152052729.8364617
1.0951062440872192	135059869.97118145
1.0992310047149658	115762909.19467413
1.10336434841156	96741157.14808547
1.1075061559677124	79078597.25697188
1.1116561889648438	65231241.91782363
1.115814208984375	59297222.30642016
1.1199802160263062	61650317.54582262
1.124153733253479	69465272.26776004
1.1283347606658936	72990471.88862811
1.1325229406356812	62436830.07822426
1.1367181539535522	52770904.35146608
1.1409201622009277	57198889.648511715
1.145128846168518	69223770.58923006
1.1493438482284546	78490500.83770175
1.1535650491714478	78092320.59667563
1.1577922105789185	73995587.65866135
1.1620250940322876	69871697.92130324
1.1662636995315552	62005673.84899166
1.170507550239563	55462707.89231853
1.174756646156311	52963184.41413544
1.1790107488632202	57436435.57059685
1.1832695007324219	74612327.2636096
1.1875330209732056	95099604.12255058
1.191800832748413	110788560.78525782
1.1960728168487549	123267229.22928695
1.2003488540649414	133797913.81378247
1.2046287059783936	144297851.68167013
1.2089121341705322	154404662.776209
1.2131990194320679	163814933.08198
1.2174891233444214	173164613.72827384
1.2217823266983032	181203828.91459215
1.2260783910751343	188889131.38621804
1.230377197265625	195180365.13985592
1.2346785068511963	195565933.7559448
1.238982081413269	182466560.05464944
1.2432878017425537	162370689.56188002
1.2475954294204712	148960919.03608468
1.2519049644470215	141155016.43589383
1.256216049194336	160761731.34501734
1.2605286836624146	200233473.19123814
1.2648425102233887	222989917.9050702
1.2691574096679688	232008142.2587647
1.2734732627868652	235774668.61464578
1.2777899503707886	237082051.62671423
1.2821072340011597	235443389.4657396
1.2864248752593994	229928642.42142522
1.2907428741455078	225111336.67995483
1.2950609922409058	223081923.6148717
1.2993791103363037	221177671.38757774
1.303696870803833	218355024.33136168
1.3080145120620728	213386655.15106454
1.3123314380645752	204268165.56029683
1.3166478872299194	193053966.07815894
1.3209635019302368	177411321.4233366
1.3252781629562378	147904264.0643024
1.3295916318893433	102155321.06964843
1.3339040279388428	53577073.8818049
1.3382149934768677	22697723.714727286
1.3425244092941284	12000376.708760824
1.3468321561813354	8932126.64151496
1.3511382341384888	7073250.86689186
1.3554422855377197	5842532.95760975
1.3597444295883179	6015272.602704706
1.3640443086624146	7625535.794741931
1.3683418035507202	9050796.463545231
1.3726370334625244	10394292.758593438
1.3769296407699585	12428398.800154781
1.381219506263733	12488664.974612629
1.3855066299438477	10769329.560821755
1.3897908926010132	9696134.991816754
1.3940720558166504	8948431.237282176
1.3983501195907593	8740951.923913611
1.4026249647140503	9368977.715527829
1.4068963527679443	9448794.782743638
1.4111642837524414	8768242.683187205
1.4154287576675415	8528398.783252753
1.419689416885376	8523171.744036969
1.4239463806152344	8753555.268174483
1.4281994104385376	9940587.32494721
1.4324485063552856	11208724.992002953
1.436693549156189	11924273.151933027
1.440934419631958	12765109.568452979
1.4451709985733032	14202905.369289568
1.449403166770935	16906353.842815876
1.453631043434143	19967265.523416165
1.4578542709350586	22358739.934112854
1.4620729684829712	23696371.829133675
1.4662868976593018	23919526.90758789
1.4704961776733398	24392886.38590052
1.4747005701065063	26096351.99099208
1.4788999557495117	28142545.913483452
1.4830944538116455	29619403.450368688
1.4872838258743286	31080340.707939353
1.491468071937561	33118393.86749756
1.4956470727920532	35680887.03961892
1.4998208284378052	38542394.66109396
1.5039892196655273	41666294.74126214
1.5081522464752197	44860076.974291824
1.5123097896575928	48398240.48947719
1.5164618492126465	51946675.454403564
1.5206083059310913	55884893.68144395
1.5247491598129272	60020335.35699428
1.5288842916488647	63628728.72022886
1.5330137014389038	67708546.14926256
1.5371372699737549	71780145.48135689
1.541254997253418	75143643.3402854
1.545366883277893	79036560.17775734
1.5494728088378906	82650379.17035067
1.5535727739334106	84888192.86248596
1.5576666593551636	87301022.12164953
1.561754584312439	91503671.39704485
1.5658363103866577	96379704.9680427
1.5699119567871094	99536220.61673751
1.5739814043045044	101241351.56772308
1.5780447721481323	102791884.98125288
1.582101821899414	104267766.30724384
1.5861525535583496	105028556.44661282
1.5901970863342285	104607788.08494875
1.5942351818084717	103600015.08411522
1.5982669591903687	102215471.44299416
1.6022924184799194	99520646.36767887
1.606311559677124	95903756.74989973
1.6103241443634033	92239285.39323045
1.6143304109573364	88233267.88569649
1.6183301210403442	84205330.68648969
1.6223233938217163	81540997.440229
1.6263102293014526	80231935.21642159
1.6302905082702637	79842923.14832641
1.634264349937439	81157451.04913427
1.638231635093689	84212448.50852679
1.6421923637390137	86159152.26556306
1.646146535873413	85711155.4275874
1.6500942707061768	85547191.31024608
1.6540353298187256	84131435.61240007
1.6579699516296387	82231726.17508617
1.661897897720337	77069560.34128039
1.6658192873001099	56538500.85400607
1.6697341203689575	42617449.307322696
1.6736423969268799	55059558.20679603
1.677544116973877	68901192.46752118
1.6814392805099487	70530574.75199726
1.6853278875350952	67080208.14484217
1.6892099380493164	62759195.42649261
1.6930854320526123	58420236.88054204
1.696954369544983	54399360.87392483
1.7008168697357178	51738217.39478391
1.7046726942062378	51296788.25804266
1.708522081375122	52584431.14878696
1.712364912033081	53149135.28542728
1.7162011861801147	52870805.58281273
1.7200311422348022	52792967.027156346
1.723854422569275	51171336.77487588
1.7276713848114014	48604090.488230854
1.731481909751892	46252188.125921085
1.7352858781814575	43794288.265817285
1.7390835285186768	41682308.73823086
1.7428747415542603	40105826.154812664
1.7466596364974976	38437105.99473788
1.7504380941390991	36207983.17037941
1.7542102336883545	32837498.572518792
1.7579760551452637	29875451.160460223
1.7617355585098267	28525966.77458881
1.7654887437820435	26542168.393069606
1.7692357301712036	23710046.440468576
1.7729763984680176	21400780.658435095
1.776710867881775	19725112.809603196
1.7804391384124756	18537100.47203276
1.7841613292694092	16863885.914023742
1.7878772020339966	15635831.92909342
1.7915871143341064	14742780.228055209
1.7952908277511597	13860897.177993868
1.7989884614944458	13406057.463722793
1.8026801347732544	11907588.894647421
1.806365728378296	11109153.864133585
1.8100452423095703	11838208.871905748
1.8137187957763672	12605985.581004264
1.817386507987976	11943777.198965127
1.8210482597351074	11781065.693471039
1.8247040510177612	13248351.147750271
1.828354001045227	12632354.817766493
1.8319982290267944	11016612.891388742
1.8356364965438843	10365400.486544108
1.8392690420150757	10285511.514609609
1.8428958654403687	10876707.379701832
1.8465168476104736	10751595.825176472
1.8501322269439697	10319501.70981736
1.8537418842315674	9881753.404908968
1.8573459386825562	8507627.240178669
1.860944390296936	7360225.092894814
1.864537239074707	7094734.553982273
1.8681244850158691	7182673.719174293
1.871706247329712	7922730.504976747
1.8752825260162354	9859593.57803254
1.8788533210754395	12688315.74649205
1.8824186325073242	14868888.293489074
1.8859784603118896	15365388.764039466
1.8895330429077148	15342139.230448168
1.8930821418762207	16782308.716826558
1.8966259956359863	18129508.8382203
1.9001644849777222	17014324.8238763
1.9036977291107178	15841594.563976694
1.9072256088256836	16572573.417422172
1.9107483625411987	16621898.941994201
1.9142658710479736	15776178.945313845
1.9177782535552979	15863262.139646534
1.9212853908538818	15096605.778425891
1.9247875213623047	13701547.022240588
1.9282845258712769	12705812.485481478
1.9317764043807983	11684031.850312874
1.9352631568908691	10778071.857240397
1.9387450218200684	9726921.09832531
1.942221760749817	9977530.76213911
1.9456936120986938	11210410.889625587
1.9491604566574097	11914837.348990582
1.952622413635254	11899122.489251733
1.956079363822937	11314584.981463982
1.959531545639038	11438086.460584162
1.962978720664978	12191866.02093516
1.966421127319336	13430421.866049057
1.9698586463928223	14269317.656815976
1.9732913970947266	13873697.416077835
1.9767193794250488	14140119.083969189
1.9801424741744995	15023602.299856778
1.9835609197616577	16267157.586890962
1.9869745969772339	17262482.483976107
1.990383505821228	16856011.888072763
1.9937876462936401	17858969.681336988
1.9971871376037598	19504411.718167327
2.000581979751587	20452314.921339303
2.003972291946411	21850373.060052793
2.007357597351074	21923062.50703185
2.0107386112213135	22371041.59258913
2.0141148567199707	24122289.93010367
2.017486572265625	24675265.52101531
2.0208535194396973	26301513.41549338
2.0242159366607666	28406639.894335706
2.027573823928833	28082994.04753177
2.0309269428253174	28534484.608251832
2.034275770187378	30779404.975440525
2.0376198291778564	31982010.16180969
2.040959596633911	32111446.002957847
2.044294595718384	33115999.374627776
2.0476250648498535	34739562.00668204
2.0509510040283203	35082982.38486143
2.054272413253784	35370678.83216752
2.057589530944824	37236502.09849584
2.0609018802642822	38085183.149689116
2.0642096996307373	37872642.648256905
2.0675129890441895	38628787.758220896
2.0708119869232178	39141157.48332526
2.074106216430664	39024108.1684111
2.0773961544036865	39195647.42396528
2.080681324005127	39666350.3800076
2.0839622020721436	39966846.32329719
2.087238311767578	40157533.10685319
2.090510129928589	40454823.96764455
2.0937774181365967	40508560.24165471
2.0970399379730225	40344627.3083295
2.1002981662750244	40041311.66369816
2.1035518646240234	39621494.35578713
2.1068007946014404	39259113.9058235
2.1100454330444336	39050772.91552608
2.1132853031158447	39132671.24785355
2.116520881652832	38819855.354325615
2.1197516918182373	38320233.70130403
2.1229779720306396	38299434.04403919
2.12619948387146	38124467.48977951
2.1294167041778564	37589456.53015445
2.132629156112671	37276871.81058944
2.1358368396759033	36928114.86318323
2.139039993286133	36025729.26080259
2.1422386169433594	34743928.58327189
2.145432472229004	33591580.691851586
2.1486217975616455	33009323.81515344
2.151806354522705	32765087.775316298
2.1549863815307617	32563165.011802237
2.1581614017486572	32037301.64866349
2.16133189201355	31172672.429913912
2.1644976139068604	30468916.99292592
2.167658567428589	29739900.334355414
2.1708147525787354	28915643.434190504
2.173966407775879	27973771.434643567
2.1771130561828613	26909054.965652697
2.1802549362182617	26010974.07072479
2.183391809463501	24899488.107051264
2.1865241527557373	23471254.501197394
2.1896514892578125	21848465.14586095
2.1927738189697266	19766241.258590396
2.1958916187286377	16797147.407962896
2.1990041732788086	13293093.660993174
2.2021119594573975	10635302.358417451
2.2052149772644043	9634804.300420862
2.208312749862671	10195935.47830871
2.2114057540893555	11612800.214032054
2.214493751525879	13052115.107582437
2.217576742172241	13911522.179824416
2.2206547260284424	14192151.358474433
2.2237277030944824	14007583.680795277
2.2267956733703613	13165361.771730151
2.2298583984375	12316683.026346097
2.2329163551330566	11866141.597773539
2.235969066619873	11513289.267699432
2.2390167713165283	10978685.755315
2.2420592308044434	10202750.157940941
2.2450966835021973	9565420.375647694
2.248128890991211	9296865.644279512
2.2511560916900635	9182915.416033763
2.254178285598755	9084256.154288784
2.257194995880127	9059050.92558497
2.260206699371338	9006185.275319092
2.2632133960723877	8978270.940174038
2.266214609146118	8998297.869871734
2.2692108154296875	8924194.20230749
2.2722020149230957	8820519.30206774
2.2751877307891846	8672515.71855549
2.278168201446533	8459564.328950427
2.2811436653137207	8063186.892343427
2.284113883972168	7501896.766548503
2.287078857421875	7090864.732768855
2.290038824081421	6639993.280184438
2.2929933071136475	6289356.847635327
2.295942783355713	6446308.292023403
2.298887014389038	7094791.661123163
2.301826238632202	7913861.097968937
2.304760217666626	8964248.970177196
2.3076889514923096	10694097.625366751
2.310612440109253	12408763.533666944
2.3135311603546143	12184939.103381615
2.3164443969726562	8980635.566511225
2.319352865219116	5878727.071741481
2.322256088256836	5182706.673382822
2.3251543045043945	5165422.618513083
2.328047275543213	5109514.438397925
2.330935478210449	5283145.576583473
2.3338186740875244	5504581.6607471
2.3366971015930176	5655449.754166852
2.3395702838897705	5745569.539120731
2.3424389362335205	5763533.712981779
2.3453025817871094	5700863.931601882
2.348161458969116	5765692.127451125
2.351015567779541	6089312.977173307
2.353865146636963	6560330.883479359
2.3567099571228027	7027289.038338075
2.3595502376556396	7732802.046940562
2.3623859882354736	8612852.547543613
2.3652172088623047	9007144.2098942
2.368043899536133	8050685.327976806
2.370866537094116	5887600.415985622
2.3736846446990967	4914889.517206232
2.3764986991882324	5312718.2090200605
2.3793084621429443	5363862.921705635
2.3821144104003906	5178547.218085438
2.384916305541992	5624053.131482616
2.387714147567749	6660326.516506605
2.3905084133148193	7208249.401050332
2.393299102783203	7238059.586531239
2.3960859775543213	7540249.995291154
2.398869514465332	8197852.098941697
2.4016497135162354	8709940.021048214
2.4044265747070312	8910509.318443589
2.407200336456299	8852168.99979159
2.409970998764038	9104092.646578431
2.4127390384674072	9707222.849637447
2.415503978729248	9478796.066666396
2.418266534805298	9019621.530351294
2.4210267066955566	9301161.793314468
2.4237842559814453	9242597.052776014
2.426539897918701	8810236.083671067
2.429293394088745	9191412.740795614
2.4320452213287354	9789221.519587006
2.4347951412200928	9355838.419664403
2.4375438690185547	9372964.0416455
2.440291166305542	10131551.273789946
2.443037271499634	9814974.554192184
2.445782423019409	9168633.431605915
2.4485268592834473	9184132.834024208
2.451270818710327	8997481.333055736
2.454014539718628	8856492.49940849
2.4567582607269287	9665256.393001305
2.4595019817352295	9823264.652375884
2.4622461795806885	9890169.70116938
2.4649908542633057	10392359.206985453
2.4677364826202393	9388476.25108144
2.4704833030700684	8207247.059824994
2.473231554031372	7810117.102743461
2.4759814739227295	7906767.076316853
2.4787333011627197	8259941.118774408
2.481487512588501	8442483.515842391
2.4842441082000732	9250497.651576012
