#wavelength	surface flux
0.3999985296548732	0.0001167614304439379
0.4039985149514219	3.3247482930636184e-05
0.4080385001009362	0.0003237035972021909
0.41211888510194555	0.001362144642260408
0.416240073952965	0.0029528399641987582
0.4204024746924947	0.0028917307245790473
0.42460649943941964	0.006908027368086954
0.4288525644338138	0.009588991397970637
0.43314109007815194	0.012548647281556071
0.4374725009789334	0.015938604895095947
0.4418472259887228	0.01998649567810252
0.44626569824860995	0.025336619220124177
0.4507283552310961	0.03237594399513531
0.45523563878340706	0.04202213679260171
0.4597879951712412	0.054050077218514396
0.4643858751229536	0.07091849077717767
0.4690297338741832	0.09290173776175727
0.47372003121292494	0.1278846020821742
0.4784572315250542	0.1821503406959638
0.48324180384030474	0.24936869494318156
0.4880742218787078	0.3553230894764934
0.49295496409749495	0.5069728015479164
0.4978845137384698	0.7031026331636647
0.5028633588758545	0.8415256633978908
0.5078919924646131	1.0469392609698707
0.5129709123892592	1.2432064050472789
0.5181006215131518	1.3952034273081246
0.5232816277282833	1.414257287963268
0.5285144440055661	1.4232484964528145
0.5337995884456219	1.4239692564102455
0.5391375843300781	1.2896407460628858
0.5445289601733789	1.15443254230543
0.5499742497751127	1.1132710075541672
0.5554739922728638	1.075964564572244
0.5610287321955925	0.9881075577600726
0.5666390195175484	0.7588382853883435
0.5723054097127239	0.5811192371867197
0.5780284638098512	0.40335959807444655
0.5838087484479496	0.22581821319509118
0.5896468359324292	0.029119649669633815
0.5955433042917534	0.3359367591046671
0.601498737334671	1.0615038302977464
0.6075137247080177	2.66141663170218
0.6135888619550979	5.354360737206391
0.6197247505746488	8.735353177239402
0.6259219980803953	13.844718277198407
0.6321812180611992	21.525268625807858
0.6385030302418113	33.116881977355085
0.6448880605442294	37.00431144398419
0.6513369411496717	51.53548769099712
0.6578503105611685	74.96981361545832
0.6644288136667802	125.55325499031859
0.6710731018034479	174.62067213863173
0.6777838328214824	227.12390147764876
0.6845616711496972	243.5027317585159
0.6914072878611942	111.27106212471372
0.6983213607398061	121.75600001955442
0.7053045743472042	89.98841155653126
0.7123576200906763	98.06031286767508
0.719481196291583	7.2418379139219935
0.726676008254499	6.1039026069485995
0.7339427683370439	13.853650093598917
0.7412821960204143	22.684997564577657
0.7486950179806185	34.293177165729745
0.7561819681604247	24.40018620415209
0.7637437878420289	10.541772822170339
0.7713812257204492	8.503221870278946
0.7790950379776537	7.898800583083772
0.7868859883574303	10.539979915727438
0.7947548482410045	8.858286145988721
0.8027023967234147	10.312128121561974
0.8107294206906488	3.5340522355585358
0.8188367148975553	1.8752478798206726
0.8270250820465308	4.57536854181761
0.8352953328669962	9.25317291796224
0.8436482861956661	41.41140375568169
0.8520847690576229	106.94970884886492
0.8606056167481991	255.9228049240729
0.869211672915681	456.89691633791193
0.8779037896448377	400.9858676356182
0.8866828275412862	428.80096942335
0.8955496558166991	13.543465798915783
0.9045051523748662	185.09910447708347
0.9135502038986147	26.41818112681212
0.922685705937601	39.916698763644455
0.931912562996977	0.009796227733851418
0.9412316886269468	0.12152524298023018
0.9506440055132163	0.03720716137370176
0.9601504455683483	0.061454942568712534
0.9697519500240318	5.1998833695745335
0.9794494695242721	5.2762617448198785
0.9892439642195149	33.149653609564844
0.9991364038617101	73.95521993201156
1.0091277679003272	45.23545049319949
1.0192190455793306	2.2200880285801756
1.0294112360351237	3.067401614455143
1.039705348395475	3.9831702735157273
1.0501024018794298	11.982970133763676
1.060603425898224	25.64634646821659
1.0712094601572064	12.58942563158238
1.0819215547587784	7.61483084775811
1.0927407703063663	2.6997744267888857
1.1036681780094297	0.5769404648604267
1.1147048597895242	0.0025685471066170576
1.1258519083874194	0.00015490774331375769
1.1371104274712935	0.002044246048577744
1.1484815317460066	9.131210214469545e-05
1.1599663470634667	0.0003938845029780273
1.1715660105341013	0.00823725651997595
1.1832816706394425	0.11170066927975816
1.1951144873458368	0.10983356504670172
1.2070656322192952	0.07975077019182085
1.219136288541488	0.13415659114091774
1.231327651426903	1.4656967215694807
1.2436409279411722	9.728922274026724
1.2560773372205838	20.736674540986588
1.2686381105927897	78.99841492927905
1.2813244916987176	30.67254738343059
1.2941377366157047	4.079528792355771
1.3070791139818618	1.5409107199647771
1.3201499051216805	0.4578451457662671
1.333351404172897	0.07069181534162222
1.3466849182146263	0.00014984027658314472
1.3601517673967725	3.5007810362827596e-07
1.3737532850707401	3.565617759234851e-06
1.3874908179214476	2.268695729895198e-06
1.401365726100662	1.0045656342881074e-05
1.4153793833616688	0.00014748131546143996
1.4295331771952855	0.00015545075138308903
1.4438285089672382	0.0017565000626670777
1.4582667940569107	0.16292668799284474
1.47284946199748	0.0015180483097249693
1.4875779566174547	0.0001218412662298195
1.5024537361836292	0.0026461080717385195
1.5174782735454655	1.640510032863401e-05
1.5326530562809202	0.08428871375919421
1.5479795868437294	0.0763801796921224
1.5634593827121666	5.730246692435214
1.5790939765392884	27.574761799413597
1.5948849163046814	62.86927851893669
1.6108337654677283	21.195209140750897
1.6269421031224054	0.3166712433591728
1.6432115241536296	0.05262548806781486
1.6596436393951657	0.08590398015172993
1.6762400757891174	0.08587439897105034
1.6930024765470086	0.007981697732639764
1.7099325013124789	0.025997758113884217
1.7270318263256035	0.04123761035751606
1.7443021445888596	0.8460283515309939
1.761745166034748	0.1716739435918607
1.7793626176950958	0.48670316192934016
1.7971562438720465	0.04445177996717915
1.8151278063107674	0.011805293127621797
1.833279084373875	0.0011731811518192838
1.8516118752176136	0.0011581412683852493
1.8701279939697897	0.0019590929659325023
1.8888292739094876	0.013100776630092747
1.9077175666485826	0.0015554321872861805
1.9267947423150684	0.002498551064723348
1.9460626897382192	0.0010085432596740657
1.9655233166356012	0.0034574617240773994
1.9851785498019574	0.005724225931781777
2.005030335299977	0.01797143802037444
2.0250806386529767	0.023426671709333758
2.0453314450395066	0.052526145428037706
2.0657847594899015	0.04214605030247955
2.0864426070848006	0.025052796512217836
2.107307033155649	0.016418420695370646
2.128380103487205	0.02348657929402236
2.149663904522077	0.03387141315619267
2.171160543567298	0.03142645127475471
2.1928721490029712	0.011676332177673615
2.2148008704930007	0.0007792236870298752
2.236948879197931	0.0004585563416265685
2.2593183679899105	4.749639623743254e-05
2.281911551669809	0.00026918785603543914
2.3047306671865075	0.00025528301684162085
2.3277779738583724	2.3045389658584882e-05
2.351055753596956	0.00016228669633098125
2.374566311132926	0.0006004610106693085
2.398311974244255	0.0011721246807581255
2.4222950939866976	0.004556693357518488
2.446518044926565	0.06171661519994297
2.4709832253758304	0.30503271519089575
2.495693057629589	0.6511232366202564
2.520649988205885	0.4963604103224419
2.5458564880879435	0.16222243129649103
2.571315052968823	0.02546115169687069
2.5970282034985113	0.030272916547720782
2.6229984855334965	0.07575093812345032
2.6492284703888314	0.350515702195145
2.6757207550927196	0.1137884376804084
2.7024779626436466	0.4316953969200839
2.7295027422700833	0.7267481237155171
2.7567977696927843	0.7630590797087701
2.784365747389712	0.750346508951798
2.812209404863609	0.29553518010879515
2.8403314989122452	0.4641727596660714
2.868734813901368	0.6127350327380304
2.8974221620403813	0.4779881055141996
2.9263963836607854	0.8465723520921254
2.955660347497393	0.5714296386749012
2.9852169509723674	1.5826072754247447
3.015069120482091	1.6384634460909324
3.045219811686912	3.3300817685690545
3.075672009803781	5.686179109243684
3.1064287299018187	2.3163314103268617
3.137493017200837	21.53318584143309
3.168867947372845	4.306555378219841
3.200556626846574	0.1271816903579379
3.2325621931150392	0.008890033924543505
3.26488781504619	0.002178293854367143
3.297536693196652	0.04282572047408274
3.3305120601286187	0.02459071924895643
3.363817180729905	0.016664532908690424
3.3974553525372038	0.08419690759295792
3.4314299060625757	0.9266995394064855
3.4657442051232015	2.414827649380806
3.500401647174434	3.6832355399450845
3.535405663646178	2.3998789171606916
3.5707597202826404	4.351925916376467
3.6064673174854667	26.55298069488357
3.6425319906603213	43.154863150406534
3.678957310566924	171.80191525131275
3.7157468836725935	223.51826408955708
3.75290435250932	404.92897076217486
3.7904333960344125	94.82529391309495
3.8283377299947574	1622.1901604325146
3.866621107294704	587.6713065898707
3.9052873183676513	724.4927056141416
3.9443401915513285	1233.1664299039576
3.9837835934668413	2331.7636484184095
4.02362142940151	2271.5717964278306
4.063857643695525	4034.939166023858
4.10449622013248	5398.9536734465855
4.1455411823338055	10874.975296089979
4.186996594157144	10024.824612878503
4.228866560098715	9929.791249818605
4.271155225699702	28137.535165875088
4.313866777956699	29943.514333375366
4.357005445736266	31770.986478667182
4.400575500193629	35353.17267009685
4.4445812551955655	30893.791452624773
4.4890270677475215	36180.64047807087
4.533917338424996	32411.341598035364
4.579256511809246	34265.95701241021
4.625049076927338	27278.057974615287
4.671299567696612	19024.721731298097
4.718012563373578	23020.072121404864
4.765192689007313	23925.33419391653
4.8128446158973865	17300.91173585499
4.860973062056361	18413.796462289585
4.909582792676924	10215.174350323328
4.958678620603694	4899.223529625059
5.008265406809731	5507.261040364599
5.058348060877829	10940.046620114183
5.108931541486607	4497.882386382586
5.160020856901473	3904.032334622125
5.211621065470488	1556.7154217292305
5.263737276125193	3219.1878464016954
5.316374648886445	1965.200795059459
5.369538395375309	1562.3782866474573
5.4232337793290615	720.1534579721208
5.477466117122353	648.4354294234048
5.532240778293576	467.8587837509568
5.587563186076513	224.1435894191524
5.643438817937278	205.54548572420114
5.69987320611665	246.644397639874
5.756871938177817	31.826739739665538
5.814440657559595	39.1564723351864
5.87258506413519	72.09755208395711
5.931310914776543	109.55598531413932
5.990624023924308	92.67462083249295
6.050530264163551	66.80266526208375
6.111035566805187	9.441706798785294
6.172145922473239	6.370890238471466
6.233867381697972	77.77328078714302
6.296206055514951	145.4832985575255
6.359168116070101	98.82611105054156
6.4227597972308015	81.66008409762554
6.48698739520311	43.653297965887326
6.551857269155142	159.5572154094684
6.617375841846692	204.28191976726447
6.6835496002651595	216.77566673081208
6.750385096267811	562.2275276178149
6.8178889472304895	689.8046782390202
6.886067836702794	885.4396885156654
6.954928515069822	1366.5481311344438
7.02447780022052	1291.92784727765
7.094722578222726	1664.4355287811395
7.165669804004954	1885.5435933356587
7.237326502045002	1092.7292243412874
7.309699767065453	369.2820282132206
7.382796764736107	62.64469661748453
7.456624732383468	23.59432235500163
7.531190979707304	30.23175926558782
7.606502889504377	67.27996843868473
7.682567918399419	13.46832562484809
7.759393597583415	47.77316695659504
7.836987533559249	59.433985951683724
7.915357408894842	60.905352838600855
7.99451098298379	271.6276822355706
8.074456092813627	424.06836601224194
8.155200653741764	1240.899056135415
8.236752660279182	2208.351368356651
8.319120186881973	2955.1307205330377
8.402311388750794	3408.883286999023
8.486334502638302	3406.7236030249537
8.571197847664685	4282.211067468573
8.656909826141332	2132.120408688453
8.743478924402744	2578.107251501113
8.830913713646773	2285.9498845284916
8.91922285078324	994.5399807744078
9.008415079291073	1228.8442067223757
9.098499230083984	1349.7156246590805
9.189484222384824	594.657062463976
9.281379064608672	922.5664677200269
9.374192855254758	290.9434111933582
9.467934783807307	859.7213617853876
9.562614131645379	282.508103118945
9.658240272961834	552.9145440909764
9.754822675691452	660.8344804363691
9.852370902448365	779.5205809175419
9.950894611472851	670.7333084245502
10.050403557587579	706.4874153354083
10.150907593163454	1845.6416237026383
10.252416669095089	1153.1658266774039
10.35494083578604	130.92598985067286
10.4584902441439	804.4303440016741
10.56307514658534	718.1285208438716
10.668705898051194	720.5216152658389
10.775392957031706	195.43714509844162
10.883146886602022	1032.800706723879
10.991978355468042	787.5346823275488
11.101898139022724	2451.4932321028373
11.21291712041295	503.1729338725168
11.325046291617081	2274.429567754736
11.438296754533251	1389.1214646985093
11.552679722078585	1345.9153118864147
11.66820651929937	1835.6025830270466
11.784888584492363	778.1282043266335
11.902737470337287	2864.957209908846
12.021764845040659	709.5417048823767
12.141982493491067	2455.8946954787966
12.263402318425978	848.174345037011
12.386036341610238	1337.7978926708874
12.509896705026339	2519.7850400055127
12.634995672076604	2102.2502395662123
12.76134562879737	2551.2326446799148
12.888959085085343	2271.5035554009587
13.017848675936195	2551.423107795565
13.14802716269556	2535.237569024156
13.279507434322513	2820.8291534483315
13.41230250866574	2643.7519868936893
13.546425533752396	3017.694918223221
13.68188978908992	3214.137001289652
13.818708686980822	2895.8885800265234
13.95689577385063	3131.4433325687087
14.096464731589135	2910.348857040115
14.237429378905027	3047.6101774893987
14.379803672694079	2961.4290632824295
14.523601709421019	2855.388336365111
14.668837726515228	2832.8389135222183
14.81552610378038	2738.986621026506
14.963681364818186	2624.874314665853
15.113318178466368	2588.522088703001
15.26445136025103	2530.9442998744757
15.41709587385354	2357.6247249486187
15.571266832592077	2390.1841909334016
15.726979500917999	2303.3926334939915
15.884249295927178	2041.7838686940652
16.04309178888645	2187.5797843984674
16.203522706775317	2197.0656147912455
16.365557933843068	2190.7483982333624
16.5292135131815	2194.088990666112
16.694505648313314	2194.4656978563075
16.861450704796447	2183.2773819364
17.03006521184441	2210.0188041178444
17.20036586396286	2249.385010392834
17.372369522602487	2284.8349564115633
17.54609321782851	2293.446377181821
17.721554150006796	2398.416897113737
17.898769691506864	2460.230928101558
18.077757388421933	2441.801545050667
18.25853496230615	2550.421031523775
18.441120311929215	2639.202118048983
18.625531515048504	2653.9266767918257
18.81178683019899	2700.3439766069678
18.99990469850098	2786.0113465677878
19.18990374548599	2807.3655591328593
19.38180278294085	2805.595293237473
19.57562081077026	2909.6277987650874
19.771377018877963	2889.3161189343605
19.96909078906674	2904.5655475876342
20.16878169695741	2999.046152639966
20.370469513926984	2955.544734908947
20.574174209066253	2928.2425692161855
20.779915951156916	2974.2962174279937
20.987715110668486	2944.3893025935995
21.19759226177517	2811.763552576446
21.40956818439292	2880.261697762296
21.623663866236853	2846.6657816738057
21.83990050489922	2661.9095890094236
22.058299509948213	2738.5878999166225
22.278882505047697	2764.719363772356
22.501671330098173	2656.7649180277463
22.726688043399154	2627.0600813547476
22.953954923833145	2561.9635297898208
23.183494473071477	2530.1827094875994
23.41532941780219	2515.148083983514
23.649482711980216	2402.581595447896
23.88597753910002	2204.611247545408
24.124837314491018	2367.917905592832
24.36608568763593	2337.102436268279
24.609746544512287	2279.843990843941
24.855844009957412	2203.0388317261886
25.104402450056988	2023.2079800111462
25.355446474557553	2020.729263098536
25.609000939303133	2069.1104504381055
25.865090948696164	1971.0198924884544
26.123741858183127	1953.6649439163175
26.384979276764955	1922.644331451699
26.648829069532603	1760.95192033017
26.915317360227935	1813.2856466429614
27.184470533830215	1836.1568099312833
27.456315239168514	1821.0492832348873
27.730878391560196	1767.4147055860922
28.008187175475804	1607.3179573511634
28.28826904723056	1597.792099243158
28.571151737702866	1550.5303221790225
28.856863255079894	1622.4448181629762
29.145431887630696	1566.9392939396366
29.436886206507	1541.3451749604276
29.73125506857207	1497.3644845426977
30.028567619257792	1491.8588617133107
30.328853295450372	1463.7517762167954
30.632141828404876	1393.1053047182827
30.938463246688926	1304.9404026188006
31.24784787915581	1416.6483273027836
31.560326357947375	1361.0749334861418
31.875929621526847	1323.9901892298726
32.19468891774212	1323.7690608368268
32.51663580691953	1301.7056019597244
32.84180216498873	1207.1191518013443
33.170220186638616	1144.1392569422499
33.50192238850501	1178.0186650027008
33.836941612390056	1144.4000371511254
34.17531102851396	1096.2388417053915
34.51706413879909	1004.8533403096907
34.86223478018709	1098.517207333549
35.21085712798896	1042.3964736826763
35.562965699268844	949.431993650929
35.91859535626154	856.5010073015172
36.27778130982416	834.8365070132271
36.64055912292239	874.5407092844765
37.00696471415162	883.6559689465719
37.377034361293134	903.7468323517622
37.750804704906066	880.7919091025615
38.12831275195513	882.639366982884
38.50959587947468	840.6888970454955
38.89469183826943	685.5029366177786
39.283638756652124	560.2225668289595
39.67647514421864	616.7808270195188
40.073239895660834	690.8003413312802
40.47397229461744	650.9228598914762
40.878712017563615	633.550358660067
41.287499137739246	678.8848614984337
41.700374129116646	631.1049085035529
42.117377870407815	470.72637948070883
42.53855164911189	397.47702241381916
42.96393716560301	466.6664096449518
43.39357653725904	551.8056060644343
43.827512302631625	482.13545009691165
44.26578742565795	481.36713901048313
44.70844529991452	480.7005137828141
45.15552975291367	434.6655195818631
45.60708505044281	410.19156794926727
46.06315590094724	276.83427116527076
46.52378745995671	254.878784254151
46.989025334556274	392.419656382695
47.45891558790184	407.65943502261814
47.93350474378086	352.3697802036426
48.412839791218666	382.44759074280745
48.89696818913085	350.31202140634633
49.385937871022165	294.26408323337637
