#wavelength	surface flux
0.3999985296548732	0.000588926643129629
0.4039985149514219	0.00010088204008625429
0.4080385001009362	0.0015239682057546417
0.41211888510194555	0.00758461285946244
0.416240073952965	0.02063415200297931
0.4204024746924947	0.0162837835266875
0.42460649943941964	0.08262610038301317
0.4288525644338138	0.15447112990124753
0.43314109007815194	0.2540566875031609
0.4374725009789334	0.39054344000139185
0.4418472259887228	0.5716435696614222
0.44626569824860995	0.8073834208997145
0.4507283552310961	1.0991211167525659
0.45523563878340706	1.3630660769484213
0.4597879951712412	1.7990658406445994
0.4643858751229536	2.2137402598042493
0.4690297338741832	2.5571522575080783
0.47372003121292494	2.9028982494883535
0.4784572315250542	3.214327294436855
0.48324180384030474	3.3980393649253178
0.4880742218787078	3.5957080954317684
0.49295496409749495	3.7452020777000996
0.4978845137384698	3.857171094456919
0.5028633588758545	3.7462162430261228
0.5078919924646131	3.793822173259544
0.5129709123892592	3.8597922663259
0.5181006215131518	3.9367750301442874
0.5232816277282833	3.8710049311725867
0.5285144440055661	3.7648164107639404
0.5337995884456219	3.6308803489700296
0.5391375843300781	3.33668218101181
0.5445289601733789	3.086437651923577
0.5499742497751127	2.9268779635657114
0.5554739922728638	2.720903695895497
0.5610287321955925	2.376387014756906
0.5666390195175484	1.8701780061413626
0.5723054097127239	1.471008734621104
0.5780284638098512	0.9919150521062103
0.5838087484479496	0.5121018381937253
0.5896468359324292	0.07348977727294724
0.5955433042917534	0.8758997074404262
0.601498737334671	2.627342672417816
0.6075137247080177	6.013446003381366
0.6135888619550979	11.423034890920036
0.6197247505746488	19.31177748576728
0.6259219980803953	31.63527829709578
0.6321812180611992	49.79711167712666
0.6385030302418113	75.2653023654208
0.6448880605442294	95.08898148972345
0.6513369411496717	133.86114222923146
0.6578503105611685	189.47114165524664
0.6644288136667802	273.0775824754409
0.6710731018034479	328.45023609218396
0.6777838328214824	433.27460075532395
0.6845616711496972	467.88434459790477
0.6914072878611942	309.5519080910636
0.6983213607398061	342.22437584944635
0.7053045743472042	295.5859338784562
0.7123576200906763	314.87160887669256
0.719481196291583	77.85795563851012
0.726676008254499	69.77806176247023
0.7339427683370439	100.20159888553343
0.7412821960204143	129.71512924920393
0.7486950179806185	170.5418057537628
0.7561819681604247	131.46503869773142
0.7637437878420289	54.72334953915308
0.7713812257204492	51.869769253741374
0.7790950379776537	93.82797903377389
0.7868859883574303	216.61369109855676
0.7947548482410045	197.55319613595668
0.8027023967234147	359.7123709902746
0.8107294206906488	209.89936224909115
0.8188367148975553	198.08483461975982
0.8270250820465308	354.3057469108548
0.8352953328669962	513.4785094232852
0.8436482861956661	1340.7394552661021
0.8520847690576229	2589.426660330682
0.8606056167481991	4352.998851161992
0.869211672915681	5655.629864071077
0.8779037896448377	5003.6890067526365
0.8866828275412862	5552.690512752549
0.8955496558166991	598.1023506498279
0.9045051523748662	3782.592291199171
0.9135502038986147	1386.2201690281076
0.922685705937601	1463.2065723533942
0.931912562996977	0.5742082698922598
0.9412316886269468	18.848613254889752
0.9506440055132163	9.285629511859911
0.9601504455683483	10.823678565077154
0.9697519500240318	216.99471063390467
0.9794494695242721	301.91625398006954
0.9892439642195149	1243.1036396016027
0.9991364038617101	2819.3863773931043
1.0091277679003272	2131.3168249263267
1.0192190455793306	222.8799302028496
1.0294112360351237	397.7722671318817
1.039705348395475	408.2348047742571
1.0501024018794298	912.818361225227
1.060603425898224	1728.0570924053875
1.0712094601572064	1132.8019058711684
1.0819215547587784	891.8339412974719
1.0927407703063663	334.5372247220679
1.1036681780094297	71.96040967788919
1.1147048597895242	0.5821434634538545
1.1258519083874194	0.2390494447201425
1.1371104274712935	1.0484995373154145
1.1484815317460066	0.07379489469593416
1.1599663470634667	0.2187294781746456
1.1715660105341013	2.0497925327476487
1.1832816706394425	25.826824490208562
1.1951144873458368	27.566594171184665
1.2070656322192952	24.444051497764818
1.219136288541488	32.42721232160225
1.231327651426903	220.43740998719704
1.2436409279411722	875.3117728957164
1.2560773372205838	1437.4259460845246
1.2686381105927897	4064.7205734801696
1.2813244916987176	1299.8135064829703
1.2941377366157047	283.18284909549027
1.3070791139818618	139.1284267943301
1.3201499051216805	60.069213244979984
1.333351404172897	9.491023756646827
1.3466849182146263	0.026737878361001895
1.3601517673967725	0.0001354512560619425
1.3737532850707401	0.004294780232845537
1.3874908179214476	0.001590666640442674
1.401365726100662	0.006249329085646506
1.4153793833616688	0.039157852359475775
1.4295331771952855	0.01741272287563658
1.4438285089672382	0.31299323475287977
1.4582667940569107	10.117240229148658
1.47284946199748	0.1989918467756715
1.4875779566174547	0.031818546156879735
1.5024537361836292	0.5953236514441339
1.5174782735454655	0.011751517060979851
1.5326530562809202	9.820651520247898
1.5479795868437294	4.873964060973225
1.5634593827121666	135.7489500134319
1.5790939765392884	769.0101815900807
1.5948849163046814	1314.1104306418051
1.6108337654677283	454.2440912522655
1.6269421031224054	18.97335095402405
1.6432115241536296	9.919814972053288
1.6596436393951657	15.332197410498704
1.6762400757891174	12.218521925709805
1.6930024765470086	1.5561832083821645
1.7099325013124789	3.5166284235871608
1.7270318263256035	6.737640923439344
1.7443021445888596	53.4292614434252
1.761745166034748	10.45435979099825
1.7793626176950958	27.276138619739974
1.7971562438720465	3.634426068694609
1.8151278063107674	1.3364061425681582
1.833279084373875	0.06807698716081056
1.8516118752176136	0.04683733617444958
1.8701279939697897	0.13889002145913731
1.8888292739094876	1.483624447899528
1.9077175666485826	0.046594987756149765
1.9267947423150684	0.12389678735373091
1.9460626897382192	0.1708157202165663
1.9655233166356012	1.0526265940490935
1.9851785498019574	0.8066730753556208
2.005030335299977	3.2445743574748636
2.0250806386529767	3.6268747182559085
2.0453314450395066	9.964672252671493
2.0657847594899015	11.584044727619519
2.0864426070848006	11.092305020207421
2.107307033155649	9.81017699531558
2.128380103487205	10.628345128568753
2.149663904522077	9.806977627748788
2.171160543567298	8.349859281234636
2.1928721490029712	2.3153945475189324
2.2148008704930007	0.3798015466588401
2.236948879197931	0.22734319193817643
2.2593183679899105	0.07330827769019523
2.281911551669809	0.18770973532735433
2.3047306671865075	0.21434156690772518
2.3277779738583724	0.09810793690609232
2.351055753596956	0.1695891779436335
2.374566311132926	0.282026691075073
2.398311974244255	0.5210209510238638
2.4222950939866976	1.0740416233480092
2.446518044926565	7.482059527998585
2.4709832253758304	19.332209977423577
2.495693057629589	23.7712854294941
2.520649988205885	13.155378682396073
2.5458564880879435	1.8006051916706265
2.571315052968823	0.7317350224886224
2.5970282034985113	1.0165885687694594
2.6229984855334965	1.2790058897843517
2.6492284703888314	2.5495748599488843
2.6757207550927196	1.3271823462942383
2.7024779626436466	1.9607054904911843
2.7295027422700833	2.5942142114730973
2.7567977696927843	2.829699788952377
2.784365747389712	3.1551813243794644
2.812209404863609	2.838608042185432
2.8403314989122452	6.823819811688572
2.868734813901368	12.760394281131253
2.8974221620403813	14.99864463433023
2.9263963836607854	31.56813045237093
2.955660347497393	28.3637116418482
2.9852169509723674	57.895382284973074
3.015069120482091	66.38641916506646
3.045219811686912	78.50452327650562
3.075672009803781	94.1671466807293
3.1064287299018187	55.10082369619173
3.137493017200837	378.0229311377977
3.168867947372845	73.14085708972189
3.200556626846574	12.27226890316974
3.2325621931150392	9.885737065601724
3.26488781504619	10.088451633413523
3.297536693196652	20.863538657419866
3.3305120601286187	13.424450027911789
3.363817180729905	13.653009273671524
3.3974553525372038	26.188481043013244
3.4314299060625757	43.306450968584876
3.4657442051232015	66.44336682321355
3.500401647174434	135.32537334306411
3.535405663646178	92.23216110608027
3.5707597202826404	174.64082837516284
3.6064673174854667	338.27381549475626
3.6425319906603213	719.4506479772833
3.678957310566924	2011.4433545787044
3.7157468836725935	2274.1693924749293
3.75290435250932	4296.447635669845
3.7904333960344125	1245.9052144028685
3.8283377299947574	10214.263797935144
3.866621107294704	5283.143371642433
3.9052873183676513	5534.231569446502
3.9443401915513285	7874.790906330138
3.9837835934668413	14279.20998285123
4.02362142940151	12940.00323298236
4.063857643695525	21380.318688107145
4.10449622013248	25847.246791581565
4.1455411823338055	42951.821804358035
4.186996594157144	39454.019305691654
4.228866560098715	32020.766310840452
4.271155225699702	82564.8282370633
4.313866777956699	69203.76469365011
4.357005445736266	86936.88457929564
4.400575500193629	89813.73253066225
4.4445812551955655	77797.77422211
4.4890270677475215	85859.02616975617
4.533917338424996	85527.8208162771
4.579256511809246	89507.65844492373
4.625049076927338	73279.8011762724
4.671299567696612	55630.38811683034
4.718012563373578	66125.43223089796
4.765192689007313	74313.2225336506
4.8128446158973865	57566.24140681518
4.860973062056361	60308.52693400839
4.909582792676924	33507.73478584003
4.958678620603694	17439.4232791432
5.008265406809731	20440.423596032466
5.058348060877829	40543.7110174222
5.108931541486607	15801.39758649987
5.160020856901473	13800.379768198605
5.211621065470488	4051.462189728445
5.263737276125193	10875.172627314632
5.316374648886445	7824.758914344657
5.369538395375309	4472.96711246653
5.4232337793290615	2016.829242149098
5.477466117122353	1981.3925215256527
5.532240778293576	1814.8601541078203
5.587563186076513	1294.0391959021808
5.643438817937278	1495.9767985887931
5.69987320611665	1867.798436016485
5.756871938177817	894.1520454413744
5.814440657559595	1149.0604533243613
5.87258506413519	1152.147191560743
5.931310914776543	1448.3195422973822
5.990624023924308	1414.7662436934513
6.050530264163551	1372.777157826629
6.111035566805187	787.3218327239675
6.172145922473239	638.5141101938628
6.233867381697972	1626.369607870078
6.296206055514951	2495.140641057399
6.359168116070101	1976.1052018722464
6.4227597972308015	1416.0338406008402
6.48698739520311	1191.7132626114264
6.551857269155142	2411.978126314294
6.617375841846692	2150.603377610655
6.6835496002651595	2219.9225191822097
6.750385096267811	2550.2731774179283
6.8178889472304895	3386.4814173210416
6.886067836702794	3294.6067186243126
6.954928515069822	4382.0905464172365
7.02447780022052	4075.480329022159
7.094722578222726	4977.980807802824
7.165669804004954	4857.141200931832
7.237326502045002	4836.1906817603585
7.309699767065453	3390.0916064295243
7.382796764736107	2318.001171676487
7.456624732383468	1391.1097249000507
7.531190979707304	2114.271703645305
7.606502889504377	2885.4962367454864
7.682567918399419	702.337373033702
7.759393597583415	1723.6486442908972
7.836987533559249	2411.2062690131593
7.915357408894842	2130.3839973223585
7.99451098298379	3612.330534007254
8.074456092813627	4145.2913226133
8.155200653741764	6067.457878981427
8.236752660279182	7354.116826808281
8.319120186881973	8953.891875287074
8.402311388750794	9265.254430317622
8.486334502638302	10129.747952659414
8.571197847664685	12184.955047677997
8.656909826141332	7424.958201865851
8.743478924402744	9776.780198488274
8.830913713646773	8766.380771931706
8.91922285078324	6292.658900355856
9.008415079291073	6547.551109548032
9.098499230083984	7414.742865197167
9.189484222384824	5948.913163799367
9.281379064608672	6339.1391309465425
9.374192855254758	3919.107065042456
9.467934783807307	6647.296439176219
9.562614131645379	4082.1669265168075
9.658240272961834	5294.558508353817
9.754822675691452	6141.14174919446
9.852370902448365	6583.292306066303
9.950894611472851	6944.401384980448
10.050403557587579	6642.962237843676
10.150907593163454	10771.91381982042
10.252416669095089	8734.652360032105
10.35494083578604	794.9020878531808
10.4584902441439	5637.814389901633
10.56307514658534	5863.743889711929
10.668705898051194	5254.954573924949
10.775392957031706	1134.6214079058877
10.883146886602022	5902.1292186787705
10.991978355468042	5883.89217938825
11.101898139022724	10493.88974659351
11.21291712041295	4706.549656578313
11.325046291617081	10369.755128687611
11.438296754533251	7660.936148896619
11.552679722078585	7039.9943664114235
11.66820651929937	8574.910495384553
11.784888584492363	4693.336083661974
11.902737470337287	9994.198645955665
12.021764845040659	4758.52323587664
12.141982493491067	8269.841282947886
12.263402318425978	5089.479063143581
12.386036341610238	6250.843614558971
12.509896705026339	8520.598929611475
12.634995672076604	7774.9622097868205
12.76134562879737	7640.499047054807
12.888959085085343	7269.104764313992
13.017848675936195	8007.419814458149
13.14802716269556	7318.325159736747
13.279507434322513	8338.430224485492
13.41230250866574	7666.669542281181
13.546425533752396	8355.798730176979
13.68188978908992	9169.647689979729
13.818708686980822	8288.557599434125
13.95689577385063	9215.688013531339
14.096464731589135	8281.915323241472
14.237429378905027	8909.31243598416
14.379803672694079	8663.61909231888
14.523601709421019	8252.958239051626
14.668837726515228	9129.57798907151
14.81552610378038	8801.685411135371
14.963681364818186	8297.59573650537
15.113318178466368	8412.701436914616
15.26445136025103	8591.867055464872
15.41709587385354	7613.359135993637
15.571266832592077	7785.604396070375
15.726979500917999	7139.157929149183
15.884249295927178	6417.651644144525
16.04309178888645	6976.618637217426
16.203522706775317	6853.545075713436
16.365557933843068	7396.138886514236
16.5292135131815	7450.473498229736
16.694505648313314	7168.867733837065
16.861450704796447	6749.959544823237
17.03006521184441	7162.971494580583
17.20036586396286	6713.068723443906
17.372369522602487	6644.075127775886
17.54609321782851	6347.837244122839
17.721554150006796	6780.621638595678
17.898769691506864	6908.574376895108
18.077757388421933	6268.52586757743
18.25853496230615	6107.084408205548
18.441120311929215	6650.428291192794
18.625531515048504	6259.618414568274
18.81178683019899	6345.311365518132
18.99990469850098	5889.196599978624
19.18990374548599	5992.334084856774
19.38180278294085	5498.921846110482
19.57562081077026	5833.333654707477
19.771377018877963	5450.5884296525
19.96909078906674	5366.234020671882
20.16878169695741	6167.302154367604
20.370469513926984	5482.0329246935435
20.574174209066253	5288.809264462469
20.779915951156916	5592.450460313041
20.987715110668486	5304.968103970353
21.19759226177517	4691.669883680248
21.40956818439292	4940.984583927453
21.623663866236853	4931.508166414058
21.83990050489922	4337.391886727103
22.058299509948213	4541.52541257088
22.278882505047697	4934.082694240843
22.501671330098173	4360.577985280294
22.726688043399154	4478.58674959002
22.953954923833145	4138.704839621136
23.183494473071477	4315.354218434838
23.41532941780219	4322.943695620952
23.649482711980216	3910.3907836082144
23.88597753910002	3545.192011193669
24.124837314491018	4069.2568374756383
24.36608568763593	4240.217545512195
24.609746544512287	4077.5392320308724
24.855844009957412	3732.2382891841303
25.104402450056988	3222.891310366304
25.355446474557553	3234.29591437225
25.609000939303133	3523.099635935565
25.865090948696164	3243.3607378006677
26.123741858183127	3182.4347392911886
26.384979276764955	3120.814186270891
26.648829069532603	2752.852208375521
26.915317360227935	2869.0588355087643
27.184470533830215	2956.387780336217
27.456315239168514	2993.3092912244706
27.730878391560196	2773.5120475766826
28.008187175475804	2440.048662801442
28.28826904723056	2409.7886627920325
28.571151737702866	2343.7918367655075
28.856863255079894	2416.156926132079
29.145431887630696	2313.9529079439462
29.436886206507	2242.559758124256
29.73125506857207	2185.558505976826
30.028567619257792	2157.014609840319
30.328853295450372	2092.7855375662757
30.632141828404876	1988.969495641187
30.938463246688926	1788.2170285607665
31.24784787915581	1955.6872891203082
31.560326357947375	1896.7963584348715
31.875929621526847	1825.230007272382
32.19468891774212	1798.370004096768
32.51663580691953	1744.7437912265689
32.84180216498873	1643.219020136243
33.170220186638616	1498.50662040351
33.50192238850501	1497.0422945577911
33.836941612390056	1479.2284338138538
34.17531102851396	1401.2646100082543
34.51706413879909	1282.4048694257538
34.86223478018709	1372.2306336856166
35.21085712798896	1322.7241014868343
35.562965699268844	1197.52233590215
35.91859535626154	1039.229442527623
36.27778130982416	1094.4948532615354
36.64055912292239	1161.5480686724852
37.00696471415162	1134.8696772826881
37.377034361293134	1114.4256419406029
37.750804704906066	1083.1555696877172
38.12831275195513	1065.0615101444437
38.50959587947468	1030.1355395966862
38.89469183826943	938.7396062569727
39.283638756652124	727.3974359087847
39.67647514421864	797.792201841784
40.073239895660834	846.2924889792279
40.47397229461744	795.2210860242045
40.878712017563615	762.2693171634222
41.287499137739246	804.2135590154904
41.700374129116646	776.6682739754733
42.117377870407815	660.3609186279643
42.53855164911189	583.7475344494436
42.96393716560301	609.8773466474964
43.39357653725904	665.1730241644461
43.827512302631625	563.0698359853743
44.26578742565795	573.9652824673531
44.70844529991452	577.9028987588946
45.15552975291367	520.2714373637092
45.60708505044281	564.3286425857543
46.06315590094724	428.1387991809416
46.52378745995671	362.87739457166924
46.989025334556274	496.19370564383865
47.45891558790184	501.5637421442433
47.93350474378086	411.6177195512851
48.412839791218666	474.58954081875214
48.89696818913085	444.2722860381733
49.385937871022165	336.6753179902997
