#wavelength	surface flux
0.6450077295303345	25.90969165969313
0.6472567915916443	39.3657938512129
0.6494921445846558	48.01291761467782
0.6517150402069092	50.777910541809916
0.6539263725280762	53.11764477169956
0.6561272740364075	55.39549758715879
0.6583186388015747	57.63102946325783
0.6605015397071838	59.91734263858581
0.6626768708229065	62.56276478613451
0.6648455858230591	65.45073449267585
0.6670085787773132	67.83784653417514
0.6691668033599854	69.61735094116594
0.6713210344314575	71.11484226229138
0.6734722256660461	72.3910356483104
0.6756211519241333	73.44845761074947
0.6777685880661011	74.22299962074048
0.6799154281616211	74.73760189456227
0.6820623278617859	75.08646825245079
0.6842101216316223	75.13098429901285
0.6863595843315125	74.62766475864521
0.688511312007904	73.50674108148546
0.6906660795211792	71.75637571838517
0.6928245425224304	69.47264085151517
0.6949873566627502	67.00503397056937
0.6971551775932312	64.34753243910207
0.6993286609649658	61.22730446289623
0.7015084028244019	57.60750531203518
0.7036949396133423	53.55999606141549
0.7058889269828796	49.318493628241754
0.7080909013748169	44.773683711158306
0.710301399230957	40.11792898795848
0.712520956993103	39.44488389780093
0.7147500514984131	44.55815240975348
0.7169892191886902	45.87827936787654
0.7192389369010925	39.01904381832129
0.7214996814727783	30.24342459063762
0.723771870136261	23.129598552676104
0.7260559797286987	17.48561014646783
0.7283523678779602	12.62387664901669
0.7306615710258484	8.63532642288842
0.7329838871955872	5.5591318395305525
0.7353196740150452	3.395048710836916
0.7376693487167358	1.9483926206894178
0.7400332689285278	1.0485767350941066
0.7424117922782898	0.5270677078526325
0.7448052167892456	0.2440431293203199
0.7472138404846191	0.10101358067012385
0.7496379613876343	0.037315618920845936
0.7520779371261597	0.01198483099723913
0.7545340061187744	0.0032955714040105305
0.7570064663887024	0.0007382441630710901
0.7594954967498779	0.00012257779118633977
0.7620013952255249	1.3656312909399991e-05
0.7645244002342224	9.203546185799715e-07
0.7670646905899048	4.307046151715821e-08
0.7696225643157959	3.392327809929452e-09
0.7721980810165405	3.661752919128871e-10
0.7747915983200073	2.7480195339811804e-11
0.7774031162261963	1.0819632923389117e-12
0.7800329327583313	1.5743008499112085e-14
0.7826811671257019	6.871990101070046e-14
0.7853479981422424	4.860054598263494e-13
0.7880334854125977	1.0821857854545021e-12
0.7907378077507019	9.288146907731782e-13
0.7934610247612	2.9466971524937784e-13
0.7962033748626709	3.860428419009125e-12
0.7989648580551147	1.8396706368423235e-10
0.801745593547821	3.4775367593503146e-09
0.8045456409454346	4.501638540186329e-08
0.8073651194572449	8.327191209824791e-07
0.8102040886878967	1.4266321284915763e-05
0.8130625486373901	0.00018155517443865424
0.8159406185150146	0.001570543022493859
0.8188382983207703	0.00942758733574223
0.8217556476593018	0.04662027352854549
0.8246926665306091	0.1912679905391429
0.8276493549346924	0.6248105597840122
0.8306257724761963	1.6998832337721086
0.8336219191551208	3.86563941661296
0.8366377949714661	7.165031138303886
0.8396733403205872	10.904280643037195
0.8427285552024841	12.893075894153704
0.8458034992218018	10.018467276978608
0.8488980531692505	4.191607775384387
0.8520121574401855	1.6010858851928202
0.8551458716392517	14.310794395934252
0.8582990765571594	81.30816155614795
0.8614717125892639	253.51094695348743
0.8646637797355652	543.0917865720457
0.8678751587867737	921.1135981484342
0.8711057901382446	1371.6306391300056
0.8743556141853333	1895.1123375410657
0.87762451171875	2450.6766184536214
0.8809124231338501	2910.168086769167
0.8842192888259888	2984.7563616232405
0.8875449895858765	2322.4667584987055
0.8908893465995789	1134.053407540246
0.894252359867096	373.3900652975475
0.8976338505744934	990.0921200056374
0.9010337591171265	3534.2239604811803
0.9044519662857056	7375.638309580652
0.9078882932662964	11173.266436837413
0.9113426208496094	14311.25101348554
0.914814829826355	16536.379751377903
0.9183048605918884	18607.080507745664
0.9218124747276306	20915.513187922596
0.925337553024292	21654.06136227206
0.9288799166679382	20577.342836555294
0.9324395060539246	20044.572679393397
0.9360161423683167	22059.260057022428
0.9396095871925354	25999.871622038318
0.943219780921936	29383.9597187902
0.9468464851379395	31384.13725300435
0.9504896402359009	32320.50130085258
0.9541489481925964	32916.45540799953
0.9578243494033813	35429.19829793294
0.9615156054496765	40235.37145034074
0.9652225375175476	44852.27864902353
0.9689450263977051	48457.26841958235
0.9726828336715698	50787.02646629087
0.9764357805252075	51088.16095705495
0.9802037477493286	51165.08311035616
0.983986496925354	51377.236735017395
0.9877838492393494	49866.65586163414
0.9915955662727356	48771.73684328054
0.9954215884208679	51419.39725869271
0.9992615580558777	55696.00113835449
1.0031154155731201	57676.24459030518
1.0069829225540161	56201.07074208467
1.0108637809753418	53470.598129305574
1.0147579908370972	52597.68266968641
1.018665075302124	51910.06005081272
1.022585153579712	48717.802038208625
1.0265177488327026	44066.07886081375
1.0304628610610962	38960.546038576336
1.0344202518463135	33634.36203746346
1.0383895635604858	28405.299862816915
1.0423706769943237	23094.029042108814
1.0463634729385376	17937.36157878288
1.0503677129745483	13254.197454160321
1.0543830394744873	9203.230274582038
1.058409333229065	5974.549689824269
1.0624464750289917	3615.4125967331565
1.0664942264556885	2043.1322347718835
1.0705522298812866	1086.3853157517622
1.0746204853057861	549.7831819000712
1.0786986351013184	274.7714051765819
1.0827864408493042	139.20049386768758
1.086883783340454	69.34458682335621
1.0909905433654785	31.606985312395715
1.0951062440872192	12.784031493982466
1.0992310047149658	4.651321292762958
1.10336434841156	1.5541336983356948
1.1075061559677124	0.4616832243100864
1.1116561889648438	0.11626651084742365
1.115814208984375	0.027416186756402082
1.1199802160263062	0.005834308203996235
1.124153733253479	0.0016335045598028092
1.1283347606658936	0.00096494651256709
1.1325229406356812	0.0010035179479922838
1.1367181539535522	0.0012252908697571298
1.1409201622009277	0.0013908966775992345
1.145128846168518	0.0012679853177378843
1.1493438482284546	0.0009886705694314858
1.1535650491714478	0.0007577661609992091
1.1577922105789185	0.0007278567643382838
1.1620250940322876	0.0011266495781435792
1.1662636995315552	0.0023171566636396453
1.170507550239563	0.004710404168347751
1.174756646156311	0.0076158398569036775
1.1790107488632202	0.009025471609737858
1.1832695007324219	0.008052233711994778
1.1875330209732056	0.005894253003622319
1.191800832748413	0.004024254263698464
1.1960728168487549	0.002990161170146511
1.2003488540649414	0.002743220906024668
1.2046287059783936	0.0033244795642842777
1.2089121341705322	0.005101747349778983
1.2131990194320679	0.008838778126947305
1.2174891233444214	0.015094568440076558
1.2217823266983032	0.022969788582490228
1.2260783910751343	0.030496304521103072
1.230377197265625	0.037329793129213584
1.2346785068511963	0.04893283875295924
1.238982081413269	0.08132404098667734
1.2432878017425537	0.18009175191524765
1.2475954294204712	0.48714191747999597
1.2519049644470215	1.4116949449235647
1.256216049194336	3.919946350776317
1.2605286836624146	9.695006158243947
1.2648425102233887	20.74272445131408
1.2691574096679688	38.26463256864901
1.2734732627868652	61.19371528459221
1.2777899503707886	87.3914119281592
1.2821072340011597	116.61039711188657
1.2864248752593994	150.08538826286338
1.2907428741455078	193.24430898283262
1.2950609922409058	272.1387500748268
1.2993791103363037	422.96566797756395
1.303696870803833	671.2427941624168
1.3080145120620728	1017.0705476386719
1.3123314380645752	1451.1888792777497
1.3166478872299194	2068.450212403356
1.3209635019302368	2839.356800537154
1.3252781629562378	3514.878762807992
1.3295916318893433	3978.49321056943
1.3339040279388428	3977.5534501295097
1.3382149934768677	3650.58625687917
1.3425244092941284	3488.296463450417
1.3468321561813354	3014.1105556926163
1.3511382341384888	2128.2412114459485
1.3554422855377197	1567.3345312331858
1.3597444295883179	1453.9079967652297
1.3640443086624146	1654.3156823905208
1.3683418035507202	2259.7368457022835
1.3726370334625244	3401.1325134790973
1.3769296407699585	3910.789115167797
1.381219506263733	3183.946387057382
1.3855066299438477	3069.8408672054275
1.3897908926010132	3789.359985994391
1.3940720558166504	3715.718540926384
1.3983501195907593	3176.769080195341
1.4026249647140503	2985.635936142225
1.4068963527679443	3169.6990683701056
1.4111642837524414	3680.002126536724
1.4154287576675415	3696.5262548778637
1.419689416885376	3229.3143136191197
1.4239463806152344	3071.6706750115954
1.4281994104385376	3072.846185113393
1.4324485063552856	2981.7174409961667
1.436693549156189	2784.2269594138443
1.440934419631958	2586.0256906146133
1.4451709985733032	2494.692528114238
1.449403166770935	2434.741648959199
1.453631043434143	2366.3752204880534
1.4578542709350586	2226.6325812868195
1.4620729684829712	1997.6870365449138
1.4662868976593018	1706.377875331366
1.4704961776733398	1452.8780284532197
1.4747005701065063	1328.0240815724953
1.4788999557495117	1208.5440443529953
1.4830944538116455	1031.8069466435995
1.4872838258743286	902.0287961324635
1.491468071937561	788.3639605563253
1.4956470727920532	708.752598415626
1.4998208284378052	677.0280699455967
1.5039892196655273	614.0346577518735
1.5081522464752197	542.6166013685589
1.5123097896575928	473.7354742170472
1.5164618492126465	416.34695156521843
1.5206083059310913	375.91173635897985
1.5247491598129272	324.9626289675759
1.5288842916488647	275.9515700742282
1.5330137014389038	242.14743489328438
1.5371372699737549	219.52850745789056
1.541254997253418	199.52732751113203
1.545366883277893	180.92844439107415
1.5494728088378906	166.17741980816677
1.5535727739334106	153.36768835614558
1.5576666593551636	140.89341000079256
1.561754584312439	128.98289360085835
1.5658363103866577	117.77215513482498
1.5699119567871094	107.69967650818465
1.5739814043045044	98.75525667655776
1.5780447721481323	90.71090319637135
1.582101821899414	83.35770559234982
1.5861525535583496	76.5953012553555
1.5901970863342285	70.33784272318574
1.5942351818084717	64.48287187434711
1.5982669591903687	58.96901025300874
1.6022924184799194	53.6993736170596
1.606311559677124	48.38841846841054
1.6103241443634033	41.28806377783397
1.6143304109573364	28.126165250642405
1.6183301210403442	11.442441330778648
1.6223233938217163	1.8491712016027977
1.6263102293014526	0.09085821225820255
1.6302905082702637	0.01609022463505258
1.634264349937439	0.00810269041841876
1.638231635093689	0.12488851340658917
1.6421923637390137	0.445001457578204
1.646146535873413	0.630677566293995
1.6500942707061768	0.7910975492700418
1.6540353298187256	1.0349934439352197
1.6579699516296387	0.9194429455191963
1.661897897720337	0.47314124849542893
1.6658192873001099	0.10819082547251814
1.6697341203689575	0.0208059014430234
1.6736423969268799	0.07470180142921104
1.677544116973877	0.11235771551045927
1.6814392805099487	0.055657358562377586
1.6853278875350952	0.004884723628705843
1.6892099380493164	0.0001827447606090623
1.6930854320526123	0.00022051612098063147
1.696954369544983	0.0003695984637555253
1.7008168697357178	0.00020387598275861576
1.7046726942062378	1.999215199493145e-05
1.708522081375122	3.6026191838646074e-05
1.712364912033081	0.00037358200862153146
1.7162011861801147	0.0008173782780004016
1.7200311422348022	0.000568908420227944
1.723854422569275	8.94787926198869e-05
1.7276713848114014	3.0058828473309736e-09
1.731481909751892	1.728394945899216e-05
1.7352858781814575	9.035368131194865e-05
1.7390835285186768	0.0001406568320142993
1.7428747415542603	0.00018464177488890454
1.7466596364974976	0.0008718800776000913
1.7504380941390991	0.0176468839180406
1.7542102336883545	0.08201695304676465
1.7579760551452637	0.11336447372113537
1.7617355585098267	0.05170617643135463
1.7654887437820435	0.003990060439235698
1.7692357301712036	0.0010010934555996448
1.7729763984680176	0.0008202629115641646
1.776710867881775	0.0013622986423574856
1.7804391384124756	0.0021929091302849294
1.7841613292694092	0.0013028265556520745
1.7878772020339966	0.0002660876311432822
1.7915871143341064	0.0025588389050844053
1.7952908277511597	0.019695737215701337
1.7989884614944458	0.061106195389668244
1.8026801347732544	0.08556105943442671
1.806365728378296	0.0670614451647052
1.8100452423095703	0.04238325652857551
1.8137187957763672	0.04357378422697009
1.817386507987976	0.12803129024179563
1.8210482597351074	0.27393659210925564
1.8247040510177612	0.34585941534110953
1.828354001045227	0.33147727855612213
1.8319982290267944	0.3016559041098933
1.8356364965438843	0.27129362693063297
1.8392690420150757	0.24310205201372917
1.8428958654403687	0.22108047314670645
1.8465168476104736	0.200486752607336
1.8501322269439697	0.18001786139590503
1.8537418842315674	0.16065136660496185
1.8573459386825562	0.141522863383444
1.860944390296936	0.1251011952326304
1.864537239074707	0.11185801705044478
1.8681244850158691	0.09935948651018772
1.871706247329712	0.08749118590112193
1.8752825260162354	0.07771115332405606
1.8788533210754395	0.06969585051201725
1.8824186325073242	0.06213176002961937
1.8859784603118896	0.05492256254253595
1.8895330429077148	0.04859518260735769
1.8930821418762207	0.043104855488713456
1.8966259956359863	0.03817719708400878
1.9001644849777222	0.03353255687301339
1.9036977291107178	0.029538073133009587
1.9072256088256836	0.026437049843075763
1.9107483625411987	0.023809593362717915
1.9142658710479736	0.02135319852186963
1.9177782535552979	0.01921036935611961
1.9212853908538818	0.01735929614958659
1.9247875213623047	0.01575945404147825
1.9282845258712769	0.014437893107080291
1.9317764043807983	0.013225852880508699
1.9352631568908691	0.012068510820769707
1.9387450218200684	0.011068945217771744
1.942221760749817	0.010225817406060817
1.9456936120986938	0.009447411384931544
1.9491604566574097	0.008716537012000862
1.952622413635254	0.008045264023235962
1.956079363822937	0.00741562458134005
1.959531545639038	0.0068098418843364275
1.962978720664978	0.006228768670885491
1.966421127319336	0.005675273257231583
1.9698586463928223	0.005144248544662331
1.9732913970947266	0.004636856090873544
1.9767193794250488	0.004155078007697498
1.9801424741744995	0.0036992096448755537
1.9835609197616577	0.003275713717037614
1.9869745969772339	0.0028876329595012963
1.990383505821228	0.002535284295381313
1.9937876462936401	0.0022221421755287485
1.9971871376037598	0.001946684361801785
2.000581979751587	0.0017023680997592615
2.003972291946411	0.0014865012494281746
2.007357597351074	0.0012992161262873978
2.0107386112213135	0.0011372063761008304
2.0141148567199707	0.000995231330542799
2.017486572265625	0.0008714507548736789
2.0208535194396973	0.0007644862771581953
2.0242159366607666	0.0006708734590678193
2.027573823928833	0.000588276339517405
2.0309269428253174	0.0005152048966749096
2.034275770187378	0.0004494278458488209
2.0376198291778564	0.00038956869471835703
2.040959596633911	0.00033522930308055364
2.044294595718384	0.0002860878756141488
2.0476250648498535	0.0002418735848777095
2.0509510040283203	0.0002023718682695467
2.054272413253784	0.00016746172767443938
2.057589530944824	0.00013701761251707655
2.0609018802642822	0.00011086757139616922
2.0642096996307373	8.877635320206862e-05
2.0675129890441895	7.043051409335671e-05
2.0708119869232178	5.5453154118256926e-05
2.074106216430664	4.342430739721243e-05
2.0773961544036865	3.391630891212311e-05
2.080681324005127	2.6510642693741425e-05
2.0839622020721436	2.0828688754197384e-05
2.087238311767578	1.6532233935220513e-05
2.090510129928589	1.3331477791450465e-05
2.0937774181365967	1.0992282471971909e-05
2.0970399379730225	9.330827753671096e-06
2.1002981662750244	8.211688206674865e-06
2.1035518646240234	7.537435258034064e-06
2.1068007946014404	7.240866745640063e-06
2.1100454330444336	7.292941001655386e-06
2.1132853031158447	7.711059350477594e-06
2.116520881652832	8.546844080020667e-06
2.1197516918182373	9.874478265936842e-06
2.1229779720306396	1.1797556192641811e-05
2.12619948387146	1.4470753236019161e-05
2.1294167041778564	1.810936248998443e-05
2.132629156112671	2.2954638932861203e-05
2.1358368396759033	2.89920551719851e-05
2.139039993286133	3.41066475262537e-05
2.1422386169433594	3.668838822588188e-05
2.145432472229004	3.797251018881015e-05
2.1486217975616455	3.8155352249343887e-05
2.151806354522705	3.906786036049158e-05
2.1549863815307617	3.966693210426141e-05
2.1581614017486572	4.215188758746351e-05
2.16133189201355	4.800596431344733e-05
2.1644976139068604	5.084218864021475e-05
2.167658567428589	5.1289467821575013e-05
2.1708147525787354	5.390463384188224e-05
2.173966407775879	6.366185619339916e-05
2.1771130561828613	7.275666664994894e-05
2.1802549362182617	7.64974668417531e-05
2.183391809463501	7.841467515224028e-05
2.1865241527557373	7.778829768194796e-05
2.1896514892578125	8.501750035544557e-05
2.1927738189697266	9.433411502429e-05
2.1958916187286377	7.025790179541964e-05
2.1990041732788086	2.6073452145782995e-05
2.2021119594573975	5.396277975112202e-06
2.2052149772644043	1.1548931848850037e-05
2.208312749862671	2.964259993855144e-05
2.2114057540893555	3.920573371152243e-05
2.214493751525879	2.9202121687700206e-05
2.217576742172241	1.2582305266917126e-05
2.2206547260284424	4.5220682701372945e-06
2.2237277030944824	1.7916656451187855e-06
2.2267956733703613	6.846792517231994e-07
2.2298583984375	1.121881998883556e-06
2.2329163551330566	7.71512708469737e-07
2.235969066619873	1.6850809230461317e-07
2.2390167713165283	9.12654053951998e-08
2.2420592308044434	6.503883467489388e-08
2.2450966835021973	3.461376104248553e-08
2.248128890991211	4.266704508430227e-08
2.2511560916900635	2.8589199675005796e-08
2.254178285598755	1.6163223595050848e-07
2.257194995880127	7.724851259261006e-07
2.260206699371338	1.0566238785531733e-06
2.2632133960723877	5.139957775590703e-07
2.266214609146118	6.103885230057041e-07
2.2692108154296875	2.786856443342247e-06
2.2722020149230957	5.450638789523592e-06
2.2751877307891846	5.02374220543424e-06
2.278168201446533	2.1454462270986555e-06
2.2811436653137207	4.202556771087863e-07
2.284113883972168	1.161834161412022e-07
2.287078857421875	3.209283973763517e-08
2.290038824081421	1.4379268661249246e-08
2.2929933071136475	1.389434022545742e-09
2.295942783355713	3.817350706938247e-10
2.298887014389038	3.375817598719851e-10
2.301826238632202	2.2213255858809406e-10
2.304760217666626	4.889351630105197e-09
2.3076889514923096	9.811545611097747e-07
2.310612440109253	1.072943105507811e-05
2.3135311603546143	2.6759191837595874e-05
2.3164443969726562	2.2641186587886176e-05
2.319352865219116	5.716189560865126e-06
2.322256088256836	1.3351871917403854e-07
2.3251543045043945	1.1093344539927568e-07
2.328047275543213	6.725586907077693e-08
2.330935478210449	1.2661159006676689e-08
2.3338186740875244	2.0871431225240272e-09
2.3366971015930176	1.3172952047817443e-09
2.3395702838897705	2.199028836682965e-09
2.3424389362335205	3.297238587177558e-09
2.3453025817871094	2.240160770531068e-09
2.348161458969116	7.159367944304753e-10
2.351015567779541	5.825655455472566e-10
2.353865146636963	1.200900357401806e-08
2.3567099571228027	1.4586910993276578e-07
2.3595502376556396	4.425257315428112e-07
2.3623859882354736	5.544987051867212e-07
2.3652172088623047	3.1621588518397064e-07
2.368043899536133	7.236057744469366e-08
2.370866537094116	2.769352182943121e-09
2.3736846446990967	8.516892301962129e-08
2.3764986991882324	4.937338450929859e-07
2.3793084621429443	8.975390389890441e-07
2.3821144104003906	8.349737604082174e-07
2.384916305541992	4.968054735192532e-07
2.387714147567749	1.926943621964699e-07
2.3905084133148193	1.1068907907968857e-07
2.393299102783203	1.3566001312416257e-07
2.3960859775543213	1.1875371251681053e-07
2.398869514465332	8.331054403079565e-08
2.4016497135162354	4.1007275572684696e-08
2.4044265747070312	3.570572005789772e-08
2.407200336456299	2.5392901013184513e-07
2.409970998764038	1.0902344867461434e-06
