#wavelength	surface flux
0.6450077295303345	277133.729126506
0.6472567915916443	427146.3532924727
0.6494921445846558	535899.8696144903
0.6517150402069092	587835.8544411929
0.6539263725280762	638616.0638929043
0.6561272740364075	691572.9796354353
0.6583186388015747	746723.773956619
0.6605015397071838	803890.6020018985
0.6626768708229065	861599.415332132
0.6648455858230591	914565.7545940621
0.6670085787773132	926067.4842973595
0.6691668033599854	820151.1591882511
0.6713210344314575	744821.1197538009
0.6734722256660461	932045.8634788549
0.6756211519241333	1192278.1676971752
0.6777685880661011	1333470.1064108836
0.6799154281616211	1427672.1263408854
0.6820623278617859	1514450.6079079197
0.6842101216316223	1599409.2587637207
0.6863595843315125	1679464.4267617231
0.688511312007904	1749672.4679046355
0.6906660795211792	1821191.9340130836
0.6928245425224304	1904661.5460404817
0.6949873566627502	1997169.5030215913
0.6971551775932312	2089594.9481966188
0.6993286609649658	2171914.1933120033
0.7015084028244019	2245978.696423147
0.7036949396133423	2316722.1787182996
0.7058889269828796	2383872.604383574
0.7080909013748169	2445817.69454122
0.710301399230957	2501103.4902315396
0.712520956993103	2545455.8811557237
0.7147500514984131	2563337.8950177752
0.7169892191886902	2557209.6525722216
0.7192389369010925	2569379.1659705658
0.7214996814727783	2597322.3967031967
0.723771870136261	2601733.0592712285
0.7260559797286987	2584826.033042831
0.7283523678779602	2554876.159578899
0.7306615710258484	2509104.2751833475
0.7329838871955872	2457641.05706925
0.7353196740150452	2395599.344662106
0.7376693487167358	2312619.427452329
0.7400332689285278	2214854.2784184837
0.7424117922782898	2102151.3690446788
0.7448052167892456	1972865.265488461
0.7472138404846191	1828055.055676743
0.7496379613876343	1668525.1909625863
0.7520779371261597	1495593.392480902
0.7545340061187744	1310960.8122315672
0.7570064663887024	1115331.0445667054
0.7594954967498779	906918.4314168278
0.7620013952255249	675443.8005827636
0.7645244002342224	424534.30602648173
0.7670646905899048	244398.37845972864
0.7696225643157959	238795.9187866737
0.7721980810165405	422701.36790653697
0.7747915983200073	660173.9450479591
0.7774031162261963	673476.014198076
0.7800329327583313	573944.1261153163
0.7826811671257019	938326.6637060203
0.7853479981422424	1697856.2960390581
0.7880334854125977	2268725.030426435
0.7907378077507019	2286422.592802157
0.7934610247612	1710691.3346388964
0.7962033748626709	1717300.5859510978
0.7989648580551147	3044542.0359832174
0.801745593547821	4521018.545629665
0.8045456409454346	5457245.940136549
0.8073651194572449	6133560.758237944
0.8102040886878967	6698596.07716498
0.8130625486373901	7256325.975085888
0.8159406185150146	7896307.364463304
0.8188382983207703	8589102.563997427
0.8217556476593018	9346424.579628563
0.8246926665306091	10243068.865911534
0.8276493549346924	11178255.768128157
0.8306257724761963	12038946.034709346
0.8336219191551208	12901207.455818491
0.8366377949714661	13816366.206525171
0.8396733403205872	14776411.606032455
0.8427285552024841	15769721.325311996
0.8458034992218018	16472793.418955289
0.8488980531692505	15425486.025674023
0.8520121574401855	13511941.458598573
0.8551458716392517	15621288.742739175
0.8582990765571594	19853689.826540165
0.8614717125892639	20761070.545546863
0.8646637797355652	20002867.134868443
0.8678751587867737	20640666.926495455
0.8711057901382446	22261533.675134677
0.8743556141853333	24827409.01558814
0.87762451171875	27820326.0385663
0.8809124231338501	28958259.68715888
0.8842192888259888	29450744.39809203
0.8875449895858765	30911731.59337083
0.8908893465995789	29382899.710134994
0.894252359867096	25579695.99385226
0.8976338505744934	28530635.59830966
0.9010337591171265	35298372.99440109
0.9044519662857056	38774475.51029701
0.9078882932662964	40575349.01893737
0.9113426208496094	42070069.396809146
0.914814829826355	43535994.43228065
0.9183048605918884	44994217.89660447
0.9218124747276306	45259040.87651562
0.925337553024292	40560821.41809255
0.9288799166679382	31596848.811107732
0.9324395060539246	27934193.691942696
0.9360161423683167	33051059.83349117
0.9396095871925354	40310659.99431176
0.943219780921936	43200721.93256931
0.9468464851379395	42453445.538865305
0.9504896402359009	42836254.55181968
0.9541489481925964	43683355.076205865
0.9578243494033813	43338210.077047855
0.9615156054496765	43504626.408991255
0.9652225375175476	47099950.721423745
0.9689450263977051	53069230.24980303
0.9726828336715698	57792442.003899574
0.9764357805252075	61882462.75444391
0.9802037477493286	66167036.1410312
0.983986496925354	70225805.22486593
0.9877838492393494	74038022.41463879
0.9915955662727356	76723957.09393045
0.9954215884208679	79921848.9755941
0.9992615580558777	84508480.00441945
1.0031154155731201	88401953.02425513
1.0069829225540161	91557079.91982263
1.0108637809753418	94803242.66925067
1.0147579908370972	97583647.63898462
1.018665075302124	99643470.95309433
1.022585153579712	101865062.97457698
1.0265177488327026	105028399.84809336
1.0304628610610962	108048558.98576735
1.0344202518463135	110216581.21045111
1.0383895635604858	112041879.71282534
1.0423706769943237	112997648.84180154
1.0463634729385376	113228627.97154097
1.0503677129745483	112826255.78284292
1.0543830394744873	112530745.00056063
1.058409333229065	114046303.40966308
1.0624464750289917	117645170.13207836
1.0664942264556885	121223717.10261668
1.0705522298812866	123264139.41514148
1.0746204853057861	124392628.40982835
1.0786986351013184	125551091.93591675
1.0827864408493042	127101359.230272
1.086883783340454	131921391.13200745
1.0909905433654785	140641769.17262077
1.0951062440872192	138138574.92496097
1.0992310047149658	118775183.81008458
1.10336434841156	94363679.04604813
1.1075061559677124	71143390.5383584
1.1116561889648438	52453116.84987511
1.115814208984375	42831620.89721393
1.1199802160263062	43502771.923723064
1.124153733253479	53027609.72161187
1.1283347606658936	60260713.8631472
1.1325229406356812	52422931.481579706
1.1367181539535522	47039613.369101785
1.1409201622009277	54333257.15545068
1.145128846168518	61541493.72037104
1.1493438482284546	64120385.30683473
1.1535650491714478	59919874.87060918
1.1577922105789185	55014821.091305904
1.1620250940322876	54465938.92229125
1.1662636995315552	52693316.84014233
1.170507550239563	51210491.565608695
1.174756646156311	53085762.62426878
1.1790107488632202	61410018.05428098
1.1832695007324219	80236488.55343847
1.1875330209732056	99362981.93833941
1.191800832748413	111201485.97369333
1.1960728168487549	121769397.08386613
1.2003488540649414	132316496.99946383
1.2046287059783936	137225868.35340914
1.2089121341705322	138968430.97333255
1.2131990194320679	144086237.18284738
1.2174891233444214	149519994.7827361
1.2217823266983032	153038732.150291
1.2260783910751343	158076978.33467674
1.230377197265625	165347500.55893743
1.2346785068511963	171845081.30854076
1.238982081413269	169977123.86094213
1.2432878017425537	162575377.67105615
1.2475954294204712	158757097.10661733
1.2519049644470215	157126859.55614316
1.256216049194336	170302008.73567072
1.2605286836624146	192461689.9426349
1.2648425102233887	204344408.8154211
1.2691574096679688	213400900.2639136
1.2734732627868652	221695460.02357358
1.2777899503707886	226989417.59119484
1.2821072340011597	229573176.1360677
1.2864248752593994	228975332.9769433
1.2907428741455078	226404425.13366476
1.2950609922409058	222174658.93438324
1.2993791103363037	219395419.43794522
1.303696870803833	218859567.26753548
1.3080145120620728	215293241.45868257
1.3123314380645752	210346448.8416632
1.3166478872299194	205645322.3164698
1.3209635019302368	191085148.22914022
1.3252781629562378	159840337.03256214
1.3295916318893433	111957645.25910829
1.3339040279388428	56549837.65975018
1.3382149934768677	18128582.360557355
1.3425244092941284	5135342.549081901
1.3468321561813354	3046144.3598209484
1.3511382341384888	2243046.743403355
1.3554422855377197	1589036.44284206
1.3597444295883179	1656576.1170967487
1.3640443086624146	2344420.740378366
1.3683418035507202	2977771.8807881544
1.3726370334625244	3988800.1171516497
1.3769296407699585	5684909.7539693
1.381219506263733	5809005.682519191
1.3855066299438477	4198572.397197138
1.3897908926010132	3071314.42161484
1.3940720558166504	2668310.7237800774
1.3983501195907593	2893844.2874427126
1.4026249647140503	3843121.6331300386
1.4068963527679443	4320806.471372014
1.4111642837524414	3896016.0373761323
1.4154287576675415	3555626.0495264293
1.419689416885376	3333621.4284163862
1.4239463806152344	3599699.8620088026
1.4281994104385376	4895671.836681151
1.4324485063552856	5741720.4661888005
1.436693549156189	5745428.510493719
1.440934419631958	6343478.759273827
1.4451709985733032	7768796.085023542
1.449403166770935	9870916.11533776
1.453631043434143	12377492.06097636
1.4578542709350586	15202028.884474542
1.4620729684829712	16718016.946864542
1.4662868976593018	16412370.746390345
1.4704961776733398	16879935.861981146
1.4747005701065063	18560200.64337769
1.4788999557495117	19943954.374001127
1.4830944538116455	21061974.846546713
1.4872838258743286	22531456.198466368
1.491468071937561	24683576.142756015
1.4956470727920532	27982930.52218346
1.4998208284378052	31930848.680333998
1.5039892196655273	35082807.7986663
1.5081522464752197	37493959.85509941
1.5123097896575928	40917124.25689188
1.5164618492126465	45537802.42502255
1.5206083059310913	50681315.061071016
1.5247491598129272	54989345.907373555
1.5288842916488647	58596836.391106844
1.5330137014389038	62712266.47104643
1.5371372699737549	66513658.83646849
1.541254997253418	70115766.14797024
1.545366883277893	73175427.59347364
1.5494728088378906	74384286.41365433
1.5535727739334106	76683817.62707749
1.5576666593551636	79703681.38970117
1.561754584312439	80381241.26613165
1.5658363103866577	81247098.20967354
1.5699119567871094	84372364.0873297
1.5739814043045044	88659582.6395336
1.5780447721481323	92640927.67859606
1.582101821899414	95227195.22133105
1.5861525535583496	97051646.55092077
1.5901970863342285	96713695.48441306
1.5942351818084717	94859277.45657392
1.5982669591903687	95598125.76534322
1.6022924184799194	97740796.38707618
1.606311559677124	98959422.12550104
1.6103241443634033	98772437.93733117
1.6143304109573364	93924859.18709953
1.6183301210403442	76627567.97391492
1.6223233938217163	51237602.511887796
1.6263102293014526	35394442.46739485
1.6302905082702637	30139345.386229567
1.634264349937439	29043569.873143684
1.638231635093689	36956642.90312488
1.6421923637390137	49165396.162062794
1.646146535873413	50665309.07911877
1.6500942707061768	46289193.767757274
1.6540353298187256	46693757.86811898
1.6579699516296387	52178863.09254828
1.661897897720337	54394983.67136386
1.6658192873001099	39681296.67125254
1.6697341203689575	30289381.37646616
1.6736423969268799	42897628.451039754
1.677544116973877	51496798.00976335
1.6814392805099487	44573580.27067482
1.6853278875350952	34161661.39425253
1.6892099380493164	29027896.97585306
1.6930854320526123	27556198.87704471
1.696954369544983	22716174.19085178
1.7008168697357178	13908363.807637194
1.7046726942062378	10117657.157190029
1.708522081375122	15814262.11337687
1.712364912033081	26557292.725462787
1.7162011861801147	35045918.27110046
1.7200311422348022	33151870.82188318
1.723854422569275	22250396.22094946
1.7276713848114014	13583247.820231183
1.731481909751892	11722955.279464044
1.7352858781814575	13849751.783983653
1.7390835285186768	16783867.315122623
1.7428747415542603	18517906.892218787
1.7466596364974976	18824121.889803994
1.7504380941390991	18771344.863155823
1.7542102336883545	17970239.418359905
1.7579760551452637	16142346.843356676
1.7617355585098267	13958105.624750555
1.7654887437820435	11583089.023329955
1.7692357301712036	9642375.27522585
1.7729763984680176	8270085.351439451
1.776710867881775	8143636.46817085
1.7804391384124756	8828977.670837944
1.7841613292694092	7822315.748432884
1.7878772020339966	6078802.685947958
1.7915871143341064	5142663.9323555315
1.7952908277511597	5504110.502821501
1.7989884614944458	6454406.210144579
1.8026801347732544	5440183.473328546
1.806365728378296	4511929.158266665
1.8100452423095703	5194511.377504266
1.8137187957763672	5580501.812538153
1.817386507987976	5248904.6737875
1.8210482597351074	6707968.373205598
1.8247040510177612	9059668.881456913
1.828354001045227	7631157.387163429
1.8319982290267944	5435397.242891876
1.8356364965438843	5011857.928109758
1.8392690420150757	4748264.278967253
1.8428958654403687	5116952.2340403525
1.8465168476104736	5276550.427538408
1.8501322269439697	5082214.626333224
1.8537418842315674	4905028.078984713
1.8573459386825562	4281367.675067534
1.860944390296936	3686632.518165065
1.864537239074707	3430889.92144026
1.8681244850158691	3275793.778220528
1.871706247329712	3716170.626742716
1.8752825260162354	5303040.854465857
1.8788533210754395	7571511.256921625
1.8824186325073242	9098093.78699761
1.8859784603118896	8991122.794751992
1.8895330429077148	8792470.171706127
1.8930821418762207	10321027.65648044
1.8966259956359863	11350635.756289428
1.9001644849777222	10117311.089909013
1.9036977291107178	9484656.56594215
1.9072256088256836	10140931.715674726
1.9107483625411987	9700699.763176994
1.9142658710479736	9400287.431757867
1.9177782535552979	10514961.582148904
1.9212853908538818	9915961.212350208
1.9247875213623047	7965322.570528656
1.9282845258712769	6815516.889178546
1.9317764043807983	6240676.09688876
1.9352631568908691	6254754.93132137
1.9387450218200684	5888611.713958807
1.942221760749817	5748331.157409551
1.9456936120986938	6314351.12777393
1.9491604566574097	6907576.265401484
1.952622413635254	7129625.982981124
1.956079363822937	6631146.673953291
1.959531545639038	6579462.665618902
1.962978720664978	7259300.73316176
1.966421127319336	8534297.586618783
1.9698586463928223	9222641.726761842
1.9732913970947266	8827590.772155268
1.9767193794250488	9376245.763975186
1.9801424741744995	10414043.894988593
1.9835609197616577	11685436.333042296
1.9869745969772339	12313873.400464196
1.990383505821228	11308013.560994988
1.9937876462936401	12022165.811119784
1.9971871376037598	13391822.98386492
2.000581979751587	14282617.873102643
2.003972291946411	16053930.21375677
2.007357597351074	16662648.136395441
2.0107386112213135	18099350.471110865
2.0141148567199707	20433779.751451727
2.017486572265625	20364522.19476132
2.0208535194396973	21025076.051105626
2.0242159366607666	22596533.055656843
2.027573823928833	22496078.802057706
2.0309269428253174	23442435.512457155
2.034275770187378	25375022.645905655
2.0376198291778564	25641195.387209278
2.040959596633911	25357346.459599834
2.044294595718384	26348617.682902407
2.0476250648498535	27312052.84422923
2.0509510040283203	26978854.094071575
2.054272413253784	27238601.34244164
2.057589530944824	28956900.230073962
2.0609018802642822	29829664.267060287
2.0642096996307373	29607489.47240721
2.0675129890441895	30150309.693225034
2.0708119869232178	30876640.466097973
2.074106216430664	31056242.83711177
2.0773961544036865	31175604.95459906
2.080681324005127	31099452.695696637
2.0839622020721436	31012653.21074737
2.087238311767578	31219200.46551885
2.090510129928589	31653820.825748302
2.0937774181365967	32146126.22941184
2.0970399379730225	32297087.60158557
2.1002981662750244	32090233.73930803
2.1035518646240234	32006894.46039829
2.1068007946014404	32209469.404698372
2.1100454330444336	32260649.17366897
2.1132853031158447	32167545.685157705
2.116520881652832	31835963.820283152
2.1197516918182373	31647316.00119464
2.1229779720306396	32062168.66037726
2.12619948387146	32311864.033763643
2.1294167041778564	32026394.496984024
2.132629156112671	31829765.41793365
2.1358368396759033	31918191.0725503
2.139039993286133	31541666.552522518
2.1422386169433594	30210437.977195006
2.145432472229004	28776453.994826227
2.1486217975616455	27385905.471069712
2.151806354522705	26239664.688221283
2.1549863815307617	26516001.21967076
2.1581614017486572	27281172.78803121
2.16133189201355	27098256.179691542
2.1644976139068604	26964811.32923012
2.167658567428589	27478918.42435259
2.1708147525787354	27906874.98833922
2.173966407775879	28098261.86872802
2.1771130561828613	28160283.14024113
2.1802549362182617	28422070.37260973
2.183391809463501	28624892.77250376
2.1865241527557373	28957334.380764272
2.1896514892578125	29465341.277695857
2.1927738189697266	29128131.07940669
2.1958916187286377	24334821.279797994
2.1990041732788086	14427663.504032208
2.2021119594573975	8543173.905917479
2.2052149772644043	12228954.555358434
2.208312749862671	20111248.173461094
2.2114057540893555	24533509.705706995
2.214493751525879	22625564.80309858
2.217576742172241	16938575.61987345
2.2206547260284424	11996003.452204611
2.2237277030944824	9451774.71450743
2.2267956733703613	7565362.742372593
2.2298583984375	6158173.304563666
2.2329163551330566	5929554.321253296
2.235969066619873	6584904.039544469
2.2390167713165283	6922585.552169331
2.2420592308044434	6253159.737112536
2.2450966835021973	5339952.032632847
2.248128890991211	4793740.673729915
2.2511560916900635	4597119.117900925
2.254178285598755	4632971.609065879
2.257194995880127	5525285.145591493
2.260206699371338	6765264.396274973
2.2632133960723877	7084724.460488095
2.266214609146118	6960552.309640556
2.2692108154296875	7422477.6038892865
2.2722020149230957	8718723.66086688
2.2751877307891846	9321005.240798581
2.278168201446533	9741344.421967406
2.2811436653137207	9703812.481265545
2.284113883972168	7590763.749915522
2.287078857421875	5306562.090233094
2.290038824081421	4176005.565853208
2.2929933071136475	3665226.096978026
2.295942783355713	3373957.271791951
2.298887014389038	3580590.453000653
2.301826238632202	4371220.478817872
2.304760217666626	6098526.889784864
2.3076889514923096	9706407.87269768
2.310612440109253	15350115.379385928
2.3135311603546143	17418064.538779892
2.3164443969726562	10920055.35613881
2.319352865219116	4469890.393965754
2.322256088256836	4783048.585022315
2.3251543045043945	7510318.277656184
2.328047275543213	9040373.086146075
2.330935478210449	7969935.48350581
2.3338186740875244	5447937.75300346
2.3366971015930176	3634155.974796027
2.3395702838897705	3030477.9543317608
2.3424389362335205	3107095.3918874627
2.3453025817871094	2942625.482566605
2.348161458969116	2976939.148989518
2.351015567779541	3552521.554851412
2.353865146636963	4333798.770526909
2.3567099571228027	6286206.710691888
2.3595502376556396	9250317.463165738
2.3623859882354736	10690470.498665804
2.3652172088623047	9613892.598699534
2.368043899536133	6449601.717006724
2.370866537094116	3057533.4733502665
2.3736846446990967	2150935.977038478
2.3764986991882324	3800399.621996038
2.3793084621429443	6469431.622695277
2.3821144104003906	7854872.565638497
2.384916305541992	7739574.096381406
2.387714147567749	8333801.242851316
2.3905084133148193	9425559.424842745
2.393299102783203	8380667.357991186
2.3960859775543213	5375553.404230309
2.398869514465332	3328891.49659686
2.4016497135162354	2990903.7403887133
2.4044265747070312	3424405.08320829
2.407200336456299	4025443.9632831207
2.409970998764038	4565028.863258758
2.4127390384674072	5029367.117229595
2.415503978729248	4638374.217660636
2.418266534805298	3669581.6221773936
2.4210267066955566	3377210.619105283
2.4237842559814453	3168915.2243758934
2.426539897918701	2911039.217845002
2.429293394088745	4122259.1729379655
2.4320452213287354	5760801.932384429
2.4347951412200928	5117375.54139045
2.4375438690185547	4554683.742535833
2.440291166305542	5457887.973040057
2.443037271499634	5257235.209514904
2.445782423019409	4574677.823282489
2.4485268592834473	4834670.083037642
2.451270818710327	4986806.326860219
2.454014539718628	4636533.507233005
2.4567582607269287	4622996.678346571
2.4595019817352295	4963137.607980741
2.4622461795806885	5906768.256733917
2.4649908542633057	6489929.624085521
2.4677364826202393	5463099.633738511
2.4704833030700684	4623394.262927465
2.473231554031372	4796698.286555416
2.4759814739227295	5179153.481746685
2.4787333011627197	5407503.89773318
2.481487512588501	5762919.006174889
2.4842441082000732	7303652.240797457
