#wavelength	surface flux
0.6450077295303345	62691.493438741134
0.6472567915916443	96468.94055725732
0.6494921445846558	120938.89441142828
0.6517150402069092	132333.37755222077
0.6539263725280762	143106.21676092668
0.6561272740364075	154158.19016817483
0.6583186388015747	165778.43572922793
0.6605015397071838	178282.8211377151
0.6626768708229065	191104.0950590903
0.6648455858230591	203131.75179993061
0.6670085787773132	206901.4725008741
0.6691668033599854	185985.54203504583
0.6713210344314575	171065.97587638468
0.6734722256660461	210870.9793238455
0.6756211519241333	264808.3062883267
0.6777685880661011	293191.54087654274
0.6799154281616211	312378.7458791111
0.6820623278617859	330505.32655396516
0.6842101216316223	348481.8890957805
0.6863595843315125	366025.4753748893
0.688511312007904	381379.8529920526
0.6906660795211792	389076.27188916545
0.6928245425224304	393563.53128431103
0.6949873566627502	412716.2034467085
0.6971551775932312	442331.10071443126
0.6993286609649658	463687.3767998811
0.7015084028244019	477919.5876854435
0.7036949396133423	493355.2889442816
0.7058889269828796	511055.1639364979
0.7080909013748169	529025.7480278474
0.710301399230957	545417.4196019956
0.712520956993103	557016.545450893
0.7147500514984131	546932.9721816608
0.7169892191886902	513908.4078411764
0.7192389369010925	508521.94998215855
0.7214996814727783	536546.1282806302
0.723771870136261	548468.8275907063
0.7260559797286987	545918.0893098717
0.7283523678779602	544339.897233521
0.7306615710258484	540622.5922341782
0.7329838871955872	547465.8908325076
0.7353196740150452	556587.0297671738
0.7376693487167358	552859.1974287071
0.7400332689285278	545408.056215268
0.7424117922782898	535337.0120237295
0.7448052167892456	517620.4541370635
0.7472138404846191	491258.5916296876
0.7496379613876343	457199.0650385442
0.7520779371261597	415814.41962890764
0.7545340061187744	367240.9795929707
0.7570064663887024	311770.01003817475
0.7594954967498779	249833.54463332813
0.7620013952255249	181316.94964395254
0.7645244002342224	110629.36358845454
0.7670646905899048	59780.29289390372
0.7696225643157959	43434.87315661618
0.7721980810165405	42387.977057861324
0.7747915983200073	31399.72470230662
0.7774031162261963	12474.730606372364
0.7800329327583313	2473.063566317796
0.7826811671257019	6246.671706752753
0.7853479981422424	24813.85701775058
0.7880334854125977	44826.96486439485
0.7907378077507019	38582.88258802814
0.7934610247612	15509.672872978608
0.7962033748626709	15828.809430606403
0.7989648580551147	86571.5701416387
0.801745593547821	270440.0024064177
0.8045456409454346	538562.8612209228
0.8073651194572449	796376.0589303721
0.8102040886878967	973025.1720437738
0.8130625486373901	1089215.1221196153
0.8159406185150146	1258432.0777196593
0.8188382983207703	1495782.90075709
0.8217556476593018	1672762.993819636
0.8246926665306091	1856786.2164208195
0.8276493549346924	2085678.2019259748
0.8306257724761963	2242392.152004379
0.8336219191551208	2387059.210033718
0.8366377949714661	2566999.2378722723
0.8396733403205872	2754892.445909023
0.8427285552024841	2886552.712030003
0.8458034992218018	2718393.816780247
0.8488980531692505	1934536.551348283
0.8520121574401855	1127564.5675093883
0.8551458716392517	1616672.2750780866
0.8582990765571594	3054732.5481987223
0.8614717125892639	4101725.856478802
0.8646637797355652	4661631.75480773
0.8678751587867737	5107222.298335013
0.8711057901382446	5492511.39703723
0.8743556141853333	5826159.505258394
0.87762451171875	6122180.429087373
0.8809124231338501	6386545.639252684
0.8842192888259888	6520084.8948575035
0.8875449895858765	6082045.917534392
0.8908893465995789	4394724.020685491
0.894252359867096	2456827.9542168165
0.8976338505744934	2720107.6268526376
0.9010337591171265	4848337.320264448
0.9044519662857056	6569365.6117693465
0.9078882932662964	7056213.582146912
0.9113426208496094	6896970.918721228
0.914814829826355	6749856.333419712
0.9183048605918884	6883660.182279574
0.9218124747276306	6992014.733887455
0.925337553024292	5559741.582263878
0.9288799166679382	2697264.999274964
0.9324395060539246	976440.4376122962
0.9360161423683167	1343371.043440338
0.9396095871925354	2475251.341311999
0.943219780921936	2705579.162788753
0.9468464851379395	2098649.556453801
0.9504896402359009	1877750.5333924643
0.9541489481925964	1889886.6498878682
0.9578243494033813	1827678.110545714
0.9615156054496765	2055905.1279786061
0.9652225375175476	2938299.5227418463
0.9689450263977051	4245192.904211946
0.9726828336715698	5160761.166738779
0.9764357805252075	5675458.155859213
0.9802037477493286	6289677.442246659
0.983986496925354	7109033.250608585
0.9877838492393494	8188430.429487268
0.9915955662727356	9329647.525438692
0.9954215884208679	10347762.109140903
0.9992615580558777	11227473.0511049
1.0031154155731201	11839421.656017873
1.0069829225540161	12159091.794460941
1.0108637809753418	12298975.961959234
1.0147579908370972	12357351.307632705
1.018665075302124	12368070.24019454
1.022585153579712	12386315.12535467
1.0265177488327026	12360000.700071039
1.0304628610610962	12275431.031625442
1.0344202518463135	12391335.339960823
1.0383895635604858	12529203.619293924
1.0423706769943237	12359973.912762452
1.0463634729385376	12084309.397909552
1.0503677129745483	11906742.738722455
1.0543830394744873	11801682.859745145
1.058409333229065	11619934.863827663
1.0624464750289917	11298201.464470007
1.0664942264556885	10920065.483170498
1.0705522298812866	10583213.817744922
1.0746204853057861	10316447.519787587
1.0786986351013184	10042713.287131857
1.0827864408493042	9690536.368390366
1.086883783340454	9055868.643255621
1.0909905433654785	7937002.9973763395
1.0951062440872192	6448235.668945223
1.0992310047149658	4748587.181134266
1.10336434841156	3035084.6878831415
1.1075061559677124	1662112.9657574703
1.1116561889648438	769167.0613978696
1.115814208984375	335170.6141439969
1.1199802160263062	299823.8807675117
1.124153733253479	545773.9296679812
1.1283347606658936	777426.080128888
1.1325229406356812	774511.8972682208
1.1367181539535522	986127.2012613623
1.1409201622009277	1302820.6808118182
1.145128846168518	1142882.7472620914
1.1493438482284546	875880.9914938308
1.1535650491714478	773451.187910544
1.1577922105789185	766058.089153039
1.1620250940322876	938288.648904267
1.1662636995315552	1238217.4345027856
1.170507550239563	1732617.048281035
1.174756646156311	2424768.9223905965
1.1790107488632202	3245739.487111504
1.1832695007324219	4179841.412700211
1.1875330209732056	5122054.481094778
1.191800832748413	6252782.737688056
1.1960728168487549	7653457.673657041
1.2003488540649414	8724183.774625316
1.2046287059783936	8834364.655301262
1.2089121341705322	8730520.730644802
1.2131990194320679	9263601.06966921
1.2174891233444214	10097396.910035918
1.2217823266983032	10930990.993876355
1.2260783910751343	11765736.915143894
1.230377197265625	12619095.365913095
1.2346785068511963	13352663.350804472
1.238982081413269	13975612.227432908
1.2432878017425537	14590450.447164975
1.2475954294204712	15135354.31679893
1.2519049644470215	15843825.654420577
1.256216049194336	16997653.7179588
1.2605286836624146	18210158.024257444
1.2648425102233887	19005320.188009534
1.2691574096679688	19479055.44211849
1.2734732627868652	19944714.118579216
1.2777899503707886	20420425.731635753
1.2821072340011597	20337691.85220796
1.2864248752593994	19689349.5426869
1.2907428741455078	18806633.221562296
1.2950609922409058	17531063.08391507
1.2993791103363037	16613842.473247312
1.303696870803833	16615577.90300247
1.3080145120620728	16632934.804836653
1.3123314380645752	16052766.802685605
1.3166478872299194	14996358.17987747
1.3209635019302368	12877164.3753252
1.3252781629562378	9948866.008721069
1.3295916318893433	6481914.680351149
1.3339040279388428	2800321.541623821
1.3382149934768677	667459.3343203894
1.3425244092941284	102733.15253421722
1.3468321561813354	14002.341923837188
1.3511382341384888	6410.859856442809
1.3554422855377197	2522.5646378354695
1.3597444295883179	1386.1649603212725
1.3640443086624146	1887.6829053748318
1.3683418035507202	2546.204976433577
1.3726370334625244	7440.601365607888
1.3769296407699585	20493.363833235675
1.381219506263733	23352.46281647423
1.3855066299438477	10800.519596334316
1.3897908926010132	3992.5337536064826
1.3940720558166504	5196.311042787674
1.3983501195907593	8839.727102726396
1.4026249647140503	13917.53707484545
1.4068963527679443	15065.473466807105
1.4111642837524414	13990.037808218065
1.4154287576675415	14915.586404054491
1.419689416885376	12754.978820813745
1.4239463806152344	23943.950169655865
1.4281994104385376	73052.55097997206
1.4324485063552856	96829.27040499054
1.436693549156189	67447.94511648908
1.440934419631958	67076.88579579456
1.4451709985733032	127030.04154929004
1.449403166770935	236627.3785186078
1.453631043434143	385857.7058401493
1.4578542709350586	585746.1551166574
1.4620729684829712	676912.5240470719
1.4662868976593018	558846.1628583205
1.4704961776733398	463636.83972485416
1.4747005701065063	546711.0264217549
1.4788999557495117	660544.2373335738
1.4830944538116455	719821.2214608603
1.4872838258743286	881721.2408607296
1.491468071937561	1259410.1224653032
1.4956470727920532	1668789.4226479384
1.4998208284378052	2050213.7701009451
1.5039892196655273	2473759.314161311
1.5081522464752197	2929083.4930893662
1.5123097896575928	3449369.667316462
1.5164618492126465	4052666.6150638103
1.5206083059310913	4933068.205211751
1.5247491598129272	5833085.771303623
1.5288842916488647	6439088.279168226
1.5330137014389038	7169471.402489994
1.5371372699737549	7881896.593780292
1.541254997253418	8286002.448109905
1.545366883277893	8654188.62735473
1.5494728088378906	9001335.317213826
1.5535727739334106	9443025.502887744
1.5576666593551636	9873432.956789847
1.561754584312439	10209531.835890887
1.5658363103866577	10393060.171151415
1.5699119567871094	10494311.35986812
1.5739814043045044	10840252.027793642
1.5780447721481323	11135592.155827606
1.582101821899414	11048010.420926012
1.5861525535583496	10772534.731229212
1.5901970863342285	10553302.888661468
1.5942351818084717	10454475.619729146
1.5982669591903687	10557698.437217662
1.6022924184799194	10596166.956305215
1.606311559677124	10285354.36283142
1.6103241443634033	9642003.93638875
1.6143304109573364	7893510.0167659065
1.6183301210403442	4475197.388771882
1.6223233938217163	1516487.7260278196
1.6263102293014526	482673.9778491593
1.6302905082702637	265528.19149695267
1.634264349937439	216040.13779480802
1.638231635093689	658539.6432659116
1.6421923637390137	1477263.0321925073
1.646146535873413	1531425.7095431588
1.6500942707061768	1244738.5291580656
1.6540353298187256	1451178.0992058918
1.6579699516296387	1654115.6420382827
1.661897897720337	1543654.3062379498
1.6658192873001099	949062.8440679817
1.6697341203689575	397722.75016987545
1.6736423969268799	600561.3864411876
1.677544116973877	1032585.0400133542
1.6814392805099487	811520.8434105759
1.6853278875350952	294936.9868280279
1.6892099380493164	97885.7062726359
1.6930854320526123	96904.58516645675
1.696954369544983	82132.51657489069
1.7008168697357178	34522.30318970607
1.7046726942062378	9605.01833136982
1.708522081375122	36686.3127066581
1.712364912033081	181979.2536791186
1.7162011861801147	344230.0556944441
1.7200311422348022	256942.6078189115
1.723854422569275	72233.0295440504
1.7276713848114014	15568.29816769884
1.731481909751892	16190.821598969227
1.7352858781814575	29521.260260828192
1.7390835285186768	53312.81993581303
1.7428747415542603	88882.63223369996
1.7466596364974976	146016.01748907188
1.7504380941390991	218703.97387498885
1.7542102336883545	290669.9784800757
1.7579760551452637	293782.5667033691
1.7617355585098267	186357.96330246178
1.7654887437820435	92306.47611869896
1.7692357301712036	65561.17785866499
1.7729763984680176	47979.51745162267
1.776710867881775	62926.2701751362
1.7804391384124756	109191.97877885436
1.7841613292694092	99117.77072752216
1.7878772020339966	48576.74491327912
1.7915871143341064	26944.014650138117
1.7952908277511597	51967.998987433966
1.7989884614944458	88937.90982760975
1.8026801347732544	63294.100936965544
1.806365728378296	24701.848994506734
1.8100452423095703	20530.561040329714
1.8137187957763672	19226.905996625035
1.817386507987976	35540.9009920278
1.8210482597351074	126704.87098434268
1.8247040510177612	217362.72078919617
1.828354001045227	151101.17401884514
1.8319982290267944	52849.487836561624
1.8356364965438843	31866.448019201172
1.8392690420150757	29372.919484889575
1.8428958654403687	50574.83899669786
1.8465168476104736	70270.53072736427
1.8501322269439697	74019.52866732844
1.8537418842315674	69054.99395433186
1.8573459386825562	51878.33034591843
1.860944390296936	36191.0344033805
1.864537239074707	24671.09701890423
1.8681244850158691	16130.987044394087
1.871706247329712	22043.459181660848
1.8752825260162354	53796.74328695287
1.8788533210754395	115260.12079529061
1.8824186325073242	168088.33026878297
1.8859784603118896	159575.2430524323
1.8895330429077148	134907.4294494677
1.8930821418762207	159027.00352469616
1.8966259956359863	173580.0340025153
1.9001644849777222	117299.8360818714
1.9036977291107178	92403.45591668038
1.9072256088256836	142165.93877520258
1.9107483625411987	128522.40679432223
1.9142658710479736	97407.9660548653
1.9177782535552979	155886.29787654517
1.9212853908538818	167499.22603978083
1.9247875213623047	106927.7795273756
1.9282845258712769	70702.0810711433
1.9317764043807983	60666.9055665372
1.9352631568908691	72244.87021769343
1.9387450218200684	80152.29815512076
1.942221760749817	80332.31044479596
1.9456936120986938	83463.46479264999
1.9491604566574097	105886.62904594814
1.952622413635254	127723.41725746496
1.956079363822937	113062.53300299075
1.959531545639038	107452.06988120811
1.962978720664978	130355.27662030878
1.966421127319336	198701.8394794
1.9698586463928223	255320.5763540045
1.9732913970947266	258396.62379327373
1.9767193794250488	303105.90514397353
1.9801424741744995	370201.75524539646
1.9835609197616577	449350.0420013555
1.9869745969772339	468691.43653503904
1.990383505821228	414708.73147742136
1.9937876462936401	475388.7308553451
1.9971871376037598	552218.4679708815
2.000581979751587	578432.9476787784
2.003972291946411	632943.0291183168
2.007357597351074	696536.8653646919
2.0107386112213135	780225.2396195083
2.0141148567199707	791975.6300649748
2.017486572265625	741637.2353150039
2.0208535194396973	770686.6130636524
2.0242159366607666	835905.8816338676
2.027573823928833	835870.4907117696
2.0309269428253174	825202.0347282297
2.034275770187378	878940.5512348537
2.0376198291778564	922701.04409221
2.040959596633911	913718.4893259633
2.044294595718384	914416.0019862091
2.0476250648498535	922893.6779226924
2.0509510040283203	905044.1943958394
2.054272413253784	902578.5681798479
2.057589530944824	933924.4830836005
2.0609018802642822	949727.3385265415
2.0642096996307373	941517.0379379572
2.0675129890441895	933958.2656867888
2.0708119869232178	933607.1719719332
2.074106216430664	942050.871224869
2.0773961544036865	945015.2633479912
2.080681324005127	926075.4562968846
2.0839622020721436	914697.6028168624
2.087238311767578	926810.4705089014
2.090510129928589	934293.0145024683
2.0937774181365967	934497.1269751269
2.0970399379730225	930454.5785473757
2.1002981662750244	920611.758617174
2.1035518646240234	913859.5616800839
2.1068007946014404	917485.247168919
2.1100454330444336	924092.382854656
2.1132853031158447	923133.595611939
2.116520881652832	914823.1468003545
2.1197516918182373	909396.7142754365
2.1229779720306396	915986.5422769269
2.12619948387146	921920.3664658117
2.1294167041778564	918974.9581310832
2.132629156112671	917417.3282495823
2.1358368396759033	918841.120495172
2.139039993286133	885728.6462215247
2.1422386169433594	787794.47392585
2.145432472229004	683931.6473175506
2.1486217975616455	588954.6209092267
2.151806354522705	526358.691751102
2.1549863815307617	533511.4532547819
2.1581614017486572	576615.2208388187
2.16133189201355	599502.8401376129
2.1644976139068604	583703.5825375483
2.167658567428589	584762.9550606534
2.1708147525787354	627776.6905900759
2.173966407775879	676556.3599139774
2.1771130561828613	691744.3894772357
2.1802549362182617	697112.9625356551
2.183391809463501	713243.4336413266
2.1865241527557373	761361.8833892152
2.1896514892578125	814177.6737912779
2.1927738189697266	801832.4508289942
2.1958916187286377	607332.1175710771
2.1990041732788086	267730.4935398721
2.2021119594573975	76286.53553104096
2.2052149772644043	146597.61534035738
2.208312749862671	360910.1023696072
2.2114057540893555	508095.63838854764
2.214493751525879	437569.0631232883
2.217576742172241	250879.84704293282
2.2206547260284424	121548.14757221095
2.2237277030944824	62543.7137880516
2.2267956733703613	36022.62768750939
2.2298583984375	30628.27709211673
2.2329163551330566	27434.868692123342
2.235969066619873	28380.18618355971
2.2390167713165283	30004.242694701676
2.2420592308044434	25394.816033965715
2.2450966835021973	20484.530009769453
2.248128890991211	16767.282605108594
2.2511560916900635	13287.197523102395
2.254178285598755	14653.310986661745
2.257194995880127	29213.405811203338
2.260206699371338	45058.936644335205
2.2632133960723877	47239.32114310252
2.266214609146118	43945.891810177476
2.2692108154296875	55448.909389351844
2.2722020149230957	81885.44814686467
2.2751877307891846	85949.112946253
2.278168201446533	76545.22743280615
2.2811436653137207	67369.95682108513
2.284113883972168	42747.156157304744
2.287078857421875	21604.09787300092
2.290038824081421	13829.135054247792
2.2929933071136475	10303.694742575286
2.295942783355713	8017.727392517694
2.298887014389038	8132.075573474755
2.301826238632202	10433.77046928476
2.304760217666626	19499.126929555725
2.3076889514923096	84942.79611824355
2.310612440109253	276242.14953097125
2.3135311603546143	419534.7807894996
2.3164443969726562	277703.01323797257
2.319352865219116	68675.13827917576
2.322256088256836	20273.846625181315
2.3251543045043945	50015.29235543368
2.328047275543213	73878.32148286357
2.330935478210449	56476.103522176156
2.3338186740875244	25714.55179091698
2.3366971015930176	11685.596831412151
2.3395702838897705	8886.436579479017
2.3424389362335205	10789.945027274924
2.3453025817871094	9655.803558406624
2.348161458969116	9017.201271201486
2.351015567779541	12117.275471575687
2.353865146636963	16411.566046628694
2.3567099571228027	31751.322796052427
2.3595502376556396	60014.688883538816
2.3623859882354736	74452.91956001625
2.3652172088623047	60478.83106824924
2.368043899536133	33052.011580216655
2.370866537094116	11498.034838941456
2.3736846446990967	6595.693064417026
2.3764986991882324	19919.488675204306
2.3793084621429443	47986.590907336365
2.3821144104003906	71930.80553059891
2.384916305541992	76829.60762865035
2.387714147567749	74992.83173852538
2.3905084133148193	80984.47275950688
2.393299102783203	70733.9801209984
2.3960859775543213	35476.510970362484
2.398869514465332	12317.132173854854
2.4016497135162354	8858.301695234937
2.4044265747070312	11925.844944046412
2.407200336456299	16980.978880882663
2.409970998764038	22448.359663768402
2.4127390384674072	28082.47287931325
2.415503978729248	25758.624872140408
2.418266534805298	16587.410595203786
2.4210267066955566	12030.42389779317
2.4237842559814453	9950.274612615382
2.426539897918701	10821.36143616361
2.429293394088745	28799.660823768118
2.4320452213287354	47070.38499652859
2.4347951412200928	35987.306001462224
2.4375438690185547	27176.538348773007
2.440291166305542	36557.18139403967
2.443037271499634	36716.151779479245
2.445782423019409	30370.410505849122
2.4485268592834473	29528.09623433657
2.451270818710327	32263.182588059255
2.454014539718628	33070.78297348353
2.4567582607269287	33734.8872895444
2.4595019817352295	45432.49926661524
2.4622461795806885	64524.24769613698
2.4649908542633057	77492.26688005865
2.4677364826202393	77061.35658243646
2.4704833030700684	75326.34997324954
2.473231554031372	84412.30801700128
2.4759814739227295	94253.63490671787
2.4787333011627197	88653.31890354083
2.481487512588501	92991.02766652523
2.4842441082000732	138198.3825479064
