#wavelength	surface flux
0.6450077295303345	4865815.51982094
0.6472567915916443	7316587.735926417
0.6494921445846558	8796565.690808484
0.6517150402069092	9280783.867025832
0.6539263725280762	9700316.228934841
0.6561272740364075	9975774.433554621
0.6583186388015747	10217937.308337532
0.6605015397071838	10499478.379305163
0.6626768708229065	10750466.50391731
0.6648455858230591	10902322.59683095
0.6670085787773132	11018045.821662767
0.6691668033599854	11133528.908624569
0.6713210344314575	11274199.719873894
0.6734722256660461	11567998.93983906
0.6756211519241333	11978127.567360405
0.6777685880661011	12322512.159870772
0.6799154281616211	12579938.693883596
0.6820623278617859	12807350.984429454
0.6842101216316223	12934740.005675323
0.6863595843315125	12925077.577261213
0.688511312007904	12844654.267677385
0.6906660795211792	12925541.374870364
0.6928245425224304	13374290.741234343
0.6949873566627502	13981408.45632893
0.6971551775932312	14407791.955011295
0.6993286609649658	14781701.024362989
0.7015084028244019	15557434.290661348
0.7036949396133423	16514583.73663113
0.7058889269828796	16732255.197166856
0.7080909013748169	16383693.60230627
0.710301399230957	16299574.799251864
0.712520956993103	16467267.318992523
0.7147500514984131	16839404.654763933
0.7169892191886902	17581445.78598449
0.7192389369010925	18447585.79939292
0.7214996814727783	19247760.56819343
0.723771870136261	20233083.487533376
0.7260559797286987	21366618.82997713
0.7283523678779602	22450243.17922055
0.7306615710258484	23548235.53927246
0.7329838871955872	24265427.629057925
0.7353196740150452	24105704.89827559
0.7376693487167358	23373928.684335187
0.7400332689285278	22433244.550656322
0.7424117922782898	21529602.616686787
0.7448052167892456	20855727.80120106
0.7472138404846191	20519365.886549376
0.7496379613876343	20451310.826123834
0.7520779371261597	20357060.289845344
0.7545340061187744	20109325.493356496
0.7570064663887024	19321307.842862297
0.7594954967498779	17466685.353449374
0.7620013952255249	13561442.610620406
0.7645244002342224	7280934.0257555945
0.7670646905899048	2172672.182388988
0.7696225643157959	1226395.5257434235
0.7721980810165405	4566099.127596238
0.7747915983200073	11733380.652547562
0.7774031162261963	18516734.409215685
0.7800329327583313	22146353.64116866
0.7826811671257019	25764108.420405913
0.7853479981422424	29114365.013637837
0.7880334854125977	30116028.887917902
0.7907378077507019	29809447.378011305
0.7934610247612	28883169.04196068
0.7962033748626709	29078248.039257996
0.7989648580551147	31249167.68635835
0.801745593547821	34447663.78741124
0.8045456409454346	38578432.79197545
0.8073651194572449	43891658.68171624
0.8102040886878967	50720889.68037788
0.8130625486373901	58410811.164782
0.8159406185150146	63132281.060072005
0.8188382983207703	62702451.35051454
0.8217556476593018	63990339.90257112
0.8246926665306091	69302438.73251474
0.8276493549346924	71983482.92289354
0.8306257724761963	72221794.17789899
0.8336219191551208	73976769.42487632
0.8366377949714661	76658517.73734152
0.8396733403205872	78231960.9499841
0.8427285552024841	75068961.66110958
0.8458034992218018	67779281.31884663
0.8488980531692505	63942803.38986566
0.8520121574401855	64625206.16501911
0.8551458716392517	67499583.3735288
0.8582990765571594	70148703.55688977
0.8614717125892639	69980265.67833705
0.8646637797355652	69649765.2960088
0.8678751587867737	70736919.92716353
0.8711057901382446	72765286.3447945
0.8743556141853333	77699478.83346306
0.87762451171875	86308843.09835258
0.8809124231338501	96048848.61434394
0.8842192888259888	100567888.304717
0.8875449895858765	96063344.49121484
0.8908893465995789	93090701.31840913
0.894252359867096	97855300.76711713
0.8976338505744934	109107447.83846924
0.9010337591171265	124006983.24649009
0.9044519662857056	137622329.09645277
0.9078882932662964	155127337.57725984
0.9113426208496094	178683625.22552964
0.914814829826355	202070521.77047688
0.9183048605918884	212791936.6890499
0.9218124747276306	195076160.2623367
0.925337553024292	165981943.32770497
0.9288799166679382	151310689.8865786
0.9324395060539246	150927863.30575177
0.9360161423683167	159367093.53458875
0.9396095871925354	171158307.12513718
0.943219780921936	183475313.026649
0.9468464851379395	196089839.49251062
0.9504896402359009	204592883.97449744
0.9541489481925964	205193760.54428807
0.9578243494033813	201364060.03848574
0.9615156054496765	198332397.1864542
0.9652225375175476	202564021.10256982
0.9689450263977051	212912077.6546118
0.9726828336715698	219523694.15798175
0.9764357805252075	227751054.63259888
0.9802037477493286	243575196.127049
0.983986496925354	261040305.09587517
0.9877838492393494	258642097.17061663
0.9915955662727356	222366218.51112047
0.9954215884208679	198485787.71667844
0.9992615580558777	199476118.90501487
1.0031154155731201	200486261.2556123
1.0069829225540161	210421451.7010426
1.0108637809753418	228918785.2602931
1.0147579908370972	242844384.5989697
1.018665075302124	254001454.03587818
1.022585153579712	262353708.20471206
1.0265177488327026	256772015.3864092
1.0304628610610962	257830052.807587
1.0344202518463135	280068788.04737014
1.0383895635604858	305176378.6475588
1.0423706769943237	316720799.99949217
1.0463634729385376	305786189.62189144
1.0503677129745483	278616607.6627524
1.0543830394744873	254233034.66352445
1.058409333229065	246543216.73945937
1.0624464750289917	259991550.01362342
1.0664942264556885	287775722.32256275
1.0705522298812866	323820397.3065336
1.0746204853057861	366109110.495635
1.0786986351013184	407001841.36714995
1.0827864408493042	440024861.07237494
1.086883783340454	462352540.70371276
1.0909905433654785	474340166.899045
1.0951062440872192	473635500.6039379
1.0992310047149658	457758183.44972175
1.10336434841156	423895136.48052394
1.1075061559677124	393215357.18860936
1.1116561889648438	394100558.06354934
1.115814208984375	411240654.0938719
1.1199802160263062	428073053.50693107
1.124153733253479	453378421.4148339
1.1283347606658936	470342555.5014677
1.1325229406356812	450802027.0204331
1.1367181539535522	401828423.0196242
1.1409201622009277	386260589.35226077
1.145128846168518	446072042.74477124
1.1493438482284546	514535297.65304255
1.1535650491714478	537136543.6172444
1.1577922105789185	535843836.31084466
1.1620250940322876	521975722.31352067
1.1662636995315552	475240160.1498044
1.170507550239563	418794087.1566534
1.174756646156311	379912627.3042046
1.1790107488632202	365851912.65673476
1.1832695007324219	400793555.4847842
1.1875330209732056	448196064.53703296
1.191800832748413	470666749.97782207
1.1960728168487549	474290961.8998138
1.2003488540649414	483109545.5281744
1.2046287059783936	517810160.39642274
1.2089121341705322	553841078.9601631
1.2131990194320679	584215444.645484
1.2174891233444214	613429391.2886918
1.2217823266983032	634172980.0038637
1.2260783910751343	657958739.8383723
1.230377197265625	676375727.8200365
1.2346785068511963	671960525.1779983
1.238982081413269	627543759.941412
1.2432878017425537	570693943.5709782
1.2475954294204712	561221569.310068
1.2519049644470215	565577548.8170671
1.256216049194336	592908213.3467301
1.2605286836624146	647272430.5453626
1.2648425102233887	678597225.7110991
1.2691574096679688	699233375.0830398
1.2734732627868652	712738586.1768895
1.2777899503707886	721515747.3862512
1.2821072340011597	723892846.0958602
1.2864248752593994	711354265.6773199
1.2907428741455078	703235240.2525476
1.2950609922409058	716746979.8884342
1.2993791103363037	737971391.201929
1.303696870803833	750282037.0289366
1.3080145120620728	745592641.086168
1.3123314380645752	731611004.3720007
1.3166478872299194	725140925.9062384
1.3209635019302368	711970828.9673536
1.3252781629562378	668773755.3823314
1.3295916318893433	575547731.8314817
1.3339040279388428	435591458.0560063
1.3382149934768677	326327917.4567726
1.3425244092941284	285710453.9627638
1.3468321561813354	271095274.4753269
1.3511382341384888	257241001.0845733
1.3554422855377197	247009965.89145696
1.3597444295883179	249531806.94932127
1.3640443086624146	260612742.1452912
1.3683418035507202	266741404.79637557
1.3726370334625244	269956660.99226004
1.3769296407699585	281986545.6423674
1.381219506263733	292232195.63403106
1.3855066299438477	291246002.0652742
1.3897908926010132	281520589.52872187
1.3940720558166504	266703619.08500832
1.3983501195907593	257069149.8820117
1.4026249647140503	256437210.41177028
1.4068963527679443	252848957.35698542
1.4111642837524414	241974278.23099852
1.4154287576675415	234497114.016111
1.419689416885376	229967615.04646328
1.4239463806152344	225094401.9298945
1.4281994104385376	225518052.99131504
1.4324485063552856	232368069.66633806
1.436693549156189	239443438.45130244
1.440934419631958	244216468.82125762
1.4451709985733032	249292589.90447825
1.449403166770935	259809840.73388222
1.453631043434143	272997017.6312703
1.4578542709350586	281902234.8813139
1.4620729684829712	284213021.6277546
1.4662868976593018	282267448.07928973
1.4704961776733398	281393142.9523355
1.4747005701065063	285577849.0446341
1.4788999557495117	292903346.1380481
1.4830944538116455	299843295.17388904
1.4872838258743286	305276244.4156463
1.491468071937561	308591816.146073
1.4956470727920532	313881273.1217072
1.4998208284378052	321347297.8219005
1.5039892196655273	329750586.23972523
1.5081522464752197	339076628.8671237
1.5123097896575928	348413661.2205942
1.5164618492126465	356002384.3524446
1.5206083059310913	365319348.21015716
1.5247491598129272	375142120.4775281
1.5288842916488647	382103233.82995456
1.5330137014389038	390839751.8209703
1.5371372699737549	401245294.5313151
1.541254997253418	410793315.5059012
1.545366883277893	421454208.65950406
1.5494728088378906	433124470.67526615
1.5535727739334106	441192254.82511
1.5576666593551636	445171183.34192187
1.561754584312439	453038276.3682272
1.5658363103866577	467585931.78238463
1.5699119567871094	481572848.34286374
1.5739814043045044	492587171.4571559
1.5780447721481323	500156215.4810565
1.582101821899414	508528200.08030945
1.5861525535583496	521194535.66812474
1.5901970863342285	532564086.8587863
1.5942351818084717	541639269.6113335
1.5982669591903687	550138538.3591925
1.6022924184799194	557792397.6370336
1.606311559677124	566464628.3709496
1.6103241443634033	574369770.6524187
1.6143304109573364	581951856.69861
1.6183301210403442	589048583.0059352
1.6223233938217163	595407775.2992231
1.6263102293014526	602380249.8921548
1.6302905082702637	607505485.2589974
1.634264349937439	612881270.1564432
1.638231635093689	619009362.4922506
1.6421923637390137	623699443.7784879
1.646146535873413	628479684.058265
1.6500942707061768	630593109.4072229
1.6540353298187256	632353672.3827152
1.6579699516296387	634440606.6951482
1.661897897720337	635701636.9401921
1.6658192873001099	639688846.5530066
1.6697341203689575	641425609.0502951
1.6736423969268799	642471995.4055096
1.677544116973877	645807715.3345702
1.6814392805099487	646478321.6891766
1.6853278875350952	641133605.0791962
1.6892099380493164	631168751.4516605
1.6930854320526123	617551896.6065246
1.696954369544983	601070976.6556154
1.7008168697357178	589170801.3228477
1.7046726942062378	576824105.0922737
1.708522081375122	554886801.3177875
1.712364912033081	525862096.34744555
1.7162011861801147	495310440.96967226
1.7200311422348022	476369958.7527324
1.723854422569275	467640559.0760614
1.7276713848114014	453557095.0105105
1.731481909751892	434865290.3141216
1.7352858781814575	417425032.07228404
1.7390835285186768	402337394.7883236
1.7428747415542603	387589982.4608404
1.7466596364974976	372949843.9542609
1.7504380941390991	361049071.11803323
1.7542102336883545	345759283.1205135
1.7579760551452637	330675055.54459447
1.7617355585098267	324523083.0106605
1.7654887437820435	317129816.4452245
1.7692357301712036	302422853.0116382
1.7729763984680176	288183485.5774745
1.776710867881775	278597555.25690323
1.7804391384124756	271418325.2281683
1.7841613292694092	260200884.97788838
1.7878772020339966	251087540.20096758
1.7915871143341064	247786094.85026747
1.7952908277511597	245190802.21134505
1.7989884614944458	238761140.48608047
1.8026801347732544	228899623.8160098
1.806365728378296	224499653.06251797
1.8100452423095703	224890606.25161114
1.8137187957763672	229685786.96472797
1.817386507987976	226749786.59786752
1.8210482597351074	220918038.8573603
1.8247040510177612	226279110.6403103
1.828354001045227	227044869.71387812
1.8319982290267944	221749795.18938005
1.8356364965438843	218048658.44084263
1.8392690420150757	213738526.3820592
1.8428958654403687	204974866.1406275
1.8465168476104736	194752618.1008637
1.8501322269439697	193818850.43604672
1.8537418842315674	192156848.71584722
1.8573459386825562	178093108.9787388
1.860944390296936	168692242.53345913
1.864537239074707	173834434.0576732
1.8681244850158691	184048515.3795023
1.871706247329712	190575677.5807154
1.8752825260162354	192353217.6814916
1.8788533210754395	197210615.15509057
1.8824186325073242	208437026.55523127
1.8859784603118896	216063141.81077397
1.8895330429077148	214473273.05386204
1.8930821418762207	213636804.77531043
1.8966259956359863	221098304.25544587
1.9001644849777222	228772742.8490571
1.9036977291107178	229279334.28756228
1.9072256088256836	228247573.4170684
1.9107483625411987	229196112.4151293
1.9142658710479736	230725541.47948244
1.9177782535552979	229732437.25762105
1.9212853908538818	225122285.3162819
1.9247875213623047	222826310.92670643
1.9282845258712769	221771765.97109202
1.9317764043807983	217152713.09209615
1.9352631568908691	211462334.38431275
1.9387450218200684	201639536.58077976
1.942221760749817	196893641.2605473
1.9456936120986938	201990267.38241217
1.9491604566574097	204219602.52015004
1.952622413635254	200821877.27852395
1.956079363822937	198654693.1131254
1.959531545639038	200385860.45005584
1.962978720664978	200426182.8217674
1.966421127319336	202138560.0597972
1.9698586463928223	203956232.10037065
1.9732913970947266	198069565.54519674
1.9767193794250488	191199858.46120873
1.9801424741744995	190790291.18470493
1.9835609197616577	194994449.0957252
1.9869745969772339	196560790.51696986
1.990383505821228	193565455.00347224
1.9937876462936401	196483914.7836466
1.9971871376037598	198795042.42574722
2.000581979751587	198798333.31011572
2.003972291946411	203605867.45351166
2.007357597351074	203615176.93089578
2.0107386112213135	202130529.4162438
2.0141148567199707	205992871.86720327
2.017486572265625	208099173.833391
2.0208535194396973	213056991.7370931
2.0242159366607666	218389402.8130981
2.027573823928833	215557806.35701418
2.0309269428253174	217818302.63635734
2.034275770187378	225572076.90598238
2.0376198291778564	228740667.794385
2.040959596633911	229580442.31849286
2.044294595718384	230978513.8460252
2.0476250648498535	233966633.3625924
2.0509510040283203	236297446.87170047
2.054272413253784	239017160.9915275
2.057589530944824	246596010.63831618
2.0609018802642822	248294152.42887276
2.0642096996307373	245545642.4561173
2.0675129890441895	251548793.7042985
2.0708119869232178	256184643.1594304
2.074106216430664	255532450.1465714
2.0773961544036865	258871411.75841835
2.080681324005127	262441185.65892828
2.0839622020721436	263440332.81756216
2.087238311767578	266078569.23238394
2.090510129928589	271076110.67174923
2.0937774181365967	273946310.3699902
2.0970399379730225	274428094.2681554
2.1002981662750244	277408280.4797654
2.1035518646240234	280575860.2900061
2.1068007946014404	281963015.9494207
2.1100454330444336	284452279.7775891
2.1132853031158447	288352638.35561997
2.116520881652832	289196775.4354968
2.1197516918182373	290078681.4068584
2.1229779720306396	294349364.4211142
2.12619948387146	295066584.62106436
2.1294167041778564	293579785.421688
2.132629156112671	297026513.18243873
2.1358368396759033	300501829.53940743
2.139039993286133	298645994.00802547
2.1422386169433594	299492431.18098027
2.145432472229004	304727125.0025731
2.1486217975616455	303975933.7384703
2.151806354522705	300523676.3342694
2.1549863815307617	302088741.1515122
2.1581614017486572	304673566.61806357
2.16133189201355	304992599.9733834
2.1644976139068604	305064194.29005367
2.167658567428589	306529849.77546126
2.1708147525787354	306061610.0372676
2.173966407775879	303255805.41077137
2.1771130561828613	301051451.93369514
2.1802549362182617	301097805.9903004
2.183391809463501	301616907.7573437
2.1865241527557373	301175074.23627675
2.1896514892578125	301668892.360273
2.1927738189697266	301043980.08829683
2.1958916187286377	299649915.3550538
2.1990041732788086	298714293.1195841
2.2021119594573975	295963094.3111669
2.2052149772644043	293617056.10201055
2.208312749862671	294107201.5590485
2.2114057540893555	295981179.4670178
2.214493751525879	296290049.3415616
2.217576742172241	292167330.13021535
2.2206547260284424	288525944.0212527
2.2237277030944824	290979947.65404415
2.2267956733703613	291911451.9638911
2.2298583984375	289977758.1015351
2.2329163551330566	288047312.0611027
2.235969066619873	285483148.9982925
2.2390167713165283	285983087.2082435
2.2420592308044434	285836555.02242595
2.2450966835021973	284422654.88899076
2.248128890991211	283772202.0869427
2.2511560916900635	282273928.03686816
2.254178285598755	280900222.37044036
2.257194995880127	280867158.2715617
2.260206699371338	280533955.70437235
2.2632133960723877	276870535.9230433
2.266214609146118	274064080.0312349
2.2692108154296875	273142641.10602164
2.2722020149230957	272574151.2728919
2.2751877307891846	274350882.18875015
2.278168201446533	272576549.58923274
2.2811436653137207	268495556.65889066
2.284113883972168	269622385.2355015
2.287078857421875	272442899.09027123
2.290038824081421	263303330.2010024
2.2929933071136475	231531023.10355446
2.295942783355713	202017997.12763315
2.298887014389038	198610206.77077925
2.301826238632202	205973645.94710633
2.304760217666626	210441896.76387143
2.3076889514923096	211352549.3650473
2.310612440109253	210581381.1250512
2.3135311603546143	210571132.9140988
2.3164443969726562	211854409.99972093
2.319352865219116	210079193.14951846
2.322256088256836	197293850.9663273
2.3251543045043945	186052303.77477378
2.328047275543213	187493508.53537366
2.330935478210449	192242728.25112328
2.3338186740875244	196296392.98759565
2.3366971015930176	197490450.39687946
2.3395702838897705	195043398.94928467
2.3424389362335205	194199268.4933271
2.3453025817871094	199038990.45019585
2.348161458969116	203958822.5366826
2.351015567779541	195825533.85727945
2.353865146636963	183589843.6430486
2.3567099571228027	180532051.3770616
2.3595502376556396	180635375.44368893
2.3623859882354736	182206259.1606851
2.3652172088623047	183494565.1485136
2.368043899536133	182720419.65661862
2.370866537094116	184773393.7892764
2.3736846446990967	187876418.32805902
2.3764986991882324	186345360.16514978
2.3793084621429443	182436791.0506802
2.3821144104003906	176698523.3529705
2.384916305541992	170149332.88713634
2.387714147567749	170378585.37994307
2.3905084133148193	175622457.11375538
2.393299102783203	176956286.3267203
2.3960859775543213	175457691.28806192
2.398869514465332	173708903.0485844
2.4016497135162354	170440262.00949633
2.4044265747070312	168055628.84374103
2.407200336456299	163702068.94386646
2.409970998764038	158316915.3783654
2.4127390384674072	156698287.5103453
2.415503978729248	155463535.17065653
2.418266534805298	153065356.72376156
2.4210267066955566	151699652.0875375
2.4237842559814453	149998523.24803403
2.426539897918701	147000265.42910746
2.429293394088745	145931015.31308502
2.4320452213287354	143257756.53137186
2.4347951412200928	137178905.92978564
2.4375438690185547	136247272.92891994
2.440291166305542	138302255.02041182
2.443037271499634	134448123.13306975
2.445782423019409	129501203.41470543
2.4485268592834473	127906874.32607028
2.451270818710327	122784446.0950922
2.454014539718628	118099970.62721363
2.4567582607269287	125898078.21418878
2.4595019817352295	127594074.60045408
2.4622461795806885	123467228.20009351
2.4649908542633057	124710343.46752344
2.4677364826202393	118068103.65585169
2.4704833030700684	110846117.95157406
2.473231554031372	105814798.81475066
2.4759814739227295	104915746.28792094
2.4787333011627197	107638644.76542118
