#wavelength	surface flux
0.6450077295303345	2637295.405930902
0.6472567915916443	3970956.821087258
0.6494921445846558	4779013.458416149
0.6517150402069092	5008113.488294235
0.6539263725280762	5211279.7466303045
0.6561272740364075	5406819.506263019
0.6583186388015747	5601991.55914397
0.6605015397071838	5807649.367427511
0.6626768708229065	6021415.315133794
0.6648455858230591	6229258.894999746
0.6670085787773132	6426111.081325813
0.6691668033599854	6590486.627299563
0.6713210344314575	6758496.675325284
0.6734722256660461	6998250.372039004
0.6756211519241333	7253301.757614764
0.6777685880661011	7467116.864327852
0.6799154281616211	7666857.874211892
0.6820623278617859	7858306.725920929
0.6842101216316223	8035952.850168968
0.6863595843315125	8185391.443695774
0.688511312007904	8280781.343077911
0.6906660795211792	8373698.800791945
0.6928245425224304	8513007.740208142
0.6949873566627502	8675162.12013275
0.6971551775932312	8824378.086990718
0.6993286609649658	8987473.999691002
0.7015084028244019	9238846.276502552
0.7036949396133423	9515431.834845059
0.7058889269828796	9723321.860765086
0.7080909013748169	9901076.760475384
0.710301399230957	10102788.905300008
0.712520956993103	10334370.712843847
0.7147500514984131	10590482.30584676
0.7169892191886902	10866285.347278386
0.7192389369010925	11133785.948133105
0.7214996814727783	11382781.833829544
0.723771870136261	11639605.663768312
0.7260559797286987	11889883.141329657
0.7283523678779602	12115729.135750346
0.7306615710258484	12321458.29632083
0.7329838871955872	12443660.547772542
0.7353196740150452	12437818.812866775
0.7376693487167358	12360544.123636104
0.7400332689285278	12245349.405001666
0.7424117922782898	12138485.370118525
0.7448052167892456	12075498.596742019
0.7472138404846191	12075517.028871588
0.7496379613876343	12096447.666108781
0.7520779371261597	12043961.15077447
0.7545340061187744	11881948.95978258
0.7570064663887024	11478823.289454833
0.7594954967498779	10578208.32613525
0.7620013952255249	8433247.104262263
0.7645244002342224	4651206.832813169
0.7670646905899048	1404631.2482619437
0.7696225643157959	741357.5074072466
0.7721980810165405	2828504.175088208
0.7747915983200073	7239782.6320495615
0.7774031162261963	11257426.131143214
0.7800329327583313	13183292.843877992
0.7826811671257019	14969617.497647401
0.7853479981422424	16762718.787877709
0.7880334854125977	17514813.904694133
0.7907378077507019	17684206.744054273
0.7934610247612	17484879.85382318
0.7962033748626709	17786542.98886969
0.7989648580551147	19014223.52726917
0.801745593547821	20379279.31913681
0.8045456409454346	21661353.50434318
0.8073651194572449	22904030.172998987
0.8102040886878967	24046818.757888854
0.8130625486373901	25099097.300815623
0.8159406185150146	25947357.1692202
0.8188382983207703	26537580.90779558
0.8217556476593018	27207346.122800834
0.8246926665306091	28046965.069544777
0.8276493549346924	28761687.572563056
0.8306257724761963	29367901.892150156
0.8336219191551208	30021260.467298724
0.8366377949714661	30713068.91808033
0.8396733403205872	31370088.842472512
0.8427285552024841	31860566.632382274
0.8458034992218018	32182683.263866905
0.8488980531692505	32405742.49694893
0.8520121574401855	32617302.416633777
0.8551458716392517	33395847.535294
0.8582990765571594	34274867.84446261
0.8614717125892639	34394940.11321034
0.8646637797355652	34527127.80959378
0.8678751587867737	35235664.49045247
0.8711057901382446	36133324.60267652
0.8743556141853333	37128907.918154396
0.87762451171875	38279577.58965913
0.8809124231338501	39432265.43021808
0.8842192888259888	40415233.25966711
0.8875449895858765	41119628.31769741
0.8908893465995789	41597834.48293958
0.894252359867096	42111407.09973003
0.8976338505744934	43337066.29306786
0.9010337591171265	44973007.07768209
0.9044519662857056	46306465.24403482
0.9078882932662964	47564498.77718912
0.9113426208496094	48883037.01901835
0.914814829826355	50192263.29616374
0.9183048605918884	51210305.01996835
0.9218124747276306	51399956.89698702
0.925337553024292	50768509.926740676
0.9288799166679382	50052705.74793319
0.9324395060539246	50325661.69484485
0.9360161423683167	51746058.64164237
0.9396095871925354	53381577.23799388
0.943219780921936	54580481.79584923
0.9468464851379395	55436678.609056115
0.9504896402359009	56233123.040117465
0.9541489481925964	56913147.174814895
0.9578243494033813	57478552.1138654
0.9615156054496765	58178840.7521726
0.9652225375175476	59288156.558853514
0.9689450263977051	60669202.931060605
0.9726828336715698	61965607.26579169
0.9764357805252075	63264228.36019459
0.9802037477493286	64694615.93751753
0.983986496925354	66170070.32466679
0.9877838492393494	67339676.32618643
0.9915955662727356	67872433.63673605
0.9954215884208679	68502464.43848182
0.9992615580558777	69386931.623297
1.0031154155731201	70298656.29667157
1.0069829225540161	71630322.8286554
1.0108637809753418	73239714.95925048
1.0147579908370972	74704930.89318386
1.018665075302124	76046874.76211725
1.022585153579712	77287639.72234182
1.0265177488327026	78196326.1325078
1.0304628610610962	79292291.36376159
1.0344202518463135	80891411.82082672
1.0383895635604858	82527496.59871255
1.0423706769943237	83708122.62323171
1.0463634729385376	84047434.17209741
1.0503677129745483	83800824.41857223
1.0543830394744873	83729843.17781872
1.058409333229065	84319633.72556071
1.0624464750289917	85716055.31622255
1.0664942264556885	87652880.19842294
1.0705522298812866	89794264.3899439
1.0746204853057861	92051517.16177182
1.0786986351013184	94295891.99985671
1.0827864408493042	96305828.5066068
1.086883783340454	97762742.23683129
1.0909905433654785	98493232.66699477
1.0951062440872192	98550346.41397144
1.0992310047149658	98079518.87393226
1.10336434841156	96991829.97094195
1.1075061559677124	95772154.41439845
1.1116561889648438	95406053.58756673
1.115814208984375	96034346.3320596
1.1199802160263062	97500007.91197069
1.124153733253479	99865553.10607484
1.1283347606658936	101515937.61413142
1.1325229406356812	100661391.28314216
1.1367181539535522	100024494.05840224
1.1409201622009277	101963018.29993808
1.145128846168518	105012678.32546872
1.1493438482284546	107632014.91670907
1.1535650491714478	108912756.5978975
1.1577922105789185	109497271.19300729
1.1620250940322876	110051426.50446413
1.1662636995315552	109740433.14617042
1.170507550239563	109199669.2062664
1.174756646156311	109161038.78779292
1.1790107488632202	110040005.66967532
1.1832695007324219	112708372.79604024
1.1875330209732056	115629606.41467206
1.191800832748413	117782885.21865243
1.1960728168487549	119597195.81271514
1.2003488540649414	121438233.40159106
1.2046287059783936	123707332.61736923
1.2089121341705322	125919479.92890234
1.2131990194320679	128032427.66057774
1.2174891233444214	130152541.52700286
1.2217823266983032	132024714.12971997
1.2260783910751343	133989086.21031426
1.230377197265625	135807012.87125388
1.2346785068511963	136922999.39432988
1.238982081413269	136704213.15751103
1.2432878017425537	135906426.84465635
1.2475954294204712	136525853.1152755
1.2519049644470215	137570922.30112094
1.256216049194336	139265033.1705728
1.2605286836624146	141773967.01492327
1.2648425102233887	143596055.97115746
1.2691574096679688	145110855.17875752
1.2734732627868652	146390232.99726337
1.2777899503707886	147549675.2837259
1.2821072340011597	148370618.05202153
1.2864248752593994	148508064.92671278
1.2907428741455078	148859680.81260958
1.2950609922409058	150054715.78257093
1.2993791103363037	151427139.71349534
1.303696870803833	152452920.29011735
1.3080145120620728	152874285.81300423
1.3123314380645752	152771493.94918182
1.3166478872299194	152797611.58092135
1.3209635019302368	152355853.13557425
1.3252781629562378	149856388.55398712
1.3295916318893433	142631230.9596659
1.3339040279388428	129262691.41261028
1.3382149934768677	116936389.9790591
1.3425244092941284	111098562.08388244
1.3468321561813354	107743106.8038716
1.3511382341384888	104205881.8661051
1.3554422855377197	101593279.7771333
1.3597444295883179	102210502.7922779
1.3640443086624146	105468896.66327369
1.3683418035507202	107342889.9723138
1.3726370334625244	107872876.79615277
1.3769296407699585	110366221.23984277
1.381219506263733	112771465.84081411
1.3855066299438477	113557003.774271
1.3897908926010132	113080294.52168675
1.3940720558166504	110947543.0152932
1.3983501195907593	109130807.51092292
1.4026249647140503	108929107.3445344
1.4068963527679443	108767424.07845649
1.4111642837524414	107203341.74531318
1.4154287576675415	105770437.06957714
1.419689416885376	104954770.56412683
1.4239463806152344	104321765.79263997
1.4281994104385376	104940892.1134484
1.4324485063552856	107298850.19036973
1.436693549156189	109965172.45777991
1.440934419631958	111949630.75000215
1.4451709985733032	113952972.98085934
1.449403166770935	117312664.35683419
1.453631043434143	121484376.03105958
1.4578542709350586	124810514.16983858
1.4620729684829712	126155370.02894603
1.4662868976593018	126368678.70438382
1.4704961776733398	127284298.70903371
1.4747005701065063	129184285.6245565
1.4788999557495117	131199758.76605868
1.4830944538116455	132921127.19903557
1.4872838258743286	134584655.7977185
1.491468071937561	136141121.40517104
1.4956470727920532	138069526.74372813
1.4998208284378052	140205802.44583958
1.5039892196655273	142358847.3214156
1.5081522464752197	144580551.9915492
1.5123097896575928	146879065.8794194
1.5164618492126465	149080031.56237602
1.5206083059310913	151311442.9927203
1.5247491598129272	153524215.22159597
1.5288842916488647	155341907.34486794
1.5330137014389038	157182218.762556
1.5371372699737549	159225018.8894745
1.541254997253418	161127845.90936556
1.545366883277893	162989345.78434485
1.5494728088378906	164747304.02951452
1.5535727739334106	165858537.87717786
1.5576666593551636	166256528.57639197
1.561754584312439	167047032.41093534
1.5658363103866577	168874577.02343738
1.5699119567871094	170806566.16332474
1.5739814043045044	172212198.15739444
1.5780447721481323	172922861.60891163
1.582101821899414	173658321.4877147
1.5861525535583496	174925555.92338914
1.5901970863342285	176124654.73150238
1.5942351818084717	177097419.29346216
1.5982669591903687	177969607.38477027
1.6022924184799194	178750445.55967832
1.606311559677124	179610575.34326953
1.6103241443634033	180450306.83761665
1.6143304109573364	181276638.42982343
1.6183301210403442	182066387.43218935
1.6223233938217163	182798670.6817741
1.6263102293014526	183503333.9750694
1.6302905082702637	184025174.9304747
1.634264349937439	184613972.30579388
1.638231635093689	185302467.23825988
1.6421923637390137	185860648.7015718
1.646146535873413	186404954.953531
1.6500942707061768	186762704.2361436
1.6540353298187256	187075858.196212
1.6579699516296387	187380461.6138094
1.661897897720337	187659775.53281137
1.6658192873001099	188236304.27908826
1.6697341203689575	188584353.49151784
1.6736423969268799	188861069.85142425
1.677544116973877	189499496.4250847
1.6814392805099487	189952130.51202542
1.6853278875350952	189715327.01443014
1.6892099380493164	189037129.851566
1.6930854320526123	188199165.21285793
1.696954369544983	187192097.7060683
1.7008168697357178	186631700.84941643
1.7046726942062378	186017030.1484501
1.708522081375122	184432124.95301038
1.712364912033081	182057969.33935696
1.7162011861801147	179290216.27199745
1.7200311422348022	177315288.08429426
1.723854422569275	176051214.6335602
1.7276713848114014	174309240.17087224
1.731481909751892	172165323.94684914
1.7352858781814575	170039581.42381373
1.7390835285186768	167964594.16467458
1.7428747415542603	165732433.28926042
1.7466596364974976	163386105.16459566
1.7504380941390991	161413618.13842973
1.7542102336883545	159250385.76003608
1.7579760551452637	156974661.6759685
1.7617355585098267	155464416.55202118
1.7654887437820435	153537151.92276928
1.7692357301712036	150536827.64233023
1.7729763984680176	147553381.90070316
1.776710867881775	145119080.49506316
1.7804391384124756	142708882.54859352
1.7841613292694092	139748783.07029426
1.7878772020339966	138289115.90688732
1.7915871143341064	137757381.75128075
1.7952908277511597	136488972.57179016
1.7989884614944458	133885004.79901429
1.8026801347732544	130594344.79149851
1.806365728378296	128833784.60515468
1.8100452423095703	128165907.68809904
1.8137187957763672	129858197.66762063
1.817386507987976	129715848.01212828
1.8210482597351074	127727616.28280039
1.8247040510177612	128667801.55313177
1.828354001045227	128792866.26241338
1.8319982290267944	127741961.28773712
1.8356364965438843	126488994.18817724
1.8392690420150757	124593735.0959586
1.8428958654403687	121753896.31364268
1.8465168476104736	118019478.77807868
1.8501322269439697	117733881.81069174
1.8537418842315674	117423524.79715201
1.8573459386825562	111447026.56669989
1.860944390296936	106986553.07743314
1.864537239074707	108850018.30001195
1.8681244850158691	113351114.8420605
1.871706247329712	116498664.50095733
1.8752825260162354	117648359.74579094
1.8788533210754395	120361133.54225925
1.8824186325073242	125377104.12535799
1.8859784603118896	128687456.7988937
1.8895330429077148	128841812.10563193
1.8930821418762207	129232283.52763428
1.8966259956359863	132046701.05409028
1.9001644849777222	134389688.2416625
1.9036977291107178	134417089.28052536
1.9072256088256836	134515363.04173055
1.9107483625411987	134740975.31063527
1.9142658710479736	134928467.78082183
1.9177782535552979	134989340.96619803
1.9212853908538818	133302534.25427787
1.9247875213623047	131773168.79306598
1.9282845258712769	131083910.0832092
1.9317764043807983	129571753.95799316
1.9352631568908691	127211557.33356607
1.9387450218200684	122854590.24801902
1.942221760749817	121544740.17274834
1.9456936120986938	124536231.76028165
1.9491604566574097	125516144.39623442
1.952622413635254	123502260.50728819
1.956079363822937	121563241.97665042
1.959531545639038	122244862.9048002
1.962978720664978	123129477.11415328
1.966421127319336	124337453.33888756
1.9698586463928223	125330093.93706694
1.9732913970947266	123445643.44578342
1.9767193794250488	122280904.02372216
1.9801424741744995	123252380.8918443
1.9835609197616577	125034179.75254504
1.9869745969772339	125948615.52570613
1.990383505821228	124664089.89495046
1.9937876462936401	125472035.47166367
1.9971871376037598	126052726.66859324
2.000581979751587	126250939.06806599
2.003972291946411	129002726.10754961
2.007357597351074	129526162.29703222
2.0107386112213135	129416778.14109434
2.0141148567199707	131122607.44827066
2.017486572265625	131819801.43266307
2.0208535194396973	134506102.47123134
2.0242159366607666	137621360.79662797
2.027573823928833	136613318.83053398
2.0309269428253174	137424856.6804052
2.034275770187378	140962407.18963742
2.0376198291778564	142593643.1038049
2.040959596633911	142992085.09510148
2.044294595718384	143994496.0552677
2.0476250648498535	145825979.39986676
2.0509510040283203	146733225.20745134
2.054272413253784	147516967.09345865
2.057589530944824	150563999.83624986
2.0609018802642822	151685534.71026248
2.0642096996307373	151009334.08092415
2.0675129890441895	153018919.5939737
2.0708119869232178	154582483.19714913
2.074106216430664	154555071.39801452
2.0773961544036865	155587045.3322954
2.080681324005127	156754551.05362886
2.0839622020721436	157332350.04299703
2.087238311767578	158142911.5072818
2.090510129928589	159286499.68284678
2.0937774181365967	159982262.28470665
2.0970399379730225	160307464.2259482
2.1002981662750244	161040992.96914348
2.1035518646240234	161551376.11858475
2.1068007946014404	161764371.710815
2.1100454330444336	162341603.423679
2.1132853031158447	163227265.49713102
2.116520881652832	163332090.34362444
2.1197516918182373	163403570.42947567
2.1229779720306396	164384092.65611485
2.12619948387146	164660402.6800378
2.1294167041778564	164257171.65197816
2.132629156112671	164882239.59422857
2.1358368396759033	165610202.7714927
2.139039993286133	165089171.50374463
2.1422386169433594	165079953.95969805
2.145432472229004	166153311.648677
2.1486217975616455	166156964.55722263
2.151806354522705	165470251.5377412
2.1549863815307617	165644284.7841931
2.1581614017486572	166085187.55084407
2.16133189201355	166174675.14321235
2.1644976139068604	166156018.9917385
2.167658567428589	166363036.67751324
2.1708147525787354	166262040.0411928
2.173966407775879	165635816.3950968
2.1771130561828613	165046384.15813375
2.1802549362182617	165104990.37576088
2.183391809463501	165307802.7689838
2.1865241527557373	165121201.27095544
2.1896514892578125	165209862.06510913
2.1927738189697266	165047486.50977027
2.1958916187286377	164475714.9079341
2.1990041732788086	164064302.88686174
2.2021119594573975	163536529.0356014
2.2052149772644043	163272978.14819166
2.208312749862671	163532891.43713528
2.2114057540893555	163888952.51244456
2.214493751525879	163795194.61577445
2.217576742172241	162447193.90798956
2.2206547260284424	161220931.9704004
2.2237277030944824	161859790.46578982
2.2267956733703613	162298611.2838364
2.2298583984375	162061284.83171484
2.2329163551330566	161702351.76583207
2.235969066619873	160963559.36748257
2.2390167713165283	160892169.21070075
2.2420592308044434	160502075.21494642
2.2450966835021973	159983039.16748857
2.248128890991211	160018136.10643548
2.2511560916900635	159863122.8257577
2.254178285598755	159564073.1026588
2.257194995880127	159587138.04975566
2.260206699371338	159656823.66625583
2.2632133960723877	158557143.07314214
2.266214609146118	157290751.0365452
2.2692108154296875	156693265.80097833
2.2722020149230957	156751466.01712713
2.2751877307891846	157666508.05335787
2.278168201446533	157180942.41378653
2.2811436653137207	155762445.70786685
2.284113883972168	156102290.4967206
2.287078857421875	157112701.64045453
2.290038824081421	153846121.85747662
2.2929933071136475	142305818.9438904
2.295942783355713	131934235.99915503
2.298887014389038	131241637.27795321
2.301826238632202	134204140.79723427
2.304760217666626	135991276.0439168
2.3076889514923096	136069342.03514025
2.310612440109253	135441835.5681575
2.3135311603546143	135313973.06877556
2.3164443969726562	135632597.78935072
2.319352865219116	134753272.7627372
2.322256088256836	129759015.15616119
2.3251543045043945	126189401.26560968
2.328047275543213	127471839.41631867
2.330935478210449	129164384.05578789
2.3338186740875244	130924141.47377154
2.3366971015930176	131666508.59989361
2.3395702838897705	130208778.97061639
2.3424389362335205	129491354.93302526
2.3453025817871094	131631357.19716412
2.348161458969116	133497362.44065747
2.351015567779541	129706882.13755399
2.353865146636963	124971013.0079399
2.3567099571228027	124350748.07531829
2.3595502376556396	124237191.52609245
2.3623859882354736	124292292.48291701
2.3652172088623047	124567582.23134659
2.368043899536133	124261008.66830575
2.370866537094116	125080493.81844138
2.3736846446990967	126657718.13803564
2.3764986991882324	126064647.19076498
2.3793084621429443	123965445.46120355
2.3821144104003906	121257132.34102507
2.384916305541992	118164657.86521022
2.387714147567749	118420438.80363634
2.3905084133148193	121444539.01275702
2.393299102783203	122084222.05210318
2.3960859775543213	121153861.19735374
2.398869514465332	120738837.50726795
2.4016497135162354	119643361.72227302
2.4044265747070312	118646316.16019721
2.407200336456299	116334699.97390325
2.409970998764038	113472301.99353844
2.4127390384674072	112520996.93511711
2.415503978729248	111416736.47717154
2.418266534805298	109708858.4805873
2.4210267066955566	109260909.95689078
2.4237842559814453	109040636.59617479
2.426539897918701	107510448.72846898
2.429293394088745	106554552.56472746
2.4320452213287354	104767681.48399474
2.4347951412200928	101265330.68078299
2.4375438690185547	101244751.72124407
2.440291166305542	103171161.65088218
2.443037271499634	100583525.65282236
2.445782423019409	96735269.63190003
2.4485268592834473	95659121.70847021
2.451270818710327	92587909.51313223
2.454014539718628	89545364.96297769
2.4567582607269287	94664159.51595591
2.4595019817352295	95695336.93302703
2.4622461795806885	92857985.88144866
2.4649908542633057	94188850.52335423
2.4677364826202393	90418855.11393996
2.4704833030700684	85477953.6762668
2.473231554031372	81595941.04079215
