#wavelength	surface flux
0.6450077295303345	7895.7194060645215
0.6472567915916443	12831.178832988995
0.6494921445846558	17706.504958398113
0.6517150402069092	21771.763114960846
0.6539263725280762	26511.785753831242
0.6561272740364075	32008.917646056467
0.6583186388015747	38347.422358816126
0.6605015397071838	45829.23026086583
0.6626768708229065	54586.56564404835
0.6648455858230591	64685.96436408907
0.6670085787773132	76191.69356123391
0.6691668033599854	88941.96973799051
0.6713210344314575	103022.7913651453
0.6734722256660461	118676.35218871279
0.6756211519241333	135051.71121907968
0.6777685880661011	150808.3682889905
0.6799154281616211	165034.46416970933
0.6820623278617859	175381.3424613102
0.6842101216316223	179445.8757475719
0.6863595843315125	176597.0440646766
0.688511312007904	167569.44479668836
0.6906660795211792	155039.64921711758
0.6928245425224304	143520.13178460402
0.6949873566627502	136845.84669144187
0.6971551775932312	135190.3958120306
0.6993286609649658	138719.2613048404
0.7015084028244019	147868.13378597584
0.7036949396133423	158407.15686249227
0.7058889269828796	165721.1101230699
0.7080909013748169	169988.43021250606
0.710301399230957	174417.03470630842
0.712520956993103	179459.68088595607
0.7147500514984131	181751.55907124004
0.7169892191886902	180242.58130490608
0.7192389369010925	176822.96482643185
0.7214996814727783	172720.5576081073
0.723771870136261	167798.71487878903
0.7260559797286987	161351.6058277471
0.7283523678779602	154274.82618794616
0.7306615710258484	147382.2174758076
0.7329838871955872	139928.27390862018
0.7353196740150452	133259.56099057005
0.7376693487167358	128111.87134447212
0.7400332689285278	122592.41657680809
0.7424117922782898	117959.22418479172
0.7448052167892456	115300.42788104255
0.7472138404846191	111959.41122164237
0.7496379613876343	104779.26064468731
0.7520779371261597	93721.60793769275
0.7545340061187744	78825.73775016703
0.7570064663887024	59119.360557129556
0.7594954967498779	37353.89641341256
0.7620013952255249	18475.465790727514
0.7645244002342224	6709.56480298873
0.7670646905899048	2148.1628837287267
0.7696225643157959	2400.8917335692745
0.7721980810165405	8334.782492179134
0.7747915983200073	23003.692404672525
0.7774031162261963	41751.7861019234
0.7800329327583313	60699.913059225604
0.7826811671257019	90107.92394212207
0.7853479981422424	128062.44595792353
0.7880334854125977	165464.17052672358
0.7907378077507019	200320.19870478308
0.7934610247612	225509.90207045252
0.7962033748626709	274614.495658133
0.7989648580551147	369711.61925341375
0.801745593547821	470732.28422703565
0.8045456409454346	564389.0652768089
0.8073651194572449	664931.169366154
0.8102040886878967	777175.2927777906
0.8130625486373901	902032.9112187925
0.8159406185150146	1043695.9522224792
0.8188382983207703	1205725.726853607
0.8217556476593018	1383995.623939173
0.8246926665306091	1584141.6958875118
0.8276493549346924	1807666.4545543708
0.8306257724761963	2043023.7275290391
0.8336219191551208	2295208.1769593298
0.8366377949714661	2581188.0713261617
0.8396733403205872	2908145.3516725753
0.8427285552024841	3266827.5824475004
0.8458034992218018	3627606.0828540097
0.8488980531692505	3862976.9208446858
0.8520121574401855	4047263.7255920772
0.8551458716392517	4647514.492973065
0.8582990765571594	5476481.310605981
0.8614717125892639	6074132.578100715
0.8646637797355652	6622875.395753576
0.8678751587867737	7287097.680428089
0.8711057901382446	8028897.887302866
0.8743556141853333	8853634.985163184
0.87762451171875	9784610.374913396
0.8809124231338501	10801555.3942822
0.8842192888259888	11901026.649547894
0.8875449895858765	12961546.017132847
0.8908893465995789	13383094.851081224
0.894252359867096	13461340.597549276
0.8976338505744934	15170423.065860074
0.9010337591171265	18108658.96857471
0.9044519662857056	20558356.45041025
0.9078882932662964	22579171.500281833
0.9113426208496094	24472643.192858797
0.914814829826355	26419106.936043207
0.9183048605918884	28660892.474201847
0.9218124747276306	30718496.72132124
0.925337553024292	29940725.48645761
0.9288799166679382	26364444.502357513
0.9324395060539246	25749247.189227153
0.9360161423683167	30306055.054005776
0.9396095871925354	36268724.00930261
0.943219780921936	39795895.762028486
0.9468464851379395	41115144.856412984
0.9504896402359009	42826131.270238906
0.9541489481925964	44822568.03167332
0.9578243494033813	46354000.92365205
0.9615156054496765	48612724.81157878
0.9652225375175476	52522861.35261016
0.9689450263977051	57064413.58907031
0.9726828336715698	61278012.9701023
0.9764357805252075	65412772.95104392
0.9802037477493286	69746154.9856996
0.983986496925354	74324269.21238169
0.9877838492393494	79118886.9892289
0.9915955662727356	82846651.16282476
0.9954215884208679	82141051.0352926
0.9992615580558777	76717475.01201673
1.0031154155731201	74667838.35344459
1.0069829225540161	79548696.4473755
1.0108637809753418	86645404.08764477
1.0147579908370972	93169831.29282714
1.018665075302124	98477706.92292638
1.022585153579712	102932237.34636179
1.0265177488327026	107037274.45450135
1.0304628610610962	111099668.97836697
1.0344202518463135	114994737.9381736
1.0383895635604858	118513482.07291885
1.0423706769943237	121666046.26663412
1.0463634729385376	124540275.54582074
1.0503677129745483	127284824.36194469
1.0543830394744873	129848313.26164708
1.058409333229065	132192510.39869428
1.0624464750289917	134427042.52734897
1.0664942264556885	136463906.56452623
1.0705522298812866	138175882.02089113
1.0746204853057861	139653001.32782644
1.0786986351013184	140926829.0461341
1.0827864408493042	141441835.74129236
1.086883783340454	139217802.5607613
1.0909905433654785	131905465.71841915
1.0951062440872192	120376304.9022121
1.0992310047149658	107696110.33076058
1.10336434841156	94715636.51500064
1.1075061559677124	80838774.19074398
1.1116561889648438	67660292.39379007
1.115814208984375	59779997.9829488
1.1199802160263062	56817235.181521215
1.124153733253479	56323802.09789717
1.1283347606658936	56069574.3720739
1.1325229406356812	50712783.661062606
1.1367181539535522	50372101.130750984
1.1409201622009277	59517716.90303766
1.145128846168518	62706446.16536599
1.1493438482284546	56190665.03854942
1.1535650491714478	46233546.55697983
1.1577922105789185	40604314.02267569
1.1620250940322876	38550049.08675982
1.1662636995315552	37958875.47665809
1.170507550239563	43269090.60332815
1.174756646156311	50772832.65161834
1.1790107488632202	60753910.917717576
1.1832695007324219	76473440.05869816
1.1875330209732056	91260384.64175528
1.191800832748413	104564221.67538829
1.1960728168487549	118432217.21924213
1.2003488540649414	129414289.4988475
1.2046287059783936	138306459.8448808
1.2089121341705322	146025509.34622115
1.2131990194320679	152371459.14173946
1.2174891233444214	157881344.15934986
1.2217823266983032	162163453.55955437
1.2260783910751343	165536565.19658962
1.230377197265625	168729339.16948426
1.2346785068511963	171729941.53641376
1.238982081413269	173263317.02346194
1.2432878017425537	173302578.9719212
1.2475954294204712	173722066.8584937
1.2519049644470215	172941318.17868114
1.256216049194336	176130817.1061282
1.2605286836624146	182204249.12397096
1.2648425102233887	183533768.75142324
1.2691574096679688	182638155.68090755
1.2734732627868652	181407956.6773219
1.2777899503707886	179966279.60138282
1.2821072340011597	177542004.8292114
1.2864248752593994	174051688.9134135
1.2907428741455078	171019157.90251806
1.2950609922409058	169099121.26848158
1.2993791103363037	167231217.95029527
1.303696870803833	164084730.80443648
1.3080145120620728	158169615.81427425
1.3123314380645752	150399742.67625004
1.3166478872299194	145754897.8113796
1.3209635019302368	141171752.54821414
1.3252781629562378	123081999.11838979
1.3295916318893433	84212095.51040743
1.3339040279388428	41844010.241061375
1.3382149934768677	17742314.763796896
1.3425244092941284	9382550.237511432
1.3468321561813354	6438300.137939926
1.3511382341384888	4951719.770503433
1.3554422855377197	4053302.230781775
1.3597444295883179	4067542.4854888376
1.3640443086624146	5054774.516948614
1.3683418035507202	5819877.098178723
1.3726370334625244	6323335.151919085
1.3769296407699585	7391813.769623133
1.381219506263733	7575688.953554262
1.3855066299438477	6727716.202264237
1.3897908926010132	6271112.079578832
1.3940720558166504	5978093.441889819
1.3983501195907593	5720166.009323696
1.4026249647140503	5851184.0674738055
1.4068963527679443	5948228.535399317
1.4111642837524414	5818257.469727925
1.4154287576675415	5981588.592266174
1.419689416885376	6137585.833224264
1.4239463806152344	6396984.799342475
1.4281994104385376	7577422.115258783
1.4324485063552856	8932283.33551387
1.436693549156189	9741020.370858006
1.440934419631958	10644675.446664948
1.4451709985733032	12094572.138603367
1.449403166770935	14775118.505285418
1.453631043434143	17865077.305221803
1.4578542709350586	20261645.693418235
1.4620729684829712	21518645.48049839
1.4662868976593018	21598836.35057357
1.4704961776733398	21841742.94307265
1.4747005701065063	23559273.205863927
1.4788999557495117	25909791.574457526
1.4830944538116455	27625053.868128248
1.4872838258743286	29159856.79511208
1.491468071937561	31173915.621994928
1.4956470727920532	33949981.58172788
1.4998208284378052	37261307.74732532
1.5039892196655273	40877960.7676201
1.5081522464752197	44426079.65902614
1.5123097896575928	48455029.14124317
1.5164618492126465	52891903.406019635
1.5206083059310913	57798046.791650236
1.5247491598129272	63183879.51955669
1.5288842916488647	68199127.45746376
1.5330137014389038	73695086.34156321
1.5371372699737549	79673178.06161116
1.541254997253418	85149119.26032999
1.545366883277893	91188148.49381533
1.5494728088378906	97008957.36254981
1.5535727739334106	100985888.1381111
1.5576666593551636	103780256.98258503
1.561754584312439	106983019.18907845
1.5658363103866577	110942923.54386556
1.5699119567871094	114002999.38758278
1.5739814043045044	115369149.4768525
1.5780447721481323	115219463.8398277
1.582101821899414	114630653.0774358
1.5861525535583496	114397975.9771274
1.5901970863342285	113556527.78898121
1.5942351818084717	111902213.07627346
1.5982669591903687	110141155.31197736
1.6022924184799194	107253249.36364152
1.606311559677124	103029456.44862789
1.6103241443634033	98605853.72080065
1.6143304109573364	93521316.31238566
1.6183301210403442	89371380.47125077
1.6223233938217163	91744254.03883223
1.6263102293014526	96026944.42442691
1.6302905082702637	93537744.45404239
1.634264349937439	87895281.54147857
1.638231635093689	84435399.68776649
1.6421923637390137	82059654.6267374
1.646146535873413	80403166.50175634
1.6500942707061768	81507816.20758675
1.6540353298187256	81040507.17802073
1.6579699516296387	76739571.27888523
1.661897897720337	72956573.67275958
1.6658192873001099	66013353.51073544
1.6697341203689575	58315901.33204924
1.6736423969268799	60707054.607587256
1.677544116973877	68317979.28710765
1.6814392805099487	67899121.77352525
1.6853278875350952	58509492.83593364
1.6892099380493164	50191218.68005911
1.6930854320526123	47099902.6301733
1.696954369544983	46566904.33595208
1.7008168697357178	48354888.61712068
1.7046726942062378	50801485.09705929
1.708522081375122	51207385.918535545
1.712364912033081	50826730.4058978
1.7162011861801147	50626454.97585148
1.7200311422348022	48307652.9036973
1.723854422569275	44075168.14014193
1.7276713848114014	42078096.32284956
1.731481909751892	42105093.326321475
1.7352858781814575	40418626.265484124
1.7390835285186768	36887504.59878428
1.7428747415542603	33544399.158432834
1.7466596364974976	31025952.681432594
1.7504380941390991	29356050.434572063
1.7542102336883545	27626220.92064609
1.7579760551452637	26538773.85824882
1.7617355585098267	26329184.410197385
1.7654887437820435	24485335.609396257
1.7692357301712036	21169063.39845172
1.7729763984680176	18519523.06515538
1.776710867881775	17020600.45067313
1.7804391384124756	16051916.308982868
1.7841613292694092	14655725.55741104
1.7878772020339966	13890857.733634371
1.7915871143341064	13578249.754030278
1.7952908277511597	13023109.054956295
1.7989884614944458	12432962.507807763
1.8026801347732544	10892020.045755185
1.806365728378296	10128471.804547805
1.8100452423095703	10933783.964821393
1.8137187957763672	11978589.28582543
1.817386507987976	11517483.639295029
1.8210482597351074	11386046.838872066
1.8247040510177612	12804779.21395616
1.828354001045227	12135939.805651609
1.8319982290267944	10472957.95903384
1.8356364965438843	9741602.321779542
1.8392690420150757	9488590.541934598
1.8428958654403687	9800805.88019811
1.8465168476104736	9603869.781337257
1.8501322269439697	9397914.18775815
1.8537418842315674	9154975.596951794
1.8573459386825562	7905114.325403834
1.860944390296936	6806936.079852082
1.864537239074707	6459561.611026812
1.8681244850158691	6513525.0259742765
1.871706247329712	7290184.545782104
1.8752825260162354	9138842.2667942
1.8788533210754395	11684556.310391732
1.8824186325073242	13662456.908094527
1.8859784603118896	14199751.754809499
1.8895330429077148	14261815.893392218
1.8930821418762207	15798637.194600081
1.8966259956359863	17250809.097418
1.9001644849777222	16133861.124832414
1.9036977291107178	14936178.790649429
1.9072256088256836	15613896.187129281
1.9107483625411987	15709519.470032059
1.9142658710479736	15154364.54128262
1.9177782535552979	15512049.679304998
1.9212853908538818	14727033.91842765
1.9247875213623047	13159265.711005481
1.9282845258712769	12155610.000202812
1.9317764043807983	11198184.675469203
1.9352631568908691	10287323.001293147
1.9387450218200684	9231736.92947796
1.942221760749817	9382708.811925728
1.9456936120986938	10519411.71364841
1.9491604566574097	11214885.609943815
1.952622413635254	11238895.433543328
1.956079363822937	10749062.252474329
1.959531545639038	10843064.084852448
1.962978720664978	11550448.680408143
1.966421127319336	12676895.53039078
1.9698586463928223	13269429.71577982
1.9732913970947266	12896414.770614592
1.9767193794250488	13286076.70379348
1.9801424741744995	14186265.539946277
1.9835609197616577	15428314.69983025
1.9869745969772339	16261151.304018175
1.990383505821228	15657724.604269953
1.9937876462936401	16522980.666323526
1.9971871376037598	17982034.619357456
2.000581979751587	18773096.58805345
2.003972291946411	20138584.932805296
2.007357597351074	20312526.290785164
2.0107386112213135	20801614.143089116
2.0141148567199707	22432251.913818937
2.017486572265625	22860899.558396526
2.0208535194396973	24424823.51282799
2.0242159366607666	26446683.606939513
2.027573823928833	26064049.10060143
2.0309269428253174	26593855.77881276
2.034275770187378	28991824.358930673
2.0376198291778564	30243203.336563643
2.040959596633911	30266369.581509594
2.044294595718384	31292520.184528418
2.0476250648498535	33036406.337888796
2.0509510040283203	33337156.17627141
2.054272413253784	33585038.19850721
2.057589530944824	35408365.993801236
2.0609018802642822	36177552.6622192
2.0642096996307373	35874727.35060446
2.0675129890441895	36440896.052772544
2.0708119869232178	36834781.19812713
2.074106216430664	36637150.037064694
2.0773961544036865	36696219.67596448
2.080681324005127	37079277.90247358
2.0839622020721436	37342177.41676422
2.087238311767578	37493748.1467028
2.090510129928589	37679684.27328009
2.0937774181365967	37678928.109305896
2.0970399379730225	37543933.92643297
2.1002981662750244	37331767.66757003
2.1035518646240234	36987834.968124926
2.1068007946014404	36833518.80221567
2.1100454330444336	36816311.45694755
2.1132853031158447	36716790.98822507
2.116520881652832	36340195.66346142
2.1197516918182373	36022534.3297578
2.1229779720306396	36078688.5849139
2.12619948387146	35944459.839663684
2.1294167041778564	35512590.69898011
2.132629156112671	35300528.61138562
2.1358368396759033	35088170.678854555
2.139039993286133	34477613.036516525
2.1422386169433594	33806081.53365483
2.145432472229004	33356225.088435672
2.1486217975616455	33023953.20548881
2.151806354522705	32729670.716124173
2.1549863815307617	32532911.812387697
2.1581614017486572	32249805.760512825
2.16133189201355	31821260.91413395
2.1644976139068604	31382733.18016949
2.167658567428589	30891393.861815456
2.1708147525787354	30380210.205982402
2.173966407775879	29805915.78406654
2.1771130561828613	29195797.260481857
2.1802549362182617	28675472.935824595
2.183391809463501	28031914.179278646
2.1865241527557373	27166161.57317342
2.1896514892578125	26067274.386005845
2.1927738189697266	24570465.513816487
2.1958916187286377	22390794.355569944
2.1990041732788086	19732683.076785706
2.2021119594573975	17425675.96309898
2.2052149772644043	16142833.854764966
2.208312749862671	16282045.539586153
2.2114057540893555	17487996.522533275
2.214493751525879	18891928.003097594
2.217576742172241	19655203.040757764
2.2206547260284424	19600916.648346618
2.2237277030944824	19359127.94536088
2.2267956733703613	18856236.734127894
2.2298583984375	18206942.979884148
2.2329163551330566	17847097.8230873
2.235969066619873	17527480.025692478
2.2390167713165283	16835423.309709225
2.2420592308044434	15945272.398548873
2.2450966835021973	15320646.265671184
2.248128890991211	15029675.403060503
2.2511560916900635	14988232.611025112
2.254178285598755	14930073.464272434
2.257194995880127	14842713.586572893
2.260206699371338	14816476.412005795
2.2632133960723877	14731447.634072328
2.266214609146118	14612637.08031031
2.2692108154296875	14493033.620789466
2.2722020149230957	14423481.835894626
2.2751877307891846	14321120.610160466
2.278168201446533	14088570.980778014
2.2811436653137207	13678898.310267981
2.284113883972168	13162778.508901102
2.287078857421875	12733217.441058863
2.290038824081421	12098253.109904436
2.2929933071136475	11482640.218316127
2.295942783355713	11327595.734810533
2.298887014389038	11634945.528377282
2.301826238632202	12254391.663575277
2.304760217666626	12992286.184926232
2.3076889514923096	13936271.1981074
2.310612440109253	14787047.169522386
2.3135311603546143	14369852.052773083
2.3164443969726562	11798113.599546382
2.319352865219116	9431478.269803127
2.322256088256836	8997087.339435847
2.3251543045043945	9067354.877508013
2.328047275543213	9087030.31120993
2.330935478210449	9174278.844930064
2.3338186740875244	9350174.17911779
2.3366971015930176	9563088.841706412
2.3395702838897705	9571345.325678354
2.3424389362335205	9466131.05358834
2.3453025817871094	9497529.207904557
2.348161458969116	9710310.04177222
2.351015567779541	9950065.230289064
2.353865146636963	10403041.70807117
2.3567099571228027	10997134.06268047
2.3595502376556396	11615103.219825624
2.3623859882354736	12312354.91318036
2.3652172088623047	12627433.12371291
2.368043899536133	11536125.87266338
2.370866537094116	9236295.200396629
2.3736846446990967	8501767.198471453
2.3764986991882324	9178179.70689361
2.3793084621429443	9260751.798501013
2.3821144104003906	9047897.895884398
2.384916305541992	9343732.46997773
2.387714147567749	10295357.165257106
2.3905084133148193	11085605.286078857
2.393299102783203	11301587.149628479
2.3960859775543213	11533398.09842337
2.398869514465332	12090607.316552935
2.4016497135162354	12407354.610917859
2.4044265747070312	12373263.765932584
2.407200336456299	12090560.100878604
2.409970998764038	12139319.148691906
2.4127390384674072	12489390.955509769
2.415503978729248	12036836.877209155
2.418266534805298	11561865.236386439
2.4210267066955566	12108712.887402344
2.4237842559814453	12488440.543164536
2.426539897918701	12159665.502645595
2.429293394088745	12253324.443013113
2.4320452213287354	12362889.382128833
2.4347951412200928	11435112.581243197
2.4375438690185547	11379864.972530272
2.440291166305542	12266813.524632283
2.443037271499634	11673812.896608705
2.445782423019409	10573520.2755237
2.4485268592834473	10513120.516512124
2.451270818710327	10141238.662451051
2.454014539718628	9690290.936278254
2.4567582607269287	10800855.681424
2.4595019817352295	10944152.715817919
2.4622461795806885	10575864.258169854
2.4649908542633057	10987130.083624989
2.4677364826202393	9790663.360781861
2.4704833030700684	8340089.429376601
2.473231554031372	7661913.401681887
2.4759814739227295	7477462.3955794
2.4787333011627197	7843173.479276782
