#wavelength	surface flux
0.6450077295303345	388489.58224722336
0.6472567915916443	625309.631915768
0.6494921445846558	844876.3222889625
0.6517150402069092	1006783.8503519885
0.6539263725280762	1183161.5458860267
0.6561272740364075	1375691.273693014
0.6583186388015747	1582655.2173432708
0.6605015397071838	1813746.6292911698
0.6626768708229065	2067943.6771622289
0.6648455858230591	2336249.7185086445
0.6670085787773132	2607274.1854511253
0.6691668033599854	2852854.3610875984
0.6713210344314575	3106136.1271450585
0.6734722256660461	3430261.6916608578
0.6756211519241333	3757613.4064302165
0.6777685880661011	4015073.408290677
0.6799154281616211	4219609.150168147
0.6820623278617859	4353529.847653442
0.6842101216316223	4397250.374719167
0.6863595843315125	4330211.510973974
0.688511312007904	4128506.673411403
0.6906660795211792	3894284.0475329044
0.6928245425224304	3718520.863717817
0.6949873566627502	3608075.5129688703
0.6971551775932312	3567210.9574600104
0.6993286609649658	3628094.924957048
0.7015084028244019	3824420.5870484207
0.7036949396133423	4052047.5079515204
0.7058889269828796	4199568.87051442
0.7080909013748169	4272780.026816989
0.710301399230957	4335879.925914797
0.712520956993103	4424772.260553243
0.7147500514984131	4498772.164522155
0.7169892191886902	4522891.914288747
0.7192389369010925	4481733.500301052
0.7214996814727783	4382153.030849232
0.723771870136261	4257841.423901784
0.7260559797286987	4102110.078800843
0.7283523678779602	3903619.3045606515
0.7306615710258484	3653721.384244683
0.7329838871955872	3320159.2850553486
0.7353196740150452	2958760.2048190744
0.7376693487167358	2642255.795109909
0.7400332689285278	2321944.1442764583
0.7424117922782898	2023217.180010811
0.7448052167892456	1794948.008489196
0.7472138404846191	1582100.4166805802
0.7496379613876343	1341241.3718340117
0.7520779371261597	1091524.9636692128
0.7545340061187744	862438.8247301123
0.7570064663887024	646916.2368040856
0.7594954967498779	448075.0541464501
0.7620013952255249	264054.4234190745
0.7645244002342224	109005.98121953434
0.7670646905899048	25540.1553948446
0.7696225643157959	12875.883792842389
0.7721980810165405	63295.30171865411
0.7747915983200073	233324.1969936517
0.7774031162261963	498931.43694744207
0.7800329327583313	822576.6865374958
0.7826811671257019	1369839.1092874915
0.7853479981422424	2124321.690367687
0.7880334854125977	2922360.330392307
0.7907378077507019	3638136.9850535775
0.7934610247612	4092278.538922963
0.7962033748626709	4929989.655644946
0.7989648580551147	6532966.556180622
0.801745593547821	8076256.151975307
0.8045456409454346	9320540.991879852
0.8073651194572449	10585778.852563685
0.8102040886878967	11915418.444378106
0.8130625486373901	13284079.2911181
0.8159406185150146	14543150.459825644
0.8188382983207703	15655465.753951484
0.8217556476593018	17012712.874768857
0.8246926665306091	18563969.200213205
0.8276493549346924	19951482.291155558
0.8306257724761963	21213352.20302666
0.8336219191551208	22434066.461804204
0.8366377949714661	23640231.608437106
0.8396733403205872	24872984.90206941
0.8427285552024841	26163182.37717238
0.8458034992218018	27360211.181893386
0.8488980531692505	27652946.754765112
0.8520121574401855	27170722.20786531
0.8551458716392517	28358791.910033032
0.8582990765571594	29936254.650262475
0.8614717125892639	29091051.863685127
0.8646637797355652	28171956.77893326
0.8678751587867737	29058592.10466773
0.8711057901382446	30658687.124220237
0.8743556141853333	32556252.44706638
0.87762451171875	34832065.888398275
0.8809124231338501	37058734.29291152
0.8842192888259888	39041790.335091
0.8875449895858765	40587457.36497459
0.8908893465995789	40802271.2232083
0.894252359867096	40238953.92669758
0.8976338505744934	41752133.37403133
0.9010337591171265	44535288.52645237
0.9044519662857056	46307201.99063558
0.9078882932662964	47397238.74978373
0.9113426208496094	48161909.49799515
0.914814829826355	48844494.64851248
0.9183048605918884	49656835.15710957
0.9218124747276306	50328664.87006891
0.925337553024292	49329323.92909935
0.9288799166679382	46801694.81297188
0.9324395060539246	46098214.499213666
0.9360161423683167	48140509.14536741
0.9396095871925354	50756327.35723022
0.943219780921936	52246567.04926539
0.9468464851379395	52697883.526156075
0.9504896402359009	53265530.19353301
0.9541489481925964	54136735.57901865
0.9578243494033813	54955040.30083052
0.9615156054496765	55916611.979615405
0.9652225375175476	57308132.938577816
0.9689450263977051	58816763.85066936
0.9726828336715698	60114669.963641986
0.9764357805252075	61277116.147339724
0.9802037477493286	62402466.91620089
0.983986496925354	63534091.35525016
0.9877838492393494	65319319.57531912
0.9915955662727356	67736624.5478603
0.9954215884208679	69061671.81114763
0.9992615580558777	69324528.12764339
1.0031154155731201	70291674.72237083
1.0069829225540161	71941779.30580045
1.0108637809753418	73405756.76090966
1.0147579908370972	74525472.53351964
1.018665075302124	75335298.68431361
1.022585153579712	76152112.29993552
1.0265177488327026	77305880.79346716
1.0304628610610962	78149267.22583008
1.0344202518463135	78394191.65557283
1.0383895635604858	78699227.51590621
1.0423706769943237	79579042.8526176
1.0463634729385376	81299399.7803751
1.0503677129745483	83636278.411507
1.0543830394744873	85776792.60466039
1.058409333229065	87096159.2410752
1.0624464750289917	87444441.7907399
1.0664942264556885	87063527.25908524
1.0705522298812866	86330715.65316951
1.0746204853057861	85498087.33940707
1.0786986351013184	84788277.15884809
1.0827864408493042	84474155.58770302
1.086883783340454	84834122.71083733
1.0909905433654785	85556098.1222874
1.0951062440872192	85642516.0903418
1.0992310047149658	84508730.36637236
1.10336434841156	82603063.05191445
1.1075061559677124	80413300.11702861
1.1116561889648438	78311055.30667968
1.115814208984375	77293592.8347745
1.1199802160263062	77918693.61765975
1.124153733253479	79848719.37589295
1.1283347606658936	80947444.99388255
1.1325229406356812	79009989.97694123
1.1367181539535522	79230487.10737546
1.1409201622009277	83345339.38489889
1.145128846168518	85572660.6602919
1.1493438482284546	85918242.78875187
1.1535650491714478	85534206.43107153
1.1577922105789185	84954665.57512349
1.1620250940322876	85072936.47828923
1.1662636995315552	85499936.92824498
1.170507550239563	86995043.03792591
1.174756646156311	89114402.59233105
1.1790107488632202	92178363.08079037
1.1832695007324219	96673898.44348535
1.1875330209732056	100272232.2140072
1.191800832748413	102791480.56846452
1.1960728168487549	105167895.72293533
1.2003488540649414	107008250.84837414
1.2046287059783936	108231673.2409703
1.2089121341705322	109098172.7419306
1.2131990194320679	109780070.04468575
1.2174891233444214	110363010.53539425
1.2217823266983032	110904838.02942279
1.2260783910751343	111228903.74796127
1.230377197265625	111514843.35655876
1.2346785068511963	111991682.82054742
1.238982081413269	112760457.74615388
1.2432878017425537	113423272.6079469
1.2475954294204712	113494418.7101783
1.2519049644470215	113654879.3584508
1.256216049194336	113641554.86255668
1.2605286836624146	113389295.2542175
1.2648425102233887	113542969.28295699
1.2691574096679688	113725464.48545876
1.2734732627868652	113808022.58126837
1.2777899503707886	113803938.41748375
1.2821072340011597	113846950.03926632
1.2864248752593994	114175537.36794998
1.2907428741455078	114423868.13048643
1.2950609922409058	114487855.24607879
1.2993791103363037	114768260.4563275
1.303696870803833	115350741.92266965
1.3080145120620728	116357427.98257305
1.3123314380645752	117318764.02042744
1.3166478872299194	118017918.04647027
1.3209635019302368	118292980.91245581
1.3252781629562378	116009896.97269666
1.3295916318893433	106439491.36045855
1.3339040279388428	87958666.84392457
1.3382149934768677	70463344.65411304
1.3425244092941284	60857122.49157921
1.3468321561813354	54452463.08482024
1.3511382341384888	48453369.1472392
1.3554422855377197	44377847.63860237
1.3597444295883179	44628968.46272509
1.3640443086624146	48517154.51900544
1.3683418035507202	50666585.448551685
1.3726370334625244	50772412.000494756
1.3769296407699585	53476368.92106347
1.381219506263733	56013640.90660591
1.3855066299438477	56374946.07088511
1.3897908926010132	55715931.20429567
1.3940720558166504	53139323.46752123
1.3983501195907593	50779459.41753066
1.4026249647140503	50377918.56689053
1.4068963527679443	49438192.0027988
1.4111642837524414	47585095.80525347
1.4154287576675415	46815637.61618316
1.419689416885376	45675144.59994726
1.4239463806152344	44230029.11653069
1.4281994104385376	45263735.85952266
1.4324485063552856	48260510.862806074
1.436693549156189	50876722.20169044
1.440934419631958	52620352.38631435
1.4451709985733032	54700532.652600236
1.449403166770935	59652221.71557256
1.453631043434143	65955011.36681896
1.4578542709350586	70342604.39942984
1.4620729684829712	71839755.74335156
1.4662868976593018	71850505.43287504
1.4704961776733398	72719706.61573641
1.4747005701065063	75070240.57515518
1.4788999557495117	78068488.99145885
1.4830944538116455	80649970.70844598
1.4872838258743286	82800888.86318052
1.491468071937561	84750883.4725465
1.4956470727920532	87464098.18375894
1.4998208284378052	90567261.35029799
1.5039892196655273	93709344.79182354
1.5081522464752197	97185189.66928405
1.5123097896575928	100944771.30572648
1.5164618492126465	104510382.06991199
1.5206083059310913	108119267.4939513
1.5247491598129272	111985350.8942006
1.5288842916488647	115250768.58853088
1.5330137014389038	118492226.88741967
1.5371372699737549	122205342.44976276
1.541254997253418	125673969.52970578
1.545366883277893	129009528.63705027
1.5494728088378906	131950480.29177368
1.5535727739334106	133504824.33207129
1.5576666593551636	133483710.67465867
1.561754584312439	134011086.90021989
1.5658363103866577	136754567.77173835
1.5699119567871094	139967332.97516122
1.5739814043045044	141948176.74079052
1.5780447721481323	142203930.73151302
1.582101821899414	142295649.95039928
1.5861525535583496	143258166.17964858
1.5901970863342285	144199895.09491745
1.5942351818084717	144799298.60190567
1.5982669591903687	145133191.6457804
1.6022924184799194	145178668.64719963
1.606311559677124	145163514.98451078
1.6103241443634033	145158798.6463323
1.6143304109573364	144959827.26502016
1.6183301210403442	144708743.8634457
1.6223233938217163	145044787.15887648
1.6263102293014526	145513835.54956704
1.6302905082702637	145245612.71792588
1.634264349937439	144678978.5149124
1.638231635093689	144320021.68776566
1.6421923637390137	143965914.1476119
1.646146535873413	143634893.47946376
1.6500942707061768	143697174.819747
1.6540353298187256	143671193.70031214
1.6579699516296387	143091350.29138312
1.661897897720337	142375420.45840737
1.6658192873001099	141256823.19963694
1.6697341203689575	139913804.10959056
1.6736423969268799	139955440.37167835
1.677544116973877	141258166.8527606
1.6814392805099487	141568229.0084098
1.6853278875350952	140083767.80385166
1.6892099380493164	138374608.85751176
1.6930854320526123	137642797.72429657
1.696954369544983	137604480.04476184
1.7008168697357178	138291021.1593373
1.7046726942062378	138799412.44287688
1.708522081375122	137959007.3870596
1.712364912033081	136220677.1036125
1.7162011861801147	133761459.60913081
1.7200311422348022	131055484.40296564
1.723854422569275	128371678.70435935
1.7276713848114014	125746057.53186806
1.731481909751892	123275749.71885838
1.7352858781814575	120377400.38556229
1.7390835285186768	116924254.42451215
1.7428747415542603	113117487.2752499
1.7466596364974976	109369421.39114954
1.7504380941390991	106353343.14598215
1.7542102336883545	102888063.12696163
1.7579760551452637	99600013.94465879
1.7617355585098267	97924456.83228138
1.7654887437820435	94882484.80393502
1.7692357301712036	89578237.02470863
1.7729763984680176	84522532.67617108
1.776710867881775	80885815.15231265
1.7804391384124756	77872351.42130421
1.7841613292694092	73277712.59879121
1.7878772020339966	70374742.5163195
1.7915871143341064	69456378.03120881
1.7952908277511597	68326506.52531359
1.7989884614944458	65741959.87456544
1.8026801347732544	61055665.29451209
1.806365728378296	58502636.574467406
1.8100452423095703	58886228.854036234
1.8137187957763672	61730606.68802338
1.817386507987976	60460018.679525636
1.8210482597351074	57551724.677044444
1.8247040510177612	60311242.42237956
1.828354001045227	60958637.97664943
1.8319982290267944	58219205.28322283
1.8356364965438843	56007323.89265083
1.8392690420150757	54271112.379376024
1.8428958654403687	51910790.70560177
1.8465168476104736	48683850.113163285
1.8501322269439697	48569827.21713073
1.8537418842315674	48299209.70817639
1.8573459386825562	42984019.13009244
1.860944390296936	38782838.98326718
1.864537239074707	39578794.31901639
1.8681244850158691	42720102.049055
1.871706247329712	45830302.67265579
1.8752825260162354	48218946.186962485
1.8788533210754395	52083617.17801357
1.8824186325073242	57641763.81081629
1.8859784603118896	61074637.259980835
1.8895330429077148	61143565.886257224
1.8930821418762207	62165665.78704005
1.8966259956359863	65721823.90370475
1.9001644849777222	67402308.2100925
1.9036977291107178	66715851.88175272
1.9072256088256836	67232777.907812
1.9107483625411987	67700523.3591529
1.9142658710479736	67609129.07683355
1.9177782535552979	67865338.8921759
1.9212853908538818	65790180.773406476
1.9247875213623047	63446330.557523705
1.9282845258712769	62153590.81240871
1.9317764043807983	59429453.408304974
1.9352631568908691	55628181.02225979
1.9387450218200684	50720588.15627365
1.942221760749817	50027138.81128669
1.9456936120986938	54112840.5346077
1.9491604566574097	56136393.6597983
1.952622413635254	54540608.367245354
1.956079363822937	52212633.519936204
1.959531545639038	52385488.105066635
1.962978720664978	53357838.42030427
1.966421127319336	55096373.59680772
1.9698586463928223	56658231.64438798
1.9732913970947266	55523385.996806666
1.9767193794250488	55106486.43262506
1.9801424741744995	56072342.18408041
1.9835609197616577	57738161.71882879
1.9869745969772339	58772448.04192559
1.990383505821228	57473488.77737107
1.9937876462936401	59023256.373094685
1.9971871376037598	60750231.695594095
2.000581979751587	61621665.16712141
2.003972291946411	64352669.25659628
2.007357597351074	64655406.309449375
2.0107386112213135	65213573.81291536
2.0141148567199707	67843234.84605533
2.017486572265625	68591245.31317925
2.0208535194396973	71641026.68290006
2.0242159366607666	75554572.48002535
2.027573823928833	74598571.20661359
2.0309269428253174	75648541.37881735
2.034275770187378	80291036.29196085
2.0376198291778564	82649633.28131618
2.040959596633911	83045763.04306301
2.044294595718384	84625438.7921219
2.0476250648498535	87411537.40092169
2.0509510040283203	88355217.16673413
2.054272413253784	89197172.96328457
2.057589530944824	93522046.12951258
2.0609018802642822	95342231.52578557
2.0642096996307373	94634630.56221183
2.0675129890441895	97117443.02994174
2.0708119869232178	98972777.59802999
2.074106216430664	99032366.03684011
2.0773961544036865	100315836.79189153
2.080681324005127	101728805.75154287
2.0839622020721436	102486793.26846899
2.087238311767578	103482192.15962194
2.090510129928589	104779936.87275183
2.0937774181365967	105541918.8690323
2.0970399379730225	105975388.11298604
2.1002981662750244	106667954.5950925
2.1035518646240234	106887841.43433407
2.1068007946014404	106973786.32457516
2.1100454330444336	107529259.90226
2.1132853031158447	108317011.56730486
2.116520881652832	108100957.66354108
2.1197516918182373	107855992.32812327
2.1229779720306396	108881249.69061583
2.12619948387146	109167263.49071226
2.1294167041778564	108383181.62180519
2.132629156112671	108655395.10710178
2.1358368396759033	109181387.68522282
2.139039993286133	108251061.4014671
2.1422386169433594	107684056.79661332
2.145432472229004	108346215.37253113
2.1486217975616455	108253840.2307154
2.151806354522705	107395531.379129
2.1549863815307617	107152259.65731943
2.1581614017486572	107190001.81382176
2.16133189201355	106997042.54688534
2.1644976139068604	106609335.94523093
2.167658567428589	106306515.1556436
2.1708147525787354	105876203.59144218
2.173966407775879	104950221.98144045
2.1771130561828613	103907412.2190883
2.1802549362182617	103586333.7363156
2.183391809463501	103393382.0192706
2.1865241527557373	102584115.67913207
2.1896514892578125	102021117.31554924
2.1927738189697266	101108782.12214026
2.1958916187286377	99265571.79813509
2.1990041732788086	97373695.25158943
2.2021119594573975	95614040.59009726
2.2052149772644043	94447171.87878293
2.208312749862671	94427294.81552397
2.2114057540893555	95151855.38558647
2.214493751525879	95706571.41130948
2.217576742172241	94678885.61274223
2.2206547260284424	93175657.1413258
2.2237277030944824	93451245.54658344
2.2267956733703613	93680703.76020108
2.2298583984375	93243720.27634566
2.2329163551330566	92691409.31788889
2.235969066619873	91677004.71696848
2.2390167713165283	90934956.34702724
2.2420592308044434	89696113.33626726
2.2450966835021973	88559946.48089825
2.248128890991211	88372854.59744203
2.2511560916900635	88357672.02393322
2.254178285598755	88025695.65775152
2.257194995880127	87817997.17533341
2.260206699371338	87883139.11467719
2.2632133960723877	86691198.82186371
2.266214609146118	84897570.80911332
2.2692108154296875	83926026.80506764
2.2722020149230957	84028789.32685396
2.2751877307891846	84881685.02108924
2.278168201446533	84267551.36425182
2.2811436653137207	82653544.65612075
2.284113883972168	82474608.72462533
2.287078857421875	82817239.21425341
2.290038824081421	79543716.2886569
2.2929933071136475	69419265.06141923
2.295942783355713	59333233.22227187
2.298887014389038	56956226.28410698
2.301826238632202	58656648.1994173
2.304760217666626	59926705.83182467
2.3076889514923096	60137567.68885815
2.310612440109253	59806865.94907015
2.3135311603546143	59428246.875238314
2.3164443969726562	58584895.93486317
2.319352865219116	57148975.21897058
2.322256088256836	54111704.5144639
2.3251543045043945	51845353.546021804
2.328047275543213	52404243.73247968
2.330935478210449	53747151.61118434
2.3338186740875244	55316157.24913242
2.3366971015930176	56017538.741847195
2.3395702838897705	55323997.526151195
2.3424389362335205	55208493.86062545
2.3453025817871094	57271540.53966974
2.348161458969116	59394926.9705067
2.351015567779541	57573906.31215387
2.353865146636963	55124910.0467806
2.3567099571228027	54714413.94886971
2.3595502376556396	53991621.248957306
2.3623859882354736	53893728.976854496
2.3652172088623047	54185498.33949463
2.368043899536133	53483923.94302316
2.370866537094116	52855139.62875011
2.3736846446990967	53608727.85429932
2.3764986991882324	53705435.23433663
2.3793084621429443	52568849.76118461
2.3821144104003906	51040153.440566346
2.384916305541992	49523806.63951814
2.387714147567749	50571416.04423397
2.3905084133148193	52945850.99471205
2.393299102783203	53305147.338713944
2.3960859775543213	53078053.04376571
2.398869514465332	53597766.46274756
2.4016497135162354	53298163.24546823
2.4044265747070312	52723788.94427241
2.407200336456299	51054020.34392359
2.409970998764038	49022797.21045162
2.4127390384674072	48795672.597877614
2.415503978729248	48314450.4429143
2.418266534805298	47119969.76051492
2.4210267066955566	47045857.68168293
2.4237842559814453	47067072.95765114
2.426539897918701	46153702.36157311
2.429293394088745	46028901.38214031
2.4320452213287354	44964512.13737736
2.4347951412200928	41991376.576376855
2.4375438690185547	42014607.3537859
2.440291166305542	43867021.24643901
2.443037271499634	42069740.06922918
2.445782423019409	38959689.78604106
2.4485268592834473	38066471.46610984
2.451270818710327	36333906.703810535
2.454014539718628	34729483.25593046
2.4567582607269287	38566677.78568088
2.4595019817352295	39791258.88329728
2.4622461795806885	38283310.796019904
2.4649908542633057	38601421.238609456
2.4677364826202393	35202280.169379935
2.4704833030700684	31519704.341956455
2.473231554031372	29375730.260921188
2.4759814739227295	29146300.037160803
2.4787333011627197	30207846.956674807
2.481487512588501	30175903.202154078
2.4842441082000732	31893300.474790428
