#wavelength	surface flux
0.6450077295303345	4617062.087461682
0.6472567915916443	6598403.119171807
0.6494921445846558	7019735.451519125
0.6517150402069092	7012492.96799283
0.6539263725280762	7484400.0938725965
0.6561272740364075	7025557.188152819
0.6583186388015747	6206241.870739513
0.6605015397071838	5731772.27642975
0.6626768708229065	5267237.62833224
0.6648455858230591	4837718.465447162
0.6670085787773132	4610912.101103674
0.6691668033599854	4509388.939185766
0.6713210344314575	4448125.376926668
0.6734722256660461	4535680.833985066
0.6756211519241333	4902077.592917054
0.6777685880661011	5374707.5660214145
0.6799154281616211	5844957.427210461
0.6820623278617859	6556094.678929661
0.6842101216316223	7343102.446378312
0.6863595843315125	7931459.989944997
0.688511312007904	8689966.880193666
0.6906660795211792	9706446.703039154
0.6928245425224304	10689494.543235255
0.6949873566627502	12149106.120996872
0.6971551775932312	14230236.917740786
0.6993286609649658	16035749.478535023
0.7015084028244019	17933656.123447422
0.7036949396133423	18874441.3814411
0.7058889269828796	15440835.249334628
0.7080909013748169	10487430.473319938
0.710301399230957	8330317.135665092
0.712520956993103	7744967.987266597
0.7147500514984131	7606027.97870375
0.7169892191886902	8315233.06624504
0.7192389369010925	9445849.865874127
0.7214996814727783	10746631.713978382
0.723771870136261	13842130.257940752
0.7260559797286987	19072259.618710067
0.7283523678779602	26724963.65239042
0.7306615710258484	39683476.76936284
0.7329838871955872	54922909.12568836
0.7353196740150452	65749884.553355254
0.7376693487167358	73172445.98110814
0.7400332689285278	75376101.43546095
0.7424117922782898	70494853.70116484
0.7448052167892456	64390175.159079954
0.7472138404846191	62105474.87773923
0.7496379613876343	65243418.65826631
0.7520779371261597	74837809.54541941
0.7545340061187744	90851603.26305099
0.7570064663887024	97248897.03649947
0.7594954967498779	83000950.79078777
0.7620013952255249	64666493.58435145
0.7645244002342224	47972932.74927625
0.7670646905899048	31773979.229123645
0.7696225643157959	26781611.931202296
0.7721980810165405	33761181.03129682
0.7747915983200073	41034852.55898519
0.7774031162261963	44732730.9887258
0.7800329327583313	51719134.49707481
0.7826811671257019	55772674.01408958
0.7853479981422424	52590103.49820945
0.7880334854125977	50650542.76894031
0.7907378077507019	46491766.280455574
0.7934610247612	39601457.2446894
0.7962033748626709	38041454.55342029
0.7989648580551147	42116506.722104065
0.801745593547821	54053495.73591261
0.8045456409454346	76530838.12930574
0.8073651194572449	113289437.43835944
0.8102040886878967	173303433.06035218
0.8130625486373901	251841763.83086157
0.8159406185150146	322801906.0828296
0.8188382983207703	335555650.38199186
0.8217556476593018	287969772.78732896
0.8246926665306091	256448675.0668806
0.8276493549346924	239858523.29459304
0.8306257724761963	214996383.16559356
0.8336219191551208	208641837.64807206
0.8366377949714661	211103919.64015844
0.8396733403205872	207533896.18956548
0.8427285552024841	171481499.0298493
0.8458034992218018	106182457.0028576
0.8488980531692505	71944113.95717162
0.8520121574401855	75064896.37904602
0.8551458716392517	84879071.94625516
0.8582990765571594	93253079.83849141
0.8614717125892639	103087173.89349464
0.8646637797355652	114970055.74000858
0.8678751587867737	127433345.1391344
0.8711057901382446	147392848.28619754
0.8743556141853333	177949230.2360116
0.87762451171875	222529465.43734798
0.8809124231338501	273260630.5146603
0.8842192888259888	287281348.1862287
0.8875449895858765	248572324.11428034
0.8908893465995789	229982947.96741703
0.894252359867096	254197873.7455483
0.8976338505744934	300129026.3587917
0.9010337591171265	368765527.12844324
0.9044519662857056	446844093.9789821
0.9078882932662964	542735681.9263287
0.9113426208496094	647156327.2619534
0.914814829826355	743097988.7667269
0.9183048605918884	761479632.9182918
0.9218124747276306	613360703.1578472
0.925337553024292	429820266.39173585
0.9288799166679382	347016744.14455897
0.9324395060539246	331467677.88176394
0.9360161423683167	350669497.0300448
0.9396095871925354	384100235.3913358
0.943219780921936	417132025.75983274
0.9468464851379395	448991575.9840287
0.9504896402359009	467092059.97319055
0.9541489481925964	460603528.962363
0.9578243494033813	444166679.5376211
0.9615156054496765	435406688.4284003
0.9652225375175476	453757250.7412628
0.9689450263977051	488277275.4415183
0.9726828336715698	504024376.71630067
0.9764357805252075	526169520.8789011
0.9802037477493286	570234301.4710503
0.983986496925354	624269609.8927857
0.9877838492393494	683067818.3956053
0.9915955662727356	717974412.0269287
0.9954215884208679	765416749.6860994
0.9992615580558777	814454010.0519792
1.0031154155731201	822062998.8087069
1.0069829225540161	840839175.7739432
1.0108637809753418	893100036.8457485
1.0147579908370972	921017558.5221449
1.018665075302124	928508648.1927713
1.022585153579712	951851506.508664
1.0265177488327026	965761126.6254532
1.0304628610610962	991829976.7707007
1.0344202518463135	1046055544.4159663
1.0383895635604858	1090777567.6742253
1.0423706769943237	1088408977.770732
1.0463634729385376	987732010.6614828
1.0503677129745483	814506910.0954363
1.0543830394744873	667104650.1906735
1.058409333229065	606987802.2531886
1.0624464750289917	654316274.8574225
1.0664942264556885	770435574.8170942
1.0705522298812866	905420955.5725386
1.0746204853057861	1033702655.6415988
1.0786986351013184	1140036916.2313924
1.0827864408493042	1221381476.3604999
1.086883783340454	1257833593.0962458
1.0909905433654785	1246210514.6173553
1.0951062440872192	1207900298.0683365
1.0992310047149658	1149686829.4746315
1.10336434841156	1049805998.075642
1.1075061559677124	961250246.5782284
1.1116561889648438	955649658.9127325
1.115814208984375	976176313.88554
1.1199802160263062	992950187.6197572
1.124153733253479	1038395648.2466856
1.1283347606658936	1071902816.5885572
1.1325229406356812	1050585110.4703997
1.1367181539535522	1020611394.507874
1.1409201622009277	1025241806.354878
1.145128846168518	1058296543.5839393
1.1493438482284546	1092570392.4901326
1.1535650491714478	1104741450.9208426
1.1577922105789185	1107542663.050405
1.1620250940322876	1111824700.6388018
1.1662636995315552	1095191661.753542
1.170507550239563	1040991922.1026738
1.174756646156311	958612774.8437467
1.1790107488632202	882981951.0475922
1.1832695007324219	847904904.9542828
1.1875330209732056	846000383.117284
1.191800832748413	868996379.6246703
1.1960728168487549	914958942.1018302
1.2003488540649414	973332473.534907
1.2046287059783936	1038320299.3376783
1.2089121341705322	1097940241.6208916
1.2131990194320679	1153405349.8852756
1.2174891233444214	1206467355.1686614
1.2217823266983032	1247546484.4881158
1.2260783910751343	1280942575.7939482
1.230377197265625	1307468883.1064546
1.2346785068511963	1320634988.9584734
1.238982081413269	1300723579.9916832
1.2432878017425537	1257011855.1765997
1.2475954294204712	1252937168.910045
1.2519049644470215	1273099330.8823948
1.256216049194336	1266943810.4890213
1.2605286836624146	1261397694.0511646
1.2648425102233887	1276034468.3286602
1.2691574096679688	1290430682.2344713
1.2734732627868652	1301482017.0754287
1.2777899503707886	1318732538.7806733
1.2821072340011597	1328914392.359008
1.2864248752593994	1329554047.819883
1.2907428741455078	1339823773.314929
1.2950609922409058	1356923013.4896736
1.2993791103363037	1364704578.99661
1.303696870803833	1359754001.6816387
1.3080145120620728	1339146141.2432196
1.3123314380645752	1310224070.6964092
1.3166478872299194	1284696806.6102395
1.3209635019302368	1252465874.5035634
1.3252781629562378	1187668214.4006653
1.3295916318893433	1049959328.8421689
1.3339040279388428	847746897.2824975
1.3382149934768677	692645869.2577541
1.3425244092941284	625675492.5316426
1.3468321561813354	597431516.7886939
1.3511382341384888	576397711.9595517
1.3554422855377197	547846796.9811304
1.3597444295883179	520836031.1452393
1.3640443086624146	501864909.3779404
1.3683418035507202	482466548.5046345
1.3726370334625244	464782578.0211223
1.3769296407699585	473114595.7716014
1.381219506263733	496964930.5386529
1.3855066299438477	505083463.69849783
1.3897908926010132	488944714.20883954
1.3940720558166504	466154731.34127146
1.3983501195907593	450773397.03255266
1.4026249647140503	440582245.59977967
1.4068963527679443	425894680.4408902
1.4111642837524414	404639960.45481086
1.4154287576675415	385981612.7971201
1.419689416885376	373853106.874997
1.4239463806152344	364768711.80492824
1.4281994104385376	359103256.851626
1.4324485063552856	361872711.1756413
1.436693549156189	370066466.25504845
1.440934419631958	380714720.5042983
1.4451709985733032	391614138.83938205
1.449403166770935	404551143.08907706
1.453631043434143	417231514.3398178
1.4578542709350586	422258881.7744115
1.4620729684829712	416889772.9942019
1.4662868976593018	405759280.4849097
1.4704961776733398	397652371.6600714
1.4747005701065063	400067161.2923137
1.4788999557495117	408805465.98491675
1.4830944538116455	418058178.26466197
1.4872838258743286	426504706.93710315
1.491468071937561	430721151.90041035
1.4956470727920532	437475546.34209484
1.4998208284378052	445426501.8936177
1.5039892196655273	452478745.30811346
1.5081522464752197	464347697.6283287
1.5123097896575928	479405589.80197054
1.5164618492126465	490950985.86245733
1.5206083059310913	498569750.5263445
1.5247491598129272	503812038.8441341
1.5288842916488647	509072543.6018067
1.5330137014389038	516281751.5745343
1.5371372699737549	523948894.6868743
1.541254997253418	534182045.4318
1.545366883277893	548974479.5095987
1.5494728088378906	563717839.8646421
1.5535727739334106	571192864.3106314
1.5576666593551636	575071803.858052
1.561754584312439	588130981.6854464
1.5658363103866577	608614761.4404726
1.5699119567871094	625282251.012416
1.5739814043045044	638667460.6635143
1.5780447721481323	649826642.2420045
1.582101821899414	663128911.9924551
1.5861525535583496	679615746.4714502
1.5901970863342285	692510520.6798657
1.5942351818084717	706036301.0797864
1.5982669591903687	721121712.7025775
1.6022924184799194	732088244.1124295
1.606311559677124	742649520.1691378
1.6103241443634033	754345727.0575451
1.6143304109573364	768312142.2307221
1.6183301210403442	780293703.3220556
1.6223233938217163	789117574.5896034
1.6263102293014526	800036114.2967093
1.6302905082702637	810276275.8405249
1.634264349937439	821234099.2623254
1.638231635093689	833342735.2371442
1.6421923637390137	843387210.1653621
1.646146535873413	853705504.7771004
1.6500942707061768	859971710.6037968
1.6540353298187256	866285888.1834427
1.6579699516296387	873704730.5126233
1.661897897720337	879256273.1960123
1.6658192873001099	889131703.2027261
1.6697341203689575	896977686.0337691
1.6736423969268799	904462959.8914777
1.677544116973877	914359588.9335372
1.6814392805099487	918160962.8825998
1.6853278875350952	910068159.2613119
1.6892099380493164	896495135.8745649
1.6930854320526123	883881010.4392425
1.696954369544983	867860785.6092392
1.7008168697357178	853352656.739062
1.7046726942062378	834444589.0390073
1.708522081375122	803254268.6266253
1.712364912033081	767211034.575959
1.7162011861801147	728805324.5622748
1.7200311422348022	703042711.3653318
1.723854422569275	696319810.663517
1.7276713848114014	688798650.226699
1.731481909751892	669180473.6754397
1.7352858781814575	649374081.5398346
1.7390835285186768	641983301.8638425
1.7428747415542603	633355536.0322434
1.7466596364974976	615935470.996522
1.7504380941390991	600742673.8898118
1.7542102336883545	584159755.557855
1.7579760551452637	564351064.7498757
1.7617355585098267	553994087.1838728
1.7654887437820435	547716565.4836026
1.7692357301712036	529151238.4409517
1.7729763984680176	501828933.6946394
1.776710867881775	480020741.3676724
1.7804391384124756	470865978.0244955
1.7841613292694092	463524030.7076451
1.7878772020339966	448835015.00581396
1.7915871143341064	435279142.45406395
1.7952908277511597	426562990.683092
1.7989884614944458	412986685.8891604
1.8026801347732544	397714573.7035574
1.806365728378296	388405767.8993866
1.8100452423095703	383818138.08258176
1.8137187957763672	392100148.38359284
1.817386507987976	390739407.57248515
1.8210482597351074	376943117.4794367
1.8247040510177612	376642604.1598571
1.828354001045227	375526259.1142646
1.8319982290267944	365549629.9577897
1.8356364965438843	359795958.78307265
1.8392690420150757	353727245.7424099
1.8428958654403687	336385496.0387631
1.8465168476104736	318003698.1088499
1.8501322269439697	316510545.7957517
1.8537418842315674	316365172.71963805
1.8573459386825562	293801773.3829613
1.860944390296936	278497405.8209817
1.864537239074707	290467307.8545561
1.8681244850158691	305773863.83078986
1.871706247329712	309188691.4419407
1.8752825260162354	302820686.1754059
1.8788533210754395	303219571.6861758
1.8824186325073242	321806294.2623378
1.8859784603118896	335131878.96898127
1.8895330429077148	326986223.3678693
1.8930821418762207	314680092.96319854
1.8966259956359863	320161154.43511826
1.9001644849777222	335043926.56889045
1.9036977291107178	338961223.8148509
1.9072256088256836	335901733.787013
1.9107483625411987	334339783.0377706
1.9142658710479736	336183238.84769505
1.9177782535552979	335155448.32669586
1.9212853908538818	333746761.5887254
1.9247875213623047	331529548.6632305
1.9282845258712769	325652671.74807197
1.9317764043807983	324294037.95806783
1.9352631568908691	328768896.3780379
1.9387450218200684	327983127.4379387
1.942221760749817	325387038.8415676
1.9456936120986938	329491432.9464932
1.9491604566574097	330281058.41940314
1.952622413635254	324015702.404851
1.956079363822937	323187229.316436
1.959531545639038	329794773.34256124
1.962978720664978	329567762.118456
1.966421127319336	327725621.946362
1.9698586463928223	330677074.4737483
1.9732913970947266	327867587.8304044
1.9767193794250488	321147631.8656768
1.9801424741744995	316201138.47569454
1.9835609197616577	311311389.0327582
1.9869745969772339	306726094.95602643
1.990383505821228	304627648.7865364
1.9937876462936401	308202556.03645205
1.9971871376037598	305488881.68980473
2.000581979751587	298366399.1684051
2.003972291946411	300036871.94375247
2.007357597351074	304590240.4039799
2.0107386112213135	303987610.41511005
2.0141148567199707	300823995.3372809
2.017486572265625	298029605.2922826
2.0208535194396973	301745323.78526974
2.0242159366607666	308256625.8844036
2.027573823928833	306579469.82802945
2.0309269428253174	307446505.03215396
2.034275770187378	310205373.58312804
2.0376198291778564	307072486.6534071
2.040959596633911	305326648.5388816
2.044294595718384	309449725.46181613
2.0476250648498535	313541552.3581522
2.0509510040283203	312803735.12798774
2.054272413253784	314016620.9024168
2.057589530944824	322120674.1652395
2.0609018802642822	321477293.80397016
2.0642096996307373	314460071.1896245
2.0675129890441895	321219345.84996593
2.0708119869232178	328149242.5903657
2.074106216430664	327153939.8540563
2.0773961544036865	330521059.1027374
2.080681324005127	334602315.95598674
2.0839622020721436	336653653.35047364
2.087238311767578	339719982.12721664
2.090510129928589	344933438.9319051
2.0937774181365967	348413054.1067376
2.0970399379730225	350457804.1022125
2.1002981662750244	356136433.15045834
2.1035518646240234	359068832.7167922
2.1068007946014404	358711296.5329416
2.1100454330444336	362760269.95693386
2.1132853031158447	371557928.9788623
2.116520881652832	375614509.8406872
2.1197516918182373	376681955.88121814
2.1229779720306396	382149068.0293178
2.12619948387146	383320248.9515043
2.1294167041778564	381601079.2219369
2.132629156112671	388391717.4139816
2.1358368396759033	395467624.39711225
2.139039993286133	394128415.90534
2.1422386169433594	397881333.7026351
2.145432472229004	408457268.90718156
2.1486217975616455	407327598.0179028
2.151806354522705	402278447.3072545
2.1549863815307617	406878121.48860884
2.1581614017486572	413516773.7961855
2.16133189201355	416669477.0130972
2.1644976139068604	419427368.43399656
2.167658567428589	424385951.70351183
2.1708147525787354	425335856.54348874
2.173966407775879	422302312.28167254
2.1771130561828613	419772956.8440862
2.1802549362182617	421010891.1657601
2.183391809463501	425472118.9459637
2.1865241527557373	429077440.81440645
2.1896514892578125	431467952.04242784
2.1927738189697266	431764630.4024047
2.1958916187286377	434672166.9774501
2.1990041732788086	438962172.4551272
2.2021119594573975	437204094.4235078
2.2052149772644043	434139546.2388733
2.208312749862671	436587235.2739132
2.2114057540893555	442642843.87085366
2.214493751525879	445216101.6180391
2.217576742172241	439440620.18207115
2.2206547260284424	436680769.16345227
2.2237277030944824	444943463.3855972
2.2267956733703613	447804688.6787116
2.2298583984375	446042639.16535074
2.2329163551330566	446162411.1509758
2.235969066619873	444477054.60681915
2.2390167713165283	448775216.6363419
2.2420592308044434	452884563.23029107
2.2450966835021973	454177253.72021073
2.248128890991211	456772437.8194575
2.2511560916900635	454960670.1817503
2.254178285598755	450029900.7883633
2.257194995880127	447966527.1543073
2.260206699371338	447974424.64653313
2.2632133960723877	448112165.55576485
2.266214609146118	450761095.68945754
2.2692108154296875	451140018.40411526
2.2722020149230957	449729601.446385
2.2751877307891846	451330106.58359843
2.278168201446533	448523398.9042148
2.2811436653137207	443856089.3806227
2.284113883972168	445505931.07516634
2.287078857421875	451472287.0218443
2.290038824081421	444855998.81200886
2.2929933071136475	405657734.93121445
2.295942783355713	373269691.5741886
2.298887014389038	382107941.07800883
2.301826238632202	399010640.2887987
2.304760217666626	405706020.14925843
2.3076889514923096	406570538.0847039
2.310612440109253	400495213.70465344
2.3135311603546143	394442210.7899835
2.3164443969726562	394933462.8783976
2.319352865219116	390977714.5703974
2.322256088256836	366570552.4929301
2.3251543045043945	348539321.95840496
2.328047275543213	354777235.46230555
2.330935478210449	359340349.7981686
2.3338186740875244	358756558.7994726
2.3366971015930176	356322792.8199785
2.3395702838897705	351721683.51981056
2.3424389362335205	353157952.276169
2.3453025817871094	358531769.84151906
2.348161458969116	355362225.6017837
2.351015567779541	328380131.1448304
2.353865146636963	303872377.35794383
2.3567099571228027	310366299.3399496
2.3595502376556396	320278174.93828785
2.3623859882354736	322359027.30044585
2.3652172088623047	326947179.1314161
2.368043899536133	331152864.41991526
2.370866537094116	335294331.81345296
2.3736846446990967	334235895.5350224
2.3764986991882324	324112054.34842324
2.3793084621429443	312377188.1187676
2.3821144104003906	295397597.85272354
2.384916305541992	281009597.5112998
2.387714147567749	282668988.36220956
2.3905084133148193	288659667.6586639
2.393299102783203	290900628.945416
2.3960859775543213	291574577.8663765
2.398869514465332	286145370.1900682
2.4016497135162354	278853028.5450583
2.4044265747070312	273632363.4458056
2.407200336456299	262546882.77582526
2.409970998764038	251803549.21744698
2.4127390384674072	247288571.44971454
2.415503978729248	243811231.77149466
2.418266534805298	244412472.72926328
2.4210267066955566	246744470.614042
2.4237842559814453	242801199.45275003
2.426539897918701	234059851.27886128
2.429293394088745	229376639.6206027
2.4320452213287354	228231807.01222146
2.4347951412200928	224670699.80419302
2.4375438690185547	223708486.256656
2.440291166305542	225009431.8278237
2.443037271499634	219991812.56996575
2.445782423019409	215600184.26324758
2.4485268592834473	212613602.6037612
2.451270818710327	203193761.48168388
2.454014539718628	196398629.4630611
2.4567582607269287	201766089.91251263
2.4595019817352295	203054928.79899082
2.4622461795806885	200424895.7696458
2.4649908542633057	204324809.77166852
2.4677364826202393	200845163.74134815
2.4704833030700684	190442570.27101552
2.473231554031372	181300643.14942187
2.4759814739227295	179998086.51487276
2.4787333011627197	178727948.16168466
2.481487512588501	175643349.29007527
2.4842441082000732	181342018.5739545
