#wavelength	surface flux
0.6450077295303345	1854197.292996034
0.6472567915916443	2790920.7182538426
0.6494921445846558	3353572.6993832784
0.6517150402069092	3502382.2650251994
0.6539263725280762	3633905.1825510343
0.6561272740364075	3761338.9974657996
0.6583186388015747	3886063.8695172453
0.6605015397071838	4017884.806247554
0.6626768708229065	4156616.182752694
0.6648455858230591	4295546.190243871
0.6670085787773132	4429382.999206397
0.6691668033599854	4541405.92998077
0.6713210344314575	4654993.174006582
0.6734722256660461	4811614.82906858
0.6756211519241333	4973288.76880504
0.6777685880661011	5108566.614500246
0.6799154281616211	5239470.654335987
0.6820623278617859	5368009.819261362
0.6842101216316223	5493398.283265454
0.6863595843315125	5613195.277461302
0.688511312007904	5714598.509576152
0.6906660795211792	5820155.135376873
0.6928245425224304	5946372.7339772545
0.6949873566627502	6083312.736646936
0.6971551775932312	6213727.979027164
0.6993286609649658	6345786.082359691
0.7015084028244019	6521856.990646888
0.7036949396133423	6712688.915212402
0.7058889269828796	6870891.9611743195
0.7080909013748169	7011308.01399744
0.710301399230957	7161399.565004774
0.712520956993103	7332060.812663469
0.7147500514984131	7507735.185507011
0.7169892191886902	7678609.85803128
0.7192389369010925	7846772.404515369
0.7214996814727783	8015856.294509261
0.723771870136261	8196739.120460428
0.7260559797286987	8377647.373908677
0.7283523678779602	8550175.885924425
0.7306615710258484	8723063.66356102
0.7329838871955872	8867035.72465532
0.7353196740150452	8956419.383133087
0.7376693487167358	9010667.159029393
0.7400332689285278	9040462.811035804
0.7424117922782898	9068983.432143522
0.7448052167892456	9116121.865689429
0.7472138404846191	9206101.758442072
0.7496379613876343	9321537.939598698
0.7520779371261597	9396330.20296349
0.7545340061187744	9405354.350944301
0.7570064663887024	9284398.890680226
0.7594954967498779	8872046.847038278
0.7620013952255249	7499837.12663309
0.7645244002342224	4500639.642168577
0.7670646905899048	1573642.9608871634
0.7696225643157959	958643.709917497
0.7721980810165405	2991342.831003099
0.7747915983200073	6694787.632892979
0.7774031162261963	9583348.237445263
0.7800329327583313	10708584.854500744
0.7826811671257019	11721872.484788759
0.7853479981422424	12798017.243647223
0.7880334854125977	13270999.299953686
0.7907378077507019	13409607.683258988
0.7934610247612	13332708.083647791
0.7962033748626709	13561951.96918287
0.7989648580551147	14344290.761330158
0.801745593547821	15201685.850494748
0.8045456409454346	15998684.428149609
0.8073651194572449	16738361.204404688
0.8102040886878967	17379043.804004814
0.8130625486373901	17961978.438348766
0.8159406185150146	18474186.970437814
0.8188382983207703	18877033.420159172
0.8217556476593018	19272670.53398621
0.8246926665306091	19737550.27922409
0.8276493549346924	20178729.38793052
0.8306257724761963	20576157.874474864
0.8336219191551208	20997368.234437037
0.8366377949714661	21443221.82234472
0.8396733403205872	21878310.54130924
0.8427285552024841	22246235.040315773
0.8458034992218018	22546338.695016444
0.8488980531692505	22796554.787113763
0.8520121574401855	23078668.114622306
0.8551458716392517	23726936.24262189
0.8582990765571594	24450240.51957146
0.8614717125892639	24757983.555258118
0.8646637797355652	25047193.901556965
0.8678751587867737	25621960.246235847
0.8711057901382446	26273661.496183597
0.8743556141853333	26936870.89396142
0.87762451171875	27646812.10063827
0.8809124231338501	28344085.70165422
0.8842192888259888	28957707.80709302
0.8875449895858765	29425405.51320458
0.8908893465995789	29733478.625779357
0.894252359867096	30030944.072074987
0.8976338505744934	30735795.357568536
0.9010337591171265	31686784.976751443
0.9044519662857056	32472152.468554337
0.9078882932662964	33175743.60260915
0.9113426208496094	33872826.69571729
0.914814829826355	34572538.84888475
0.9183048605918884	35137857.134053744
0.9218124747276306	35285598.35007247
0.925337553024292	34953633.4128829
0.9288799166679382	34523598.62849007
0.9324395060539246	34794515.89858828
0.9360161423683167	35918616.21925208
0.9396095871925354	37205184.021545015
0.943219780921936	38129032.74255102
0.9468464851379395	38751683.155842625
0.9504896402359009	39375566.56783258
0.9541489481925964	40002714.465639964
0.9578243494033813	40563825.140987165
0.9615156054496765	41180431.260595426
0.9652225375175476	42012923.33696353
0.9689450263977051	42960067.595351584
0.9726828336715698	43829151.61030947
0.9764357805252075	44677431.615382954
0.9802037477493286	45571033.34698169
0.983986496925354	46484702.3293502
0.9877838492393494	47357163.6859245
0.9915955662727356	48041674.99353168
0.9954215884208679	48706078.07465927
0.9992615580558777	49410669.81759531
1.0031154155731201	50110483.02628205
1.0069829225540161	50961248.62732238
1.0108637809753418	51906728.437758386
1.0147579908370972	52752659.11608273
1.018665075302124	53519975.77881588
1.022585153579712	54289498.26750092
1.0265177488327026	54987138.3668526
1.0304628610610962	55750363.73888963
1.0344202518463135	56696734.36539117
1.0383895635604858	57735605.935400225
1.0423706769943237	58794644.991417184
1.0463634729385376	59697360.36127511
1.0503677129745483	60333809.63275534
1.0543830394744873	60866061.2847248
1.058409333229065	61515739.19984618
1.0624464750289917	62400747.51921395
1.0664942264556885	63454976.334504806
1.0705522298812866	64576231.73031068
1.0746204853057861	65723179.696138285
1.0786986351013184	66845787.616036355
1.0827864408493042	67854097.1039533
1.086883783340454	68577104.06417978
1.0909905433654785	68926907.60371923
1.0951062440872192	68902734.6609321
1.0992310047149658	68522183.03571127
1.10336434841156	67751441.4828748
1.1075061559677124	66916704.99420991
1.1116561889648438	66595970.67442627
1.115814208984375	66944133.663490325
1.1199802160263062	67939430.74670061
1.124153733253479	69550135.68054536
1.1283347606658936	70670233.25656293
1.1325229406356812	70181351.6804913
1.1367181539535522	70143291.07073335
1.1409201622009277	71812533.59952816
1.145128846168518	73629676.28074917
1.1493438482284546	75030390.48606724
1.1535650491714478	75814192.09740347
1.1577922105789185	76235717.72547247
1.1620250940322876	76772405.02755766
1.1662636995315552	77071252.84612599
1.170507550239563	77366929.11563072
1.174756646156311	77899185.7790979
1.1790107488632202	78856214.63533832
1.1832695007324219	80557348.46104713
1.1875330209732056	82284426.5296022
1.191800832748413	83716098.06175877
1.1960728168487549	85051315.52717209
1.2003488540649414	86329276.04941536
1.2046287059783936	87670081.06712444
1.2089121341705322	88935715.99703886
1.2131990194320679	90148481.22098592
1.2174891233444214	91359234.47580104
1.2217823266983032	92450443.5585798
1.2260783910751343	93548163.45289066
1.230377197265625	94591512.21806258
1.2346785068511963	95359566.28872375
1.238982081413269	95543983.8225788
1.2432878017425537	95408749.669701
1.2475954294204712	95838793.70265651
1.2519049644470215	96500047.28753775
1.256216049194336	97336068.04665795
1.2605286836624146	98471922.8188905
1.2648425102233887	99424628.27084553
1.2691574096679688	100235124.75037341
1.2734732627868652	100935811.24804328
1.2777899503707886	101607510.37874448
1.2821072340011597	102125957.63165067
1.2864248752593994	102399611.52060096
1.2907428741455078	102807076.60067552
1.2950609922409058	103560486.14938974
1.2993791103363037	104393224.84430538
1.303696870803833	105110461.24973592
1.3080145120620728	105622794.22273828
1.3123314380645752	105861107.3085683
1.3166478872299194	106088185.58271389
1.3209635019302368	106061021.85455544
1.3252781629562378	104793788.3878578
1.3295916318893433	100432335.97321437
1.3339040279388428	92009198.18997115
1.3382149934768677	84323054.92093676
1.3425244092941284	80739045.3152489
1.3468321561813354	78476775.8148275
1.3511382341384888	76043132.75349575
1.3554422855377197	74127243.54229856
1.3597444295883179	74280687.60162307
1.3640443086624146	76243715.3894439
1.3683418035507202	77135977.96088037
1.3726370334625244	77023978.5282621
1.3769296407699585	78645676.5930507
1.381219506263733	80798311.22867666
1.3855066299438477	81956786.92543848
1.3897908926010132	81997046.59453982
1.3940720558166504	80630064.15851338
1.3983501195907593	79206754.15301791
1.4026249647140503	78786198.83400519
1.4068963527679443	78610692.75667897
1.4111642837524414	77715711.83273594
1.4154287576675415	76808735.4587267
1.419689416885376	76175621.90839365
1.4239463806152344	75640241.6207914
1.4281994104385376	75942263.57006906
1.4324485063552856	77544978.5992223
1.436693549156189	79516519.9357347
1.440934419631958	81054605.13949531
1.4451709985733032	82547714.03839223
1.449403166770935	84970832.779102
1.453631043434143	87978525.22181846
1.4578542709350586	90343194.83562225
1.4620729684829712	91237314.58972685
1.4662868976593018	91385523.31512573
1.4704961776733398	92108993.57597008
1.4747005701065063	93480382.277254
1.4788999557495117	94908922.93222353
1.4830944538116455	96153973.70622833
1.4872838258743286	97391645.66946656
1.491468071937561	98560140.06768972
1.4956470727920532	99977020.48913872
1.4998208284378052	101538945.43079767
1.5039892196655273	103096754.65060572
1.5081522464752197	104724055.27187099
1.5123097896575928	106459763.6971713
1.5164618492126465	108140895.84542534
1.5206083059310913	109790800.05778381
1.5247491598129272	111435758.64892206
1.5288842916488647	112833508.30840865
1.5330137014389038	114224537.4987722
1.5371372699737549	115763408.10570247
1.541254997253418	117215615.75090519
1.545366883277893	118610425.30244185
1.5494728088378906	119885078.73159578
1.5535727739334106	120662629.5799785
1.5576666593551636	120892084.5186818
1.561754584312439	121410305.6633229
1.5658363103866577	122728877.17617214
1.5699119567871094	124143984.13136731
1.5739814043045044	125145173.58046483
1.5780447721481323	125597892.24056576
1.582101821899414	126058742.67024598
1.5861525535583496	126906001.37443377
1.5901970863342285	127719277.50833501
1.5942351818084717	128384569.55799851
1.5982669591903687	128974050.54896992
1.6022924184799194	129489114.0847012
1.606311559677124	130047949.50077923
1.6103241443634033	130606344.94334574
1.6143304109573364	131161247.92031166
1.6183301210403442	131695561.04736842
1.6223233938217163	132197534.03174265
1.6263102293014526	132671486.70708339
1.6302905082702637	133030108.89241962
1.634264349937439	133440179.41249622
1.638231635093689	133919151.53672892
1.6421923637390137	134316379.01201183
1.646146535873413	134699908.56570637
1.6500942707061768	134981300.54511207
1.6540353298187256	135249714.98027155
1.6579699516296387	135501043.48534897
1.661897897720337	135725204.7464905
1.6658192873001099	136143959.46866646
1.6697341203689575	136423944.39452922
1.6736423969268799	136670365.685375
1.677544116973877	137172404.72847348
1.6814392805099487	137555341.5784479
1.6853278875350952	137479472.3663666
1.6892099380493164	137139814.30845812
1.6930854320526123	136744665.5990866
1.696954369544983	136257785.70247784
1.7008168697357178	136047309.72841853
1.7046726942062378	135787193.7184657
1.708522081375122	134888566.0105714
1.712364912033081	133450871.88984363
1.7162011861801147	131676397.82614674
1.7200311422348022	130356377.98383555
1.723854422569275	129535188.679262
1.7276713848114014	128472750.45977303
1.731481909751892	127134643.42717892
1.7352858781814575	125821485.56679654
1.7390835285186768	124626555.80373481
1.7428747415542603	123266809.87592421
1.7466596364974976	121733935.63071036
1.7504380941390991	120566252.64133534
1.7542102336883545	119454001.1070143
1.7579760551452637	118160445.92353451
1.7617355585098267	117216016.4202146
1.7654887437820435	116085649.90807083
1.7692357301712036	114233893.8207963
1.7729763984680176	112243568.41589318
1.776710867881775	110655700.4301525
1.7804391384124756	109234963.66449107
1.7841613292694092	107553962.53021179
1.7878772020339966	106714825.73707043
1.7915871143341064	106302381.5205332
1.7952908277511597	105427542.31487313
1.7989884614944458	103731761.09535395
1.8026801347732544	101616052.81654234
1.806365728378296	100300887.16083364
1.8100452423095703	99625408.45429789
1.8137187957763672	100874316.13454421
1.817386507987976	101053275.6120416
1.8210482597351074	99685425.73818935
1.8247040510177612	99912148.4878322
1.828354001045227	99820699.72175361
1.8319982290267944	99218382.17547104
1.8356364965438843	98432852.67084156
1.8392690420150757	97185538.62484968
1.8428958654403687	95174430.92121907
1.8465168476104736	92541092.84852721
1.8501322269439697	92513309.72868995
1.8537418842315674	92643380.92685315
1.8573459386825562	88575836.27647877
1.860944390296936	85396195.94737428
1.864537239074707	86922046.98721877
1.8681244850158691	90343849.43772265
1.871706247329712	92412718.35120845
1.8752825260162354	92686226.34197482
1.8788533210754395	94127174.47407769
1.8824186325073242	97616503.85206424
1.8859784603118896	100135668.30338468
1.8895330429077148	100283950.83777685
1.8930821418762207	100239441.44800355
1.8966259956359863	101957282.26641873
1.9001644849777222	103788101.12120543
1.9036977291107178	104133274.01838599
1.9072256088256836	104315602.66259377
1.9107483625411987	104424574.90208554
1.9142658710479736	104643075.54897721
1.9177782535552979	104935519.74298514
1.9212853908538818	103993277.06571385
1.9247875213623047	102858687.37884164
1.9282845258712769	102252218.25166042
1.9317764043807983	101329842.42702173
1.9352631568908691	99975863.98742148
1.9387450218200684	97348117.21193539
1.942221760749817	96505896.08052218
1.9456936120986938	98290706.28218377
1.9491604566574097	98743936.38992956
1.952622413635254	97311059.67586592
1.956079363822937	96062379.66586295
1.959531545639038	96674342.14543325
1.962978720664978	97297434.13524869
1.966421127319336	97962172.34268582
1.9698586463928223	98709201.15110078
1.9732913970947266	97693428.5958949
1.9767193794250488	96985003.11562212
1.9801424741744995	97522689.21485679
1.9835609197616577	98497221.57860067
1.9869745969772339	99088883.56787646
1.990383505821228	98577058.88655077
1.9937876462936401	99138054.51281677
1.9971871376037598	99117639.4984283
2.000581979751587	99033270.5560514
2.003972291946411	100824166.31300214
2.007357597351074	101435555.09970935
2.0107386112213135	101609564.3072184
2.0141148567199707	102472093.65078431
2.017486572265625	102757767.08985522
2.0208535194396973	104761947.34750247
2.0242159366607666	107049115.63375328
2.027573823928833	106429167.06772691
2.0309269428253174	106932758.10596877
2.034275770187378	109266588.9698777
2.0376198291778564	110371879.09621501
2.040959596633911	110674092.78385848
2.044294595718384	111453721.43108633
2.0476250648498535	112829572.02182661
2.0509510040283203	113439625.62999688
2.054272413253784	113917689.70286839
2.057589530944824	116098050.7960169
2.0609018802642822	116992780.39863135
2.0642096996307373	116581832.85427979
2.0675129890441895	117971094.33258593
2.0708119869232178	119056475.65503606
2.074106216430664	119076967.53736103
2.0773961544036865	119769845.97467542
2.080681324005127	120545290.29970922
2.0839622020721436	120989040.4240407
2.087238311767578	121588693.42845759
2.090510129928589	122350810.30099414
2.0937774181365967	122804898.19037978
2.0970399379730225	123055745.03549413
2.1002981662750244	123555568.9434797
2.1035518646240234	123844118.47745728
2.1068007946014404	123963062.23693718
2.1100454330444336	124359834.73737963
2.1132853031158447	124963449.26016782
2.116520881652832	125029465.19400936
2.1197516918182373	125056348.92903319
2.1229779720306396	125736876.91517714
2.12619948387146	125954548.09787495
2.1294167041778564	125657936.63720986
2.132629156112671	126069945.75023304
2.1358368396759033	126594137.0874161
2.139039993286133	126264613.37165326
2.1422386169433594	126268359.99515824
2.145432472229004	127004320.47469036
2.1486217975616455	127029838.26917496
2.151806354522705	126580719.9353791
2.1549863815307617	126685097.02525909
2.1581614017486572	126990331.0657645
2.16133189201355	127097664.8219046
2.1644976139068604	127119654.77493086
2.167658567428589	127292094.82988504
2.1708147525787354	127265445.48017283
2.173966407775879	126862383.07851464
2.1771130561828613	126462656.9468697
2.1802549362182617	126539282.69270594
2.183391809463501	126753142.36263257
2.1865241527557373	126679609.75029604
2.1896514892578125	126780830.62731463
2.1927738189697266	126694558.49613987
2.1958916187286377	126326804.82451479
2.1990041732788086	126098486.90037869
2.2021119594573975	125789097.9823502
2.2052149772644043	125642383.09406441
2.208312749862671	125865645.77785379
2.2114057540893555	126176773.0628057
2.214493751525879	126142984.34119596
2.217576742172241	125162610.27825989
2.2206547260284424	124300484.29022256
2.2237277030944824	124814654.19714595
2.2267956733703613	125173410.359229
2.2298583984375	125070961.36606029
2.2329163551330566	124870345.56009415
2.235969066619873	124359812.0781078
2.2390167713165283	124374064.14740351
2.2420592308044434	124166410.30841435
2.2450966835021973	123839612.00272895
2.248128890991211	123946945.04548459
2.2511560916900635	123889539.89418381
2.254178285598755	123640071.56123592
2.257194995880127	123628213.80741434
2.260206699371338	123716201.21477081
2.2632133960723877	123011585.29516709
2.266214609146118	122156613.07459614
2.2692108154296875	121737782.86622253
2.2722020149230957	121821582.46410306
2.2751877307891846	122520407.28548671
2.278168201446533	122215855.32158591
2.2811436653137207	121250435.88180177
2.284113883972168	121479723.28491195
2.287078857421875	122217365.82178396
2.290038824081421	120130173.44514593
2.2929933071136475	112554180.14783657
2.295942783355713	106123552.27232778
2.298887014389038	106304840.75809012
2.301826238632202	108617723.23831551
2.304760217666626	109967330.38717647
2.3076889514923096	110045796.31840596
2.310612440109253	109472292.66776974
2.3135311603546143	109245859.84509695
2.3164443969726562	109430709.5953287
2.319352865219116	108748421.05227087
2.322256088256836	105180979.308225
2.3251543045043945	102867721.73605019
2.328047275543213	103980162.73793556
2.330935478210449	105028310.4180294
2.3338186740875244	106056772.01355393
2.3366971015930176	106534413.5273526
2.3395702838897705	105481516.63756357
2.3424389362335205	104917364.20663744
2.3453025817871094	106185087.21661934
2.348161458969116	107041238.25678065
2.351015567779541	104144408.24026749
2.353865146636963	101004107.84414132
2.3567099571228027	100884642.8882301
2.3595502376556396	100899133.71307413
2.3623859882354736	100842191.11497056
2.3652172088623047	101025991.50900285
2.368043899536133	100879910.87592672
2.370866537094116	101411053.16626807
2.3736846446990967	102343449.74869816
2.3764986991882324	101797467.01870202
2.3793084621429443	100338821.38684238
2.3821144104003906	98531133.32773568
2.384916305541992	96367448.4508323
2.387714147567749	96485866.70264123
2.3905084133148193	98674953.26342581
2.393299102783203	99198005.08846857
2.3960859775543213	98487289.98547372
2.398869514465332	98131840.1346257
2.4016497135162354	97471850.7580885
2.4044265747070312	96943647.9007504
2.407200336456299	95318004.43597068
2.409970998764038	93198863.24968307
2.4127390384674072	92448941.50540589
2.415503978729248	91672228.18814364
2.418266534805298	90572779.78500865
2.4210267066955566	90377484.16464667
2.4237842559814453	90247990.6225997
2.426539897918701	89060519.99823445
2.429293394088745	88282658.89963692
2.4320452213287354	87179677.20632754
2.4347951412200928	85097402.52138673
2.4375438690185547	85318085.08682632
2.440291166305542	86753320.36470062
2.443037271499634	84932628.52733833
2.445782423019409	82200846.98364933
2.4485268592834473	81460925.32852088
2.451270818710327	79477844.81139275
2.454014539718628	77508192.30235532
2.4567582607269287	80770214.51832306
2.4595019817352295	81270634.17704582
2.4622461795806885	79323465.93942584
2.4649908542633057	80588590.09380183
2.4677364826202393	78621406.9655324
2.4704833030700684	75350855.89775589
2.473231554031372	72474305.60341345
2.4759814739227295	71500869.196208
2.4787333011627197	72251197.31853276
2.481487512588501	72029209.95064676
