#wavelength	surface flux
0.6450077295303345	229957.68391672126
0.6472567915916443	355574.0259649448
0.6494921445846558	448816.93385645276
0.6517150402069092	495531.9485247327
0.6539263725280762	541281.4675521855
0.6561272740364075	588980.5313665224
0.6583186388015747	639069.4988831378
0.6605015397071838	691291.5471319493
0.6626768708229065	743759.0183804085
0.6648455858230591	791091.8581471886
0.6670085787773132	798143.7065010678
0.6691668033599854	697657.4938339402
0.6713210344314575	627390.9655986946
0.6734722256660461	798698.2762319087
0.6756211519241333	1041424.5423105509
0.6777685880661011	1177380.0118249508
0.6799154281616211	1267493.8924348492
0.6820623278617859	1349335.716028479
0.6842101216316223	1428323.8900893503
0.6863595843315125	1488423.6600275529
0.688511312007904	1511568.2625081476
0.6906660795211792	1557099.8237276361
0.6928245425224304	1656657.236958768
0.6949873566627502	1766403.7492706846
0.6971551775932312	1865398.4584523707
0.6993286609649658	1943450.2533824746
0.7015084028244019	2006630.4111455034
0.7036949396133423	2066029.402775437
0.7058889269828796	2121925.7009486817
0.7080909013748169	2170559.3801596006
0.710301399230957	2211649.9207232236
0.712520956993103	2241311.129934116
0.7147500514984131	2229676.258748064
0.7169892191886902	2185267.0539756543
0.7192389369010925	2186349.026320236
0.7214996814727783	2220403.860593754
0.723771870136261	2219699.9701205962
0.7260559797286987	2193952.25463259
0.7283523678779602	2157688.9682574677
0.7306615710258484	2106023.546186764
0.7329838871955872	2057996.6578269445
0.7353196740150452	2002852.3421850312
0.7376693487167358	1923805.8045890762
0.7400332689285278	1835050.4019859708
0.7424117922782898	1733330.3388630429
0.7448052167892456	1616957.901721293
0.7472138404846191	1488221.6980402141
0.7496379613876343	1346159.434089371
0.7520779371261597	1192407.5835430939
0.7545340061187744	1029745.4871513085
0.7570064663887024	859136.6298427795
0.7594954967498779	681736.2772879781
0.7620013952255249	496744.4980804495
0.7645244002342224	311204.20621285366
0.7670646905899048	183696.95843115216
0.7696225643157959	181501.15735408134
0.7721980810165405	319551.8625493833
0.7747915983200073	519991.19786646985
0.7774031162261963	582194.8594001044
0.7800329327583313	566996.411158857
0.7826811671257019	912343.5072410293
0.7853479981422424	1544958.7527879863
0.7880334854125977	2027745.8932669966
0.7907378077507019	2119888.9977333765
0.7934610247612	1730601.740486233
0.7962033748626709	1807570.4426319562
0.7989648580551147	2954383.7282652436
0.801745593547821	4155887.0953615513
0.8045456409454346	4889901.177251192
0.8073651194572449	5391998.133763035
0.8102040886878967	5735365.4535837425
0.8130625486373901	6074134.08476529
0.8159406185150146	6597416.1153145395
0.8188382983207703	7228583.134365442
0.8217556476593018	7923100.45779271
0.8246926665306091	8841959.631904067
0.8276493549346924	9827008.373835752
0.8306257724761963	10628364.198135601
0.8336219191551208	11406817.90538432
0.8366377949714661	12282238.54350485
0.8396733403205872	13231342.704192925
0.8427285552024841	14276001.70650604
0.8458034992218018	15091092.976072228
0.8488980531692505	14460180.450706178
0.8520121574401855	13180450.392082252
0.8551458716392517	15203603.612416549
0.8582990765571594	17509996.161478363
0.8614717125892639	14032430.92426528
0.8646637797355652	9523056.660996802
0.8678751587867737	9219266.175863286
0.8711057901382446	10569698.98289217
0.8743556141853333	11666754.204738777
0.87762451171875	13092149.041088525
0.8809124231338501	14964305.875413561
0.8842192888259888	17062176.091522876
0.8875449895858765	18818331.87548381
0.8908893465995789	18458012.844297633
0.894252359867096	16820396.57159386
0.8976338505744934	18968006.070055332
0.9010337591171265	24378817.635909405
0.9044519662857056	28631660.16095504
0.9078882932662964	31252848.674793087
0.9113426208496094	33156210.209866058
0.914814829826355	34398209.08450629
0.9183048605918884	35662583.83415265
0.9218124747276306	36089983.363584064
0.925337553024292	29335052.49860603
0.9288799166679382	16846977.173697256
0.9324395060539246	10602624.234653968
0.9360161423683167	13534465.330689806
0.9396095871925354	19615426.278536912
0.943219780921936	22371544.198919594
0.9468464851379395	20655144.17427687
0.9504896402359009	19442543.716653094
0.9541489481925964	19432575.17406678
0.9578243494033813	18571735.848720815
0.9615156054496765	18244872.884956162
0.9652225375175476	21063991.32372302
0.9689450263977051	25752547.04908506
0.9726828336715698	29112485.575925525
0.9764357805252075	31823299.082229592
0.9802037477493286	35233680.78006825
0.983986496925354	39268239.30097881
0.9877838492393494	42956610.427044675
0.9915955662727356	44545981.40719196
0.9954215884208679	46836296.92932408
0.9992615580558777	51806878.05180794
1.0031154155731201	57021346.68403132
1.0069829225540161	62046912.77703595
1.0108637809753418	67243568.5087467
1.0147579908370972	71808818.48247015
1.018665075302124	75785244.97408585
1.022585153579712	80212542.63609381
1.0265177488327026	86276031.17889446
1.0304628610610962	92389817.90882508
1.0344202518463135	97227498.6087066
1.0383895635604858	101414312.24050848
1.0423706769943237	103232425.6643212
1.0463634729385376	101835948.67981336
1.0503677129745483	98313703.43465158
1.0543830394744873	96072445.15976317
1.058409333229065	98930578.13189624
1.0624464750289917	107558228.07987633
1.0664942264556885	116736589.66021071
1.0705522298812866	122009189.01701291
1.0746204853057861	124675666.37143229
1.0786986351013184	126567489.72937864
1.0827864408493042	126454004.15062532
1.086883783340454	119569427.49583673
1.0909905433654785	103824941.74751733
1.0951062440872192	78790293.37064731
1.0992310047149658	51774198.88337914
1.10336434841156	31904473.230482507
1.1075061559677124	19815780.773138493
1.1116561889648438	13178727.68074232
1.115814208984375	10414589.526891163
1.1199802160263062	10997219.177227678
1.124153733253479	13881917.54538864
1.1283347606658936	15693010.893683776
1.1325229406356812	13663921.820359496
1.1367181539535522	13545506.213656774
1.1409201622009277	16415057.56087679
1.145128846168518	18044915.765551258
1.1493438482284546	18916879.312079895
1.1535650491714478	17736171.574263547
1.1577922105789185	16077250.874897394
1.1620250940322876	16435849.263557239
1.1662636995315552	16676428.90264629
1.170507550239563	17795941.39459577
1.174756646156311	20775066.63392987
1.1790107488632202	25445751.07155895
1.1832695007324219	33160352.42763773
1.1875330209732056	41939230.37083246
1.191800832748413	51103347.2478654
1.1960728168487549	62286285.53352302
1.2003488540649414	73255849.7973815
1.2046287059783936	80928433.69186246
1.2089121341705322	87067794.33229448
1.2131990194320679	97045385.78500247
1.2174891233444214	108590209.1177632
1.2217823266983032	116096688.5713989
1.2260783910751343	122082106.45801224
1.230377197265625	130330471.5280391
1.2346785068511963	140102714.69649178
1.238982081413269	142860859.57305312
1.2432878017425537	138313509.37353107
1.2475954294204712	135953218.6028515
1.2519049644470215	135139194.275728
1.256216049194336	148047958.0382038
1.2605286836624146	165933642.92837992
1.2648425102233887	170114423.62082198
1.2691574096679688	172149786.5567507
1.2734732627868652	175081499.85966846
1.2777899503707886	173253561.1182289
1.2821072340011597	164951422.98364535
1.2864248752593994	154586437.9908497
1.2907428741455078	144622598.8661628
1.2950609922409058	135576122.962924
1.2993791103363037	130456347.41768081
1.303696870803833	130127557.52817327
1.3080145120620728	128899484.06862856
1.3123314380645752	120879519.47814037
1.3166478872299194	109136826.5007122
1.3209635019302368	93236427.18268824
1.3252781629562378	67411088.04638201
1.3295916318893433	38119077.4474007
1.3339040279388428	16031414.462504735
1.3382149934768677	4798742.112849469
1.3425244092941284	1707231.6460831754
1.3468321561813354	1192132.2641897032
1.3511382341384888	916236.7239943732
1.3554422855377197	622673.8373478773
1.3597444295883179	501250.12591622537
1.3640443086624146	558417.64791737
1.3683418035507202	704150.4478386858
1.3726370334625244	1026464.0818228093
1.3769296407699585	1516808.4004635164
1.381219506263733	1683664.375807185
1.3855066299438477	1435938.5939622328
1.3897908926010132	1218785.220458243
1.3940720558166504	1093354.3004611235
1.3983501195907593	1063111.8691860598
1.4026249647140503	1195689.36305319
1.4068963527679443	1273709.3828295588
1.4111642837524414	1211361.9185227323
1.4154287576675415	1125959.0573870444
1.419689416885376	1054640.1729290131
1.4239463806152344	1175009.9689767177
1.4281994104385376	1567313.0908790717
1.4324485063552856	1820738.2558162487
1.436693549156189	1820207.7735171146
1.440934419631958	2048726.7811759368
1.4451709985733032	2558472.3477053037
1.449403166770935	3279059.695714226
1.453631043434143	4128312.9224125776
1.4578542709350586	4967940.38073605
1.4620729684829712	5321242.060096332
1.4662868976593018	5048528.43612209
1.4704961776733398	4930481.463623496
1.4747005701065063	5439722.851436297
1.4788999557495117	6184801.952005165
1.4830944538116455	6701457.266212068
1.4872838258743286	7285371.746687038
1.491468071937561	8083159.111434497
1.4956470727920532	9094287.631671717
1.4998208284378052	10511267.273273243
1.5039892196655273	12065480.097819187
1.5081522464752197	13548026.787812429
1.5123097896575928	15434648.146371424
1.5164618492126465	17759668.39144636
1.5206083059310913	20575422.614419904
1.5247491598129272	23753825.846326645
1.5288842916488647	26841374.645171676
1.5330137014389038	30524546.099882677
1.5371372699737549	34267289.192740224
1.541254997253418	37815796.03442732
1.545366883277893	42145287.56327132
1.5494728088378906	45715130.285606176
1.5535727739334106	48870682.250237264
1.5576666593551636	52143046.39079336
1.561754584312439	54352189.36122075
1.5658363103866577	57023663.191894025
1.5699119567871094	61401542.827339895
1.5739814043045044	66600556.25292797
1.5780447721481323	71792056.67118432
1.582101821899414	77079961.7145723
1.5861525535583496	81763789.32543322
1.5901970863342285	82539616.03127842
1.5942351818084717	81467876.27609172
1.5982669591903687	83428475.62353073
1.6022924184799194	86924614.85454598
1.606311559677124	89928038.77092223
1.6103241443634033	91380220.96331619
1.6143304109573364	88105231.90726675
1.6183301210403442	72873084.54060923
1.6223233938217163	49760451.87800304
1.6263102293014526	35888406.53393256
1.6302905082702637	31016265.521418955
1.634264349937439	29565717.837892305
1.638231635093689	38374694.43190848
1.6421923637390137	51503936.96730511
1.646146535873413	51528678.20715257
1.6500942707061768	45304635.470962115
1.6540353298187256	46019342.33035943
1.6579699516296387	50689566.07500216
1.661897897720337	50889174.55018082
1.6658192873001099	36861102.76532446
1.6697341203689575	27944489.069782943
1.6736423969268799	39951581.88004214
1.677544116973877	50972617.813113585
1.6814392805099487	46713940.64263933
1.6853278875350952	35105908.287475295
1.6892099380493164	28041746.4616823
1.6930854320526123	26479825.38733456
1.696954369544983	21272781.11605602
1.7008168697357178	11724003.407892378
1.7046726942062378	7941171.065201069
1.708522081375122	13029903.242316976
1.712364912033081	21221022.478707045
1.7162011861801147	27008786.931675352
1.7200311422348022	24292455.494978275
1.723854422569275	14860335.69995934
1.7276713848114014	8124174.71361427
1.731481909751892	6859810.681255497
1.7352858781814575	8685673.586741304
1.7390835285186768	10445979.77512271
1.7428747415542603	10405981.520735713
1.7466596364974976	9785602.402590984
1.7504380941390991	9947998.687956538
1.7542102336883545	9806336.496548297
1.7579760551452637	8820201.944471175
1.7617355585098267	7780890.27974018
1.7654887437820435	6484155.308285516
1.7692357301712036	4794959.96772478
1.7729763984680176	3502671.362925707
1.776710867881775	3633821.5745075466
1.7804391384124756	4334784.770742469
1.7841613292694092	3727626.034378183
1.7878772020339966	2725756.0297816587
1.7915871143341064	2370045.708296639
1.7952908277511597	2871809.6586932614
1.7989884614944458	3585685.1421227176
1.8026801347732544	2951050.7568336274
1.806365728378296	2356806.0104416925
1.8100452423095703	2681854.552051739
1.8137187957763672	2955838.7601352097
1.817386507987976	2881099.8383689625
1.8210482597351074	3669674.4346553385
1.8247040510177612	4898140.967664155
1.828354001045227	4020350.048498262
1.8319982290267944	2603765.820662999
1.8356364965438843	2223266.0121465423
1.8392690420150757	2227818.790033003
1.8428958654403687	2591858.611910371
1.8465168476104736	2637621.5391082037
1.8501322269439697	2530286.4713691995
1.8537418842315674	2531859.4773420203
1.8573459386825562	2101277.3258532397
1.860944390296936	1639905.608922917
1.864537239074707	1510762.127485967
1.8681244850158691	1477071.109168806
1.871706247329712	1765295.5810977244
1.8752825260162354	2609266.4976787656
1.8788533210754395	3837000.0090709473
1.8824186325073242	4655648.909328096
1.8859784603118896	4508256.277341206
1.8895330429077148	4429123.054985478
1.8930821418762207	5575543.873708058
1.8966259956359863	6409335.193478483
1.9001644849777222	5583917.910167981
1.9036977291107178	5209856.470505894
1.9072256088256836	5940327.532547637
1.9107483625411987	5811314.734012839
1.9142658710479736	5929282.288339748
1.9177782535552979	7319257.91292401
1.9212853908538818	7037053.894585409
1.9247875213623047	5321248.040970202
1.9282845258712769	4181353.748695863
1.9317764043807983	3552574.1795514817
1.9352631568908691	3507832.4614734724
1.9387450218200684	3308865.2507079164
1.942221760749817	3099901.986388431
1.9456936120986938	3314725.408238459
1.9491604566574097	3494159.705902646
1.952622413635254	3510624.5456613568
1.956079363822937	3392516.0261137914
1.959531545639038	3393186.4666078766
1.962978720664978	3572701.926929571
1.966421127319336	4267421.216480716
1.9698586463928223	5000645.699296441
1.9732913970947266	5021387.756894778
1.9767193794250488	5075247.49704738
1.9801424741744995	5455413.149886137
1.9835609197616577	5993132.770072063
1.9869745969772339	6207849.42790254
1.990383505821228	6007029.666779221
1.9937876462936401	6763086.3124027625
1.9971871376037598	7732205.129296157
2.000581979751587	8481543.337132994
2.003972291946411	9525075.128217168
2.007357597351074	9995144.736360477
2.0107386112213135	11545443.703971632
2.0141148567199707	13203706.988070514
2.017486572265625	12923456.788860455
2.0208535194396973	14658866.945370067
2.0242159366607666	16741592.958181717
2.027573823928833	15903956.00870949
2.0309269428253174	16874553.20155184
2.034275770187378	19844942.57543286
2.0376198291778564	20965625.608300976
2.040959596633911	20785168.60632989
2.044294595718384	22090660.64789355
2.0476250648498535	23795962.203640185
2.0509510040283203	23074382.646989048
2.054272413253784	23015045.98694933
2.057589530944824	26178250.237666037
2.0609018802642822	28334317.327481233
2.0642096996307373	28330770.458485678
2.0675129890441895	29335248.620297607
2.0708119869232178	30416227.91659328
2.074106216430664	30405615.459307566
2.0773961544036865	30502089.849447493
2.080681324005127	30798236.84126705
2.0839622020721436	31267026.25346216
2.087238311767578	32006490.422544822
2.090510129928589	32707543.541328054
2.0937774181365967	33429765.496750895
2.0970399379730225	34089285.22644119
2.1002981662750244	33814526.11284718
2.1035518646240234	33333227.491300408
2.1068007946014404	34209946.25855807
2.1100454330444336	35104340.97244731
2.1132853031158447	35226316.32374996
2.116520881652832	34486896.14677246
2.1197516918182373	33931246.19222132
2.1229779720306396	34902792.99716435
2.12619948387146	35755292.98542533
2.1294167041778564	35458200.712027244
2.132629156112671	35242591.93882959
2.1358368396759033	35354793.07599467
2.139039993286133	34722406.86496215
2.1422386169433594	33164976.39558004
2.145432472229004	31758910.228566498
2.1486217975616455	30102706.6160057
2.151806354522705	28672946.931276813
2.1549863815307617	29318198.936244927
2.1581614017486572	30426823.06395117
2.16133189201355	29952009.94773981
2.1644976139068604	29347173.75151224
2.167658567428589	29910513.88713993
2.1708147525787354	30552389.698992364
2.173966407775879	30542666.781449415
2.1771130561828613	30249540.674537648
2.1802549362182617	30752006.782191444
2.183391809463501	31281091.19461904
2.1865241527557373	31852390.10954366
2.1896514892578125	32841626.70319798
2.1927738189697266	32602929.796457697
2.1958916187286377	26624342.290391397
2.1990041732788086	14429732.45993965
2.2021119594573975	7008959.430390391
2.2052149772644043	10896921.536690688
2.208312749862671	20642672.574399654
2.2114057540893555	26840807.233585037
2.214493751525879	24454639.109102808
2.217576742172241	16768263.458631346
2.2206547260284424	10483319.640788483
2.2237277030944824	7847863.717430196
2.2267956733703613	6152527.449813216
2.2298583984375	4698082.465780328
2.2329163551330566	4312187.845966333
2.235969066619873	4690690.938378082
2.2390167713165283	4891314.350646034
2.2420592308044434	4571177.060088456
2.2450966835021973	4075776.120296303
2.248128890991211	3509954.7861430044
2.2511560916900635	3038873.292750904
2.254178285598755	3002112.0158128217
2.257194995880127	4110116.166315697
2.260206699371338	5509595.301333923
2.2632133960723877	5769746.78487112
2.266214609146118	5554118.036762298
2.2692108154296875	6184240.300852805
2.2722020149230957	7785660.547695204
2.2751877307891846	8366699.214227444
2.278168201446533	8596680.030057644
2.2811436653137207	8490156.755355213
2.284113883972168	6321252.75820729
2.287078857421875	3920433.023842063
2.290038824081421	2674561.8977468787
2.2929933071136475	2128050.827684586
2.295942783355713	1835740.675528495
2.298887014389038	1960600.841788756
2.301826238632202	2654119.3406553264
2.304760217666626	4176270.047893678
2.3076889514923096	7505345.008515406
2.310612440109253	13464855.034277301
2.3135311603546143	16212978.761629295
2.3164443969726562	9852858.88264127
2.319352865219116	3124217.295057169
2.322256088256836	2970949.414679754
2.3251543045043945	5373054.041998165
2.328047275543213	6777453.093921339
2.330935478210449	5762574.796571278
2.3338186740875244	3674093.1212728657
2.3366971015930176	2202108.4833013895
2.3395702838897705	1630164.3725185771
2.3424389362335205	1692313.8446617709
2.3453025817871094	1683058.5763770067
2.348161458969116	1787899.8081334513
2.351015567779541	2168781.1037031543
2.353865146636963	2664255.522901308
2.3567099571228027	4353815.791094973
2.3595502376556396	7027030.297838465
2.3623859882354736	8269981.39607265
2.3652172088623047	7437459.094066746
2.368043899536133	4876531.138361535
2.370866537094116	2005377.2835160987
2.3736846446990967	1122770.7791963532
2.3764986991882324	2361447.844730888
2.3793084621429443	4640392.445977508
2.3821144104003906	5871950.004630459
2.384916305541992	5609551.817074573
2.387714147567749	6036789.199348436
2.3905084133148193	7281841.257748287
2.393299102783203	6546466.402020609
2.3960859775543213	3754376.2865684526
2.398869514465332	1716267.3809755228
2.4016497135162354	1173387.0035567086
2.4044265747070312	1559367.1349426175
2.407200336456299	2205725.636969943
2.409970998764038	2485597.4326974684
2.4127390384674072	2619712.3792819697
2.415503978729248	2413713.556142326
2.418266534805298	1757155.554941
2.4210267066955566	1429326.210865503
2.4237842559814453	1260084.3235417497
2.426539897918701	1058116.989384673
2.429293394088745	1877551.586242989
2.4320452213287354	3154817.9601816433
2.4347951412200928	2828926.270913937
2.4375438690185547	2515256.461888589
2.440291166305542	2991471.3376461514
2.443037271499634	2503644.1766268117
2.445782423019409	2028791.258079132
2.4485268592834473	2354393.687435306
2.451270818710327	2390585.649044178
2.454014539718628	1994487.4533271522
2.4567582607269287	1992907.1734779526
2.4595019817352295	2356083.5718739624
2.4622461795806885	3035602.572823075
2.4649908542633057	3476676.5701397704
2.4677364826202393	2778748.8970100866
2.4704833030700684	2014717.4348481589
2.473231554031372	2228551.3226133753
2.4759814739227295	2847957.1448238553
2.4787333011627197	2986925.936524407
2.481487512588501	3051950.559254496
