#wavelength	surface flux
0.6450077295303345	99110.44292330318
0.6472567915916443	153221.2584497154
0.6494921445846558	193546.70213258584
0.6517150402069092	213615.17003984866
0.6539263725280762	232854.96050564694
0.6561272740364075	252758.3375362216
0.6583186388015747	274172.9501700275
0.6605015397071838	297150.7076754117
0.6626768708229065	320614.2081429454
0.6648455858230591	343217.2491234691
0.6670085787773132	352149.7600630457
0.6691668033599854	319092.48883025546
0.6713210344314575	296157.741749007
0.6734722256660461	367089.4363234851
0.6756211519241333	463788.5786372473
0.6777685880661011	517771.86053581914
0.6799154281616211	555686.5339901104
0.6820623278617859	591497.0890925651
0.6842101216316223	626760.7771833703
0.6863595843315125	655291.3798124135
0.688511312007904	667856.6499360967
0.6906660795211792	676863.4995162765
0.6928245425224304	701691.567362666
0.6949873566627502	753025.8815553479
0.6971551775932312	813224.4722441356
0.6993286609649658	853253.8761731292
0.7015084028244019	880552.9604359469
0.7036949396133423	908554.5105473145
0.7058889269828796	937649.0130537951
0.7080909013748169	962723.2777065303
0.710301399230957	983504.3286413753
0.712520956993103	996960.6528450837
0.7147500514984131	969946.3897286756
0.7169892191886902	910047.6955686874
0.7192389369010925	904743.5316103499
0.7214996814727783	945713.154304131
0.723771870136261	956222.2480492413
0.7260559797286987	946039.225708199
0.7283523678779602	936373.9546907863
0.7306615710258484	920620.3588487232
0.7329838871955872	918434.235841886
0.7353196740150452	916851.3051546743
0.7376693487167358	895967.3811636542
0.7400332689285278	873416.9051442835
0.7424117922782898	845419.0662299758
0.7448052167892456	808600.2507087206
0.7472138404846191	763954.2631191215
0.7496379613876343	708663.3097952618
0.7520779371261597	643960.1414791492
0.7545340061187744	572116.2175700631
0.7570064663887024	492813.7217440171
0.7594954967498779	406112.9738091456
0.7620013952255249	308567.1689203251
0.7645244002342224	199062.91925168267
0.7670646905899048	116975.38282036695
0.7696225643157959	113997.39209751748
0.7721980810165405	195942.05729441997
0.7747915983200073	291374.61028682615
0.7774031162261963	276705.91759115685
0.7800329327583313	217767.3608714316
0.7826811671257019	380129.71130483836
0.7853479981422424	733248.8392519458
0.7880334854125977	1000677.6636160673
0.7907378077507019	999156.3589896887
0.7934610247612	720308.8492764517
0.7962033748626709	714043.6588363108
0.7989648580551147	1322865.4784776394
0.801745593547821	2007989.0744502658
0.8045456409454346	2412580.9737354238
0.8073651194572449	2590232.3498646384
0.8102040886878967	2578738.8197393487
0.8130625486373901	2548972.202033783
0.8159406185150146	2775189.3915705443
0.8188382983207703	3179079.0011258703
0.8217556476593018	3471582.5242560427
0.8246926665306091	3833171.386904898
0.8276493549346924	4297750.014988703
0.8306257724761963	4597609.7216042895
0.8336219191551208	4875618.732897908
0.8366377949714661	5251077.106159193
0.8396733403205872	5705041.77380724
0.8427285552024841	6272969.8580291765
0.8458034992218018	6713913.983172635
0.8488980531692505	6353136.781536565
0.8520121574401855	5668502.168188334
0.8551458716392517	6732729.011812699
0.8582990765571594	8170184.893164614
0.8614717125892639	7085538.757165707
0.8646637797355652	5428869.815934591
0.8678751587867737	5388207.838101304
0.8711057901382446	5996956.31993395
0.8743556141853333	6531580.252561954
0.87762451171875	7132283.277807657
0.8809124231338501	7843327.314288084
0.8842192888259888	8631430.051585197
0.8875449895858765	9057563.17036686
0.8908893465995789	8028842.475563002
0.894252359867096	6265625.181779627
0.8976338505744934	6589193.667625523
0.9010337591171265	9058784.63469312
0.9044519662857056	11416408.506525606
0.9078882932662964	12364395.849674266
0.9113426208496094	12382300.752487114
0.914814829826355	12168324.477966284
0.9183048605918884	12246486.259794697
0.9218124747276306	12264324.045317804
0.925337553024292	9208591.572047053
0.9288799166679382	4041800.38500094
0.9324395060539246	1495153.6418091266
0.9360161423683167	1958042.7830948436
0.9396095871925354	3346416.5628795703
0.943219780921936	3997167.960505231
0.9468464851379395	3422725.9614568967
0.9504896402359009	2829397.719399472
0.9541489481925964	2673079.4490737137
0.9578243494033813	2548492.36101785
0.9615156054496765	2700525.999819642
0.9652225375175476	3778574.9782579
0.9689450263977051	5286607.334270861
0.9726828336715698	6082346.227921467
0.9764357805252075	6573990.988700966
0.9802037477493286	7679154.317296828
0.983986496925354	9387756.457984583
0.9877838492393494	11391256.096888406
0.9915955662727356	13271306.545643682
0.9954215884208679	15481533.048606241
0.9992615580558777	18454198.049860112
1.0031154155731201	21532719.85701643
1.0069829225540161	24520536.852699682
1.0108637809753418	27674940.633728128
1.0147579908370972	30756222.731024247
1.018665075302124	33402305.28173697
1.022585153579712	36057718.516392335
1.0265177488327026	39183892.293342896
1.0304628610610962	42257600.91317833
1.0344202518463135	45410102.842090145
1.0383895635604858	48327496.430507645
1.0423706769943237	49418488.62073342
1.0463634729385376	49127659.38164736
1.0503677129745483	48942745.96194108
1.0543830394744873	49315601.40955276
1.058409333229065	50229071.73447746
1.0624464750289917	52023380.282843046
1.0664942264556885	53813897.41949465
1.0705522298812866	54561016.75060347
1.0746204853057861	54943275.323795006
1.0786986351013184	55195721.485683694
1.0827864408493042	53534000.873382956
1.086883783340454	46186154.61865075
1.0909905433654785	33405379.867829725
1.0951062440872192	20404045.96375337
1.0992310047149658	11144415.616727088
1.10336434841156	5843134.004892987
1.1075061559677124	3178696.16851149
1.1116561889648438	1916094.2443344719
1.115814208984375	1353916.2928590002
1.1199802160263062	1459852.7386859353
1.124153733253479	1910999.1590744576
1.1283347606658936	2088059.5126021067
1.1325229406356812	1798723.7543590798
1.1367181539535522	2042181.835667399
1.1409201622009277	2650495.5600983514
1.145128846168518	2763005.849032438
1.1493438482284546	2829881.968016608
1.1535650491714478	2700456.457249715
1.1577922105789185	2395559.65190478
1.1620250940322876	2440280.160953092
1.1662636995315552	2595347.836250155
1.170507550239563	3190533.3046112275
1.174756646156311	4314101.669639988
1.1790107488632202	5803676.852844503
1.1832695007324219	8020188.681153175
1.1875330209732056	10664510.13881676
1.191800832748413	14188108.657386815
1.1960728168487549	19046474.584984105
1.2003488540649414	24158525.429021567
1.2046287059783936	28971553.856623575
1.2089121341705322	33504812.01396711
1.2131990194320679	38231273.074045636
1.2174891233444214	42763403.843014054
1.2217823266983032	46664060.652634695
1.2260783910751343	51462500.06528578
1.230377197265625	57741792.843872204
1.2346785068511963	64199525.93970406
1.238982081413269	67983961.25738889
1.2432878017425537	69097866.66007404
1.2475954294204712	69085975.1150657
1.2519049644470215	67963660.38312949
1.256216049194336	72778005.38177204
1.2605286836624146	79723446.66974252
1.2648425102233887	80118568.78337802
1.2691574096679688	78113725.2256477
1.2734732627868652	76172987.03243582
1.2777899503707886	72696410.44061445
1.2821072340011597	65335306.01453134
1.2864248752593994	56070128.5102349
1.2907428741455078	47549537.41291403
1.2950609922409058	41118815.62656094
1.2993791103363037	38278698.106861964
1.303696870803833	38235117.855557285
1.3080145120620728	38045770.04541329
1.3123314380645752	34672096.97596647
1.3166478872299194	29799089.913811784
1.3209635019302368	24288457.651209496
1.3252781629562378	16384834.52104555
1.3295916318893433	8389484.179713054
1.3339040279388428	3102190.1507009584
1.3382149934768677	791075.9262919144
1.3425244092941284	226412.55902312917
1.3468321561813354	124495.23684141393
1.3511382341384888	85775.62905603668
1.3554422855377197	46957.3863479224
1.3597444295883179	26737.81454448194
1.3640443086624146	26278.26067731777
1.3683418035507202	37034.43793574396
1.3726370334625244	74383.43379591311
1.3769296407699585	134037.27715635815
1.381219506263733	152410.74557084963
1.3855066299438477	121277.9587768888
1.3897908926010132	99642.56706424801
1.3940720558166504	93707.52664438519
1.3983501195907593	94167.73453866586
1.4026249647140503	112006.9559098408
1.4068963527679443	124218.32011094669
1.4111642837524414	116587.47597477362
1.4154287576675415	104324.05923508345
1.419689416885376	94047.30631334586
1.4239463806152344	119520.9810979095
1.4281994104385376	202598.87522567066
1.4324485063552856	247465.62519942454
1.436693549156189	224421.81313787928
1.440934419631958	257254.0129492266
1.4451709985733032	360427.28529726644
1.449403166770935	501170.4021186359
1.453631043434143	677125.4222279339
1.4578542709350586	888830.6656509566
1.4620729684829712	976108.0336098738
1.4662868976593018	882072.5420938195
1.4704961776733398	817797.5505172001
1.4747005701065063	908556.0578556163
1.4788999557495117	1073805.1234353613
1.4830944538116455	1208404.1215723692
1.4872838258743286	1384721.015196328
1.491468071937561	1643167.9063337157
1.4956470727920532	1966044.3633826156
1.4998208284378052	2370177.8686373676
1.5039892196655273	2790319.0974321575
1.5081522464752197	3286748.153411423
1.5123097896575928	3962655.1908541336
1.5164618492126465	4659868.837818107
1.5206083059310913	5661295.0742496345
1.5247491598129272	7021900.591998254
1.5288842916488647	8382968.48320135
1.5330137014389038	10362422.795465598
1.5371372699737549	12618328.347608937
1.541254997253418	14616105.424213503
1.545366883277893	16726752.556943148
1.5494728088378906	18283914.31355746
1.5535727739334106	19867301.926477496
1.5576666593551636	21799066.514699396
1.561754584312439	23475048.799203258
1.5658363103866577	25885513.39916982
1.5699119567871094	29529337.681215826
1.5739814043045044	33344937.014124308
1.5780447721481323	36617531.89809174
1.582101821899414	39383853.01320718
1.5861525535583496	40939877.5227277
1.5901970863342285	41394681.87784801
1.5942351818084717	42815436.91140362
1.5982669591903687	45731519.62225629
1.6022924184799194	48521540.102971695
1.606311559677124	49830243.86483287
1.6103241443634033	49530036.747552685
1.6143304109573364	45942835.030389495
1.6183301210403442	34168284.65074089
1.6223233938217163	19080130.29836781
1.6263102293014526	11750152.391380731
1.6302905082702637	9650887.369230432
1.634264349937439	8255426.2381816
1.638231635093689	11713104.79867025
1.6421923637390137	18565673.743193228
1.646146535873413	19494598.266336538
1.6500942707061768	16899045.88072722
1.6540353298187256	17827451.810436197
1.6579699516296387	20470823.833120044
1.661897897720337	20550534.62602228
1.6658192873001099	13708365.870999454
1.6697341203689575	8126823.653930315
1.6736423969268799	12922040.99226436
1.677544116973877	18851926.383737642
1.6814392805099487	16136145.4355468
1.6853278875350952	9490790.892418498
1.6892099380493164	6247966.576913978
1.6930854320526123	5953862.203358392
1.696954369544983	4605785.339985242
1.7008168697357178	1966149.3964268204
1.7046726942062378	953902.5254223488
1.708522081375122	2165198.9633299983
1.712364912033081	5175245.55686478
1.7162011861801147	8098270.144926472
1.7200311422348022	6783256.150034058
1.723854422569275	2971505.241848147
1.7276713848114014	1108515.5912699248
1.731481909751892	921147.9340161987
1.7352858781814575	1273996.1600101693
1.7390835285186768	1684297.2532221868
1.7428747415542603	1877351.3756835486
1.7466596364974976	2014719.7988831005
1.7504380941390991	2315067.6352354824
1.7542102336883545	2442373.6704706266
1.7579760551452637	2228307.444086037
1.7617355585098267	1823257.8707640925
1.7654887437820435	1275569.276705994
1.7692357301712036	787831.83262733
1.7729763984680176	484854.2760774812
1.776710867881775	533300.0866324103
1.7804391384124756	765460.9259004275
1.7841613292694092	657793.970427544
1.7878772020339966	429406.9118552672
1.7915871143341064	367136.1663588109
1.7952908277511597	539188.7051949098
1.7989884614944458	781814.2943766111
1.8026801347732544	590338.0918451146
1.806365728378296	348878.5380774773
1.8100452423095703	378392.3251942602
1.8137187957763672	427972.7211338397
1.817386507987976	481843.86404768884
1.8210482597351074	886962.1685121264
1.8247040510177612	1339233.1786732676
1.828354001045227	1013036.3784197186
1.8319982290267944	483367.0914117927
1.8356364965438843	306632.6811769908
1.8392690420150757	304268.80602175463
1.8428958654403687	444867.27407391916
1.8465168476104736	492962.14718104777
1.8501322269439697	467386.77136440715
1.8537418842315674	474990.2436621794
1.8573459386825562	382356.719143851
1.860944390296936	262408.0345199229
1.864537239074707	205171.03527287734
1.8681244850158691	175095.2978979591
1.871706247329712	217451.69713042863
1.8752825260162354	402659.04012366966
1.8788533210754395	730106.3521000588
1.8824186325073242	933101.7253144293
1.8859784603118896	848371.1023024258
1.8895330429077148	818499.6400353492
1.8930821418762207	1265888.5706905497
1.8966259956359863	1661580.8428109707
1.9001644849777222	1490007.4420079729
1.9036977291107178	1398100.8672875457
1.9072256088256836	1496617.4161815254
1.9107483625411987	1305398.6501411088
1.9142658710479736	1464449.2433014815
1.9177782535552979	2169632.17331425
1.9212853908538818	2006127.0167177275
1.9247875213623047	1206184.2551051434
1.9282845258712769	782086.0939982729
1.9317764043807983	624180.1849318638
1.9352631568908691	687294.5688653943
1.9387450218200684	701542.5440174972
1.942221760749817	616726.268311609
1.9456936120986938	612467.2568457639
1.9491604566574097	642015.42401819
1.952622413635254	646279.0408959346
1.956079363822937	629986.1284037554
1.959531545639038	658234.8783600471
1.962978720664978	715637.0523027692
1.966421127319336	937491.8207815834
1.9698586463928223	1194456.047150652
1.9732913970947266	1214571.55573412
1.9767193794250488	1265997.1887545239
1.9801424741744995	1421902.201953935
1.9835609197616577	1594300.9980784545
1.9869745969772339	1663296.2882778223
1.990383505821228	1632214.5648907167
1.9937876462936401	1938719.5004137568
1.9971871376037598	2335847.4932382675
2.000581979751587	2789357.791607158
2.003972291946411	3357856.605801355
2.007357597351074	3727913.2787535437
2.0107386112213135	4941089.78478082
2.0141148567199707	5715177.099534964
2.017486572265625	5064125.978203868
2.0208535194396973	5844852.302931533
2.0242159366607666	7280316.964874607
2.027573823928833	6954005.134495181
2.0309269428253174	6973919.538957874
2.034275770187378	8584401.105029283
2.0376198291778564	9399808.452179085
2.040959596633911	9052475.310956184
2.044294595718384	9802133.100844527
2.0476250648498535	10938704.639754407
2.0509510040283203	10306382.798488779
2.054272413253784	9980041.155814292
2.057589530944824	11622084.945990639
2.0609018802642822	12750089.503203632
2.0642096996307373	12725822.70938167
2.0675129890441895	12845667.253901152
2.0708119869232178	13184671.034466825
2.074106216430664	13658040.61194001
2.0773961544036865	13842398.214666551
2.080681324005127	13757927.157977773
2.0839622020721436	14061319.447262174
2.087238311767578	14494524.237098357
2.090510129928589	14627590.475353673
2.0937774181365967	14970805.077943651
2.0970399379730225	15542899.302592823
2.1002981662750244	15342259.438938204
2.1035518646240234	15016901.660519669
2.1068007946014404	15723244.737706317
2.1100454330444336	16341672.227670794
2.1132853031158447	16177739.682631465
2.116520881652832	15415378.622361057
2.1197516918182373	15105592.360777417
2.1229779720306396	15942500.567883579
2.12619948387146	16574989.006308898
2.1294167041778564	16449743.104175985
2.132629156112671	16376186.045601686
2.1358368396759033	16528133.52814629
2.139039993286133	16073052.151087152
2.1422386169433594	14708210.9657292
2.145432472229004	13380161.143370852
2.1486217975616455	12093553.907431364
2.151806354522705	11107724.745819671
2.1549863815307617	11292995.460466642
2.1581614017486572	12051772.468180183
2.16133189201355	12070564.425248051
2.1644976139068604	11538807.590860773
2.167658567428589	11770649.09756528
2.1708147525787354	12572775.304713527
2.173966407775879	13042073.150288425
2.1771130561828613	12891877.397929443
2.1802549362182617	12847808.270688316
2.183391809463501	12950628.818988092
2.1865241527557373	13487023.34450336
2.1896514892578125	14424862.162531694
2.1927738189697266	14318178.07331208
2.1958916187286377	11024054.90284932
2.1990041732788086	5068111.856627707
2.2021119594573975	1565507.2968686407
2.2052149772644043	2928206.6471330943
2.208312749862671	7178838.465493077
2.2114057540893555	10264439.265674602
2.214493751525879	8993549.388113515
2.217576742172241	5173768.500117572
2.2206547260284424	2456310.6456402494
2.2237277030944824	1404744.7695890805
2.2267956733703613	927973.2863074645
2.2298583984375	680084.8914350582
2.2329163551330566	614926.6488309212
2.235969066619873	692825.282918107
2.2390167713165283	739188.4674913496
2.2420592308044434	684271.2726746021
2.2450966835021973	601316.8177740456
2.248128890991211	485436.7482357467
2.2511560916900635	366163.3744620937
2.254178285598755	387521.8632552217
2.257194995880127	770212.0548795363
2.260206699371338	1178394.561415283
2.2632133960723877	1211999.872475825
2.266214609146118	1106543.7335457234
2.2692108154296875	1341346.1550882615
2.2722020149230957	1947704.9362750417
2.2751877307891846	2119309.2235075627
2.278168201446533	2018919.3711125515
2.2811436653137207	1858132.308754298
2.284113883972168	1247294.6576276186
2.287078857421875	644496.7589196067
2.290038824081421	364749.28752973507
2.2929933071136475	257146.81267649762
2.295942783355713	203675.08656426074
2.298887014389038	227351.48855368013
2.301826238632202	324047.1389943644
2.304760217666626	575755.855699701
2.3076889514923096	1599093.2766437617
2.310612440109253	4231878.489076376
2.3135311603546143	5982255.110022827
2.3164443969726562	3723843.8294855924
2.319352865219116	876040.1223753724
2.322256088256836	431235.72487027844
2.3251543045043945	982661.9014727527
2.328047275543213	1362882.3853197847
2.330935478210449	1069490.4512628817
2.3338186740875244	561145.2924905218
2.3366971015930176	273781.8589469918
2.3395702838897705	177317.07477929912
2.3424389362335205	198612.16277032747
2.3453025817871094	195876.44962344962
2.348161458969116	207726.52313031536
2.351015567779541	272121.1903739576
2.353865146636963	361790.7224269397
2.3567099571228027	717910.1887282038
2.3595502376556396	1338499.287621093
2.3623859882354736	1616877.0937440707
2.3652172088623047	1365880.924265143
2.368043899536133	818669.7580454226
2.370866537094116	288567.89728387125
2.3736846446990967	129953.3403495772
2.3764986991882324	361715.96642106253
2.3793084621429443	856135.4893612424
2.3821144104003906	1230757.3948342006
2.384916305541992	1281138.8652228564
2.387714147567749	1395874.435731343
2.3905084133148193	1705040.7651316344
2.393299102783203	1498434.0863235933
2.3960859775543213	720868.4627649554
2.398869514465332	216035.82408799592
2.4016497135162354	116988.90960339316
2.4044265747070312	180149.89323443084
2.407200336456299	285242.24175630737
2.409970998764038	335766.8535787453
2.4127390384674072	373745.63894409157
2.415503978729248	356360.21357111784
2.418266534805298	248423.46774568147
2.4210267066955566	188475.7388992898
2.4237842559814453	149527.3522370294
2.426539897918701	116018.6252267945
2.429293394088745	317283.8723053503
2.4320452213287354	605612.0831677255
2.4347951412200928	516385.8758036115
2.4375438690185547	408534.01752957405
2.440291166305542	487984.9484899356
2.443037271499634	406223.6520405143
2.445782423019409	329321.6212845777
2.4485268592834473	397797.65266069706
2.451270818710327	399535.65481886826
2.454014539718628	307597.55301067274
2.4567582607269287	306910.8253251159
2.4595019817352295	404413.0615665447
2.4622461795806885	571616.2426466787
2.4649908542633057	705435.119825106
2.4677364826202393	567346.2066106079
2.4704833030700684	360487.0302245556
2.473231554031372	430084.73638024944
2.4759814739227295	628372.5445657689
2.4787333011627197	639353.338496997
2.481487512588501	675824.1437605658
