#wavelength	surface flux
0.001	7.426162559071949e-94
0.00101	7.939576266859641e-94
0.0010201000000000001	8.458124111725212e-94
0.0010303010000000002	8.981857435039436e-94
0.00104060401	9.510828091586796e-94
0.0010510100501000001	1.0045088454699638e-93
0.0010615201506010002	1.058469142144361e-93
0.00107213535210701	1.112969041785501e-93
0.0010828567056280802	1.1680139404230528e-93
0.0010936852726843608	1.2236092880469797e-93
0.0011046221254112046	1.2560299636948851e-93
0.0011156683466653167	1.2560299636948851e-93
0.0011268250301319698	1.2560299636948851e-93
0.0011380932804332896	1.2560299636948851e-93
0.0011494742132376226	1.2560299636948851e-93
0.0011609689553699987	1.2560299636948851e-93
0.0011725786449236987	1.2560299636948851e-93
0.0011843044313729356	1.2560299636948851e-93
0.001196147475686665	1.2560299636948851e-93
0.0012081089504435317	1.2560299636948851e-93
0.0012201900399479671	1.2560299636948851e-93
0.0012323919403474468	1.2560299636948851e-93
0.0012447158597509213	1.2560299636948851e-93
0.0012571630183484304	1.2560299636948851e-93
0.0012697346485319148	1.2560299636948851e-93
0.0012824319950172339	1.2560299636948851e-93
0.0012952563149674064	1.2560299636948851e-93
0.0013082088781170805	1.2560299636948851e-93
0.001321290966898251	1.2560299636948851e-93
0.0013345038765672336	1.2560299636948851e-93
0.001347848915332906	1.2560299636948851e-93
0.0013613274044862352	1.2560299636948851e-93
0.0013749406785310975	1.2560299636948851e-93
0.0013886900853164084	1.2560299636948851e-93
0.0014025769861695724	1.2560299636948851e-93
0.0014166027560312683	1.2560299636948851e-93
0.001430768783591581	1.2560299636948851e-93
0.0014450764714274969	1.2560299636948851e-93
0.0014595272361417717	1.2560299636948851e-93
0.0014741225085031894	1.2560299636948851e-93
0.0014888637335882214	1.2560299636948851e-93
0.0015037523709241036	1.2560299636948851e-93
0.0015187898946333446	1.2560299636948851e-93
0.001533977793579678	1.2560299636948851e-93
0.001549317571515475	1.2560299636948851e-93
0.0015648107472306296	1.2560299636948851e-93
0.001580458854702936	1.2560299636948851e-93
0.0015962634432499655	1.2560299636948851e-93
0.001612226077682465	1.2560299636948851e-93
0.0016283483384592896	1.2560299636948851e-93
0.0016446318218438828	1.2560299636948851e-93
0.0016610781400623216	1.2560299636948851e-93
0.0016776889214629447	1.2560299636948851e-93
0.0016944658106775741	1.2560299636948851e-93
0.00171141046878435	1.2560299636948851e-93
0.0017285245734721935	1.2560299636948851e-93
0.0017458098192069155	1.2560299636948851e-93
0.0017632679173989845	1.2560299636948851e-93
0.0017809005965729746	1.2560299636948851e-93
0.0017987096025387042	1.2560299636948851e-93
0.0018166966985640914	1.2560299636948851e-93
0.0018348636655497322	1.2560299636948851e-93
0.0018532123022052297	1.2560299636948851e-93
0.001871744425227282	1.2560299636948851e-93
0.0018904618694795547	1.2560299636948851e-93
0.0019093664881743501	1.2560299636948851e-93
0.0019284601530560937	1.2560299636948851e-93
0.0019477447545866546	1.2560299636948851e-93
0.001967222202132521	1.2560299636948851e-93
0.0019868944241538465	1.2560299636948851e-93
0.0020067633683953853	1.2560299636948851e-93
0.002026831002079339	1.2560299636948851e-93
0.0020470993121001323	1.2560299636948851e-93
0.0020675703052211334	1.2560299636948851e-93
0.002088246008273345	1.2560299636948851e-93
0.0021091284683560784	1.2560299636948851e-93
0.0021302197530396394	1.2560299636948851e-93
0.002151521950570036	1.2560299636948851e-93
0.002173037170075736	1.2560299636948851e-93
0.0021947675417764933	1.2560299636948851e-93
0.0022167152171942584	1.2560299636948851e-93
0.002238882369366201	1.2560299636948851e-93
0.0022612711930598633	1.2560299636948851e-93
0.0022838839049904615	1.2560299636948851e-93
0.0023067227440403664	1.2560299636948851e-93
0.00232978997148077	1.2560299636948851e-93
0.0023530878711955777	1.2560299636948851e-93
0.0023766187499075337	1.2560299636948851e-93
0.0024003849374066087	1.2560299636948851e-93
0.002424388786780675	1.2560299636948851e-93
0.0024486326746484817	1.2560299636948851e-93
0.0024731190013949664	1.2560299636948851e-93
0.0024978501914089163	1.2560299636948851e-93
0.0025228286933230053	1.2560299636948851e-93
0.0025480569802562355	1.2560299636948851e-93
0.0025735375500587983	1.2560299636948851e-93
0.0025992729255593858	1.2560299636948851e-93
0.00262526565481498	1.2560299636948851e-93
0.0026515183113631296	1.2560299636948851e-93
0.002678033494476761	1.2560299636948851e-93
0.0027048138294215283	1.2560299636948851e-93
0.002731861967715744	1.2560299636948851e-93
0.002759180587392901	1.2560299636948851e-93
0.0027867723932668304	1.2560299636948851e-93
0.002814640117199499	1.2560299636948851e-93
0.0028427865183714937	1.2560299636948851e-93
0.002871214383555209	1.2560299636948851e-93
0.0028999265273907606	1.2560299636948851e-93
0.002928925792664668	1.2560299636948851e-93
0.002958215050591315	1.2560299636948851e-93
0.002987797201097228	1.2560299636948851e-93
0.0030176751731082006	1.2560299636948851e-93
0.0030478519248392827	1.2560299636948851e-93
0.0030783304440876753	1.2560299636948851e-93
0.0031091137485285522	1.2560299636948851e-93
0.0031402048860138376	1.2560299636948851e-93
0.0031716069348739764	1.2560299636948851e-93
0.003203323004222716	1.2560299636948851e-93
0.003235356234264943	1.2560299636948851e-93
0.003267709796607593	1.2560299636948851e-93
0.0033003868945736684	1.2560299636948851e-93
0.003333390763519405	1.2560299636948851e-93
0.0033667246711545995	1.2560299636948851e-93
0.0034003919178661455	1.2560299636948851e-93
0.0034343958370448065	1.2560299636948851e-93
0.0034687397954152547	1.2560299636948851e-93
0.0035034271933694077	1.2560299636948851e-93
0.0035384614653031017	1.2560299636948851e-93
0.0035738460799561327	1.2560299636948851e-93
0.003609584540755694	1.2560299636948851e-93
0.003645680386163251	1.2560299636948851e-93
0.0036821371900248832	1.2560299636948851e-93
0.0037189585619251324	1.2560299636948851e-93
0.0037561481475443838	1.2560299636948851e-93
0.0037937096290198277	1.2560299636948851e-93
0.003831646725310026	1.2560299636948851e-93
0.003869963192563126	1.2560299636948851e-93
0.003908662824488757	1.2560299636948851e-93
0.003947749452733645	1.2560299636948851e-93
0.003987226947260982	1.2560299636948851e-93
0.004027099216733592	1.2560299636948851e-93
0.004067370208900928	1.2560299636948851e-93
0.004108043910989938	1.2560299636948851e-93
0.004149124350099836	1.2560299636948851e-93
0.004190615593600834	1.2560299636948851e-93
0.004232521749536843	1.2560299636948851e-93
0.004274846967032212	1.2560299636948851e-93
0.004317595436702534	1.2560299636948851e-93
0.004360771391069559	1.2560299636948851e-93
0.0044043791049802545	1.2560299636948851e-93
0.004448422896030057	1.2560299636948851e-93
0.0044929071249903575	1.2560299636948851e-93
0.004537836196240262	1.2560299636948851e-93
0.004583214558202664	1.2560299636948851e-93
0.004629046703784691	1.2560299636948851e-93
0.0046753371708225374	1.2560299636948851e-93
0.004722090542530763	1.2560299636948851e-93
0.004769311447956071	1.2560299636948851e-93
0.004817004562435632	1.2560299636948851e-93
0.004865174608059988	1.2560299636948851e-93
0.004913826354140587	1.2560299636948851e-93
0.004962964617681994	1.2560299636948851e-93
0.005012594263858814	1.2560299636948851e-93
0.005062720206497402	1.2560299636948851e-93
0.0051133474085623765	1.2560299636948851e-93
0.005164480882648	1.2560299636948851e-93
0.0052161256914744795	1.2560299636948851e-93
0.005268286948389224	1.2560299636948851e-93
0.0053209698178731165	1.2560299636948851e-93
0.005374179516051849	1.2560299636948851e-93
0.005427921311212366	1.2560299636948851e-93
0.0054822005243244905	1.2560299636948851e-93
0.005537022529567735	1.2560299636948851e-93
0.005592392754863413	1.2560299636948851e-93
0.0056483166824120475	1.2560299636948851e-93
0.0057047998492361675	1.2560299636948851e-93
0.005761847847728529	1.2560299636948851e-93
0.005819466326205815	1.2560299636948851e-93
0.005877660989467873	1.2560299636948851e-93
0.005936437599362551	1.2560299636948851e-93
0.005995801975356177	1.2560299636948851e-93
0.0060557599951097385	1.2560299636948851e-93
0.006116317595060837	1.2560299636948851e-93
0.006177480771011445	1.2560299636948851e-93
0.006239255578721559	1.2560299636948851e-93
0.006301648134508775	1.2560299636948851e-93
0.006364664615853863	1.2560299636948851e-93
0.006428311262012401	1.2560299636948851e-93
0.0064925943746325255	1.2560299636948851e-93
0.006557520318378851	1.2560299636948851e-93
0.006623095521562639	1.2560299636948851e-93
0.006689326476778266	1.2560299636948851e-93
0.0067562197415460485	1.2560299636948851e-93
0.006823781938961509	1.2560299636948851e-93
0.006892019758351124	1.2560299636948851e-93
0.0069609399559346355	1.2560299636948851e-93
0.007030549355493982	1.2560299636948851e-93
0.007100854849048922	1.2560299636948851e-93
0.007171863397539412	1.2560299636948851e-93
0.007243582031514805	1.2560299636948851e-93
0.007316017851829954	1.2560299636948851e-93
0.007389178030348253	1.2560299636948851e-93
0.007463069810651736	1.2560299636948851e-93
0.007537700508758254	1.2560299636948851e-93
0.007613077513845836	1.2560299636948851e-93
0.007689208288984294	1.2560299636948851e-93
0.007766100371874137	1.2560299636948851e-93
0.00784376137559288	1.2560299636948851e-93
0.007922198989348808	1.2560299636948851e-93
0.008001420979242295	1.2560299636948851e-93
0.008081435189034718	1.2560299636948851e-93
0.008162249540925065	1.2560299636948851e-93
0.008243872036334317	1.2560299636948851e-93
0.008326310756697661	1.2560299636948851e-93
0.008409573864264637	1.2560299636948851e-93
0.008493669602907282	1.2560299636948851e-93
0.008578606298936356	1.2560299636948851e-93
0.008664392361925718	1.2560299636948851e-93
0.008751036285544977	1.2560299636948851e-93
0.008838546648400426	1.2560299636948851e-93
0.008926932114884432	1.2560299636948851e-93
0.009016201436033275	1.2560299636948851e-93
0.009106363450393609	1.2560299636948851e-93
0.009197427084897545	1.2560299636948851e-93
0.00928940135574652	1.2560299636948851e-93
0.009382295369303986	1.2560299636948851e-93
0.009476118322997024	1.2560299636948851e-93
0.009570879506226997	1.2560299636948851e-93
0.009666588301289265	1.2560299636948851e-93
0.009763254184302158	1.2560299636948851e-93
0.00986088672614518	1.2560299636948851e-93
0.009959495593406632	1.2560299636948851e-93
0.0100590905493407	1.2560299636948851e-93
0.010159681454834106	1.2560299636948851e-93
0.010261278269382446	1.2560299636948851e-93
0.01036389105207627	1.2560299636948851e-93
0.010467529962597035	1.2560299636948851e-93
0.010572205262223005	1.2560299636948851e-93
0.010677927314845235	1.2560299636948851e-93
0.010784706587993687	1.2560299636948851e-93
0.010892553653873623	1.2560299636948851e-93
0.01100147919041236	1.2560299636948851e-93
0.011111493982316483	1.2560299636948851e-93
0.01122260892213965	1.2560299636948851e-93
0.011334835011361045	1.2560299636948851e-93
0.011448183361474655	1.2560299636948851e-93
0.011562665195089401	1.2560299636948851e-93
0.011678291847040296	1.2560299636948851e-93
0.0117950747655107	1.2560299636948851e-93
0.011913025513165806	1.2560299636948851e-93
0.012032155768297465	1.2560299636948851e-93
0.01215247732598044	1.2560299636948851e-93
0.012274002099240244	1.2560299636948851e-93
0.012396742120232647	1.2560299636948851e-93
0.012520709541434973	1.2560299636948851e-93
0.012645916636849323	1.2560299636948851e-93
0.012772375803217816	1.2560299636948851e-93
0.012900099561249994	1.2560299636948851e-93
0.013029100556862495	1.2560299636948851e-93
0.01315939156243112	1.2560299636948851e-93
0.01329098547805543	1.2560299636948851e-93
0.013423895332835984	1.2560299636948851e-93
0.013558134286164345	1.2560299636948851e-93
0.01369371562902599	1.2560299636948851e-93
0.013830652785316248	1.2560299636948851e-93
0.013968959313169412	1.2560299636948851e-93
0.014108648906301107	1.2560299636948851e-93
0.014249735395364118	1.2560299636948851e-93
0.014392232749317758	1.2560299636948851e-93
0.014536155076810936	1.2560299636948851e-93
0.014681516627579045	1.2560299636948851e-93
0.014828331793854836	1.2560299636948851e-93
0.014976615111793384	1.2560299636948851e-93
0.015126381262911319	1.2560299636948851e-93
0.015277645075540433	1.2560299636948851e-93
0.015430421526295836	1.2560299636948851e-93
0.015584725741558796	1.2560299636948851e-93
0.015740572998974384	1.2560299636948851e-93
0.015897978728964125	1.2560299636948851e-93
0.01605695851625377	1.2560299636948851e-93
0.016217528101416308	1.2560299636948851e-93
0.01637970338243047	1.2560299636948851e-93
0.016543500416254773	1.2560299636948851e-93
0.016708935420417324	1.2560299636948851e-93
0.016876024774621495	1.2560299636948851e-93
0.01704478502236771	1.2560299636948851e-93
0.017215232872591385	1.2560299636948851e-93
0.0173873852013173	1.2560299636948851e-93
0.017561259053330475	1.2560299636948851e-93
0.01773687164386378	1.2560299636948851e-93
0.017914240360302418	1.2560299636948851e-93
0.018093382763905444	1.2560299636948851e-93
0.0182743165915445	1.2560299636948851e-93
0.01845705975745994	1.2560299636948851e-93
0.01864163035503454	1.2560299636948851e-93
0.01882804665858489	1.2560299636948851e-93
0.019016327125170738	1.2560299636948851e-93
0.019206490396422443	1.2560299636948851e-93
0.01939855530038667	1.2560299636948851e-93
0.019592540853390534	1.2560299636948851e-93
0.01978846626192444	1.2560299636948851e-93
0.019986350924543685	1.2560299636948851e-93
0.020186214433789124	1.2560299636948851e-93
0.020388076578127013	1.2560299636948851e-93
0.020591957343908285	1.2560299636948851e-93
0.020797876917347368	1.2560299636948851e-93
0.021005855686520844	1.2560299636948851e-93
0.02121591424338605	1.2560299636948851e-93
0.02142807338581991	1.2560299636948851e-93
0.02164235411967811	1.2560299636948851e-93
0.02185877766087489	1.2560299636948851e-93
0.02207736543748364	1.2560299636948851e-93
0.022298139091858477	1.2560299636948851e-93
0.02252112048277706	1.2560299636948851e-93
0.022746331687604832	1.2560299636948851e-93
0.022973795004480883	1.2560299636948851e-93
0.02320353295452569	1.2560299636948851e-93
0.023435568284070948	1.2560299636948851e-93
0.023669923966911657	1.2560299636948851e-93
0.02390662320658077	1.2560299636948851e-93
0.024145689438646582	1.2560299636948851e-93
0.024387146333033047	1.2560299636948851e-93
0.024631017796363376	1.2560299636948851e-93
0.024877327974327013	1.2560299636948851e-93
0.025126101254070284	1.2560299636948851e-93
0.025377362266610984	1.2560299636948851e-93
0.025631135889277096	1.2560299636948851e-93
0.025887447248169868	1.2560299636948851e-93
0.026146321720651563	1.2560299636948851e-93
0.026407784937858083	1.2560299636948851e-93
0.026671862787236662	1.2560299636948851e-93
0.02693858141510903	1.2560299636948851e-93
0.02720796722926012	1.2560299636948851e-93
0.027480046901552722	1.2560299636948851e-93
0.02775484737056825	1.2560299636948851e-93
0.028032395844273934	1.2560299636948851e-93
0.02831271980271667	1.2560299636948851e-93
0.02859584700074384	1.2560299636948851e-93
0.028881805470751278	1.2560299636948851e-93
0.02917062352545879	1.2560299636948851e-93
0.029462329760713377	1.2560299636948851e-93
0.029756953058320514	1.2560299636948851e-93
0.030054522588903718	1.2560299636948851e-93
0.030355067814792754	1.2560299636948851e-93
0.030658618492940683	1.2560299636948851e-93
0.030965204677870093	1.2560299636948851e-93
0.03127485672464879	1.2560299636948851e-93
0.031587605291895283	1.2560299636948851e-93
0.03190348134481423	1.2560299636948851e-93
0.032222516158262375	1.2560299636948851e-93
0.03254474131984499	1.2560299636948851e-93
0.03287018873304345	1.2560299636948851e-93
0.03319889062037388	1.2560299636948851e-93
0.03353087952657762	1.2560299636948851e-93
0.0338661883218434	1.2560299636948851e-93
0.03420485020506183	1.2560299636948851e-93
0.03454689870711246	1.256387445152366e-93
0.03489236769418358	1.2625308549064707e-93
0.035241291371125416	1.3293022517962937e-93
0.03559370428483667	2.1141129388824393e-93
0.035949641327685036	1.2184384214221323e-92
0.03630913774096189	1.260081472730194e-91
0.03667222911837151	1.4656538911242738e-90
0.03703895140955522	1.6778079305151544e-89
0.03740934092365077	1.7972517755981274e-88
0.037783434332887285	1.9375492190606427e-87
0.03816126867621615	2.060036888050967e-86
0.038542881362978315	2.13071216364258e-85
0.038928310176608104	2.111638862662038e-84
0.03931759327837418	2.0420819004974224e-83
0.039710769211157924	1.9413688164138933e-82
0.0401078769032695	1.8051573607254591e-81
0.0405089556723022	1.6486346869115235e-80
0.04091404522902522	1.4812103989979532e-79
0.041323185681315475	1.3064420493664174e-78
0.04173641753812863	1.1209104446539556e-77
0.04215378171350991	9.38560116513627e-77
0.042575319530645014	7.594998546195511e-76
0.04300107272595147	5.985711643143552e-75
0.043431083453210985	4.8084393973320274e-74
0.04386539428774309	3.679646656615915e-73
0.04430404823062052	2.719829740401069e-72
0.04474708871292673	2.054124467571474e-71
0.045194559600056	1.453738685842137e-70
0.04564650519605655	1.0507313070934538e-69
0.04610297024801712	7.157407458373983e-69
0.046563999950497294	4.955957643263309e-68
0.04702963995000226	3.3057084341765824e-67
0.04749993634950229	2.1288054667107334e-66
0.04797493571299731	1.388316262146974e-65
0.04845468507012728	8.804903641248669e-65
0.04893923192082856	5.4350467411872814e-64
0.04942862424003685	3.2975331453301975e-63
0.04992291048243721	1.9613636063978607e-62
0.050422139587261584	3.675609970389599e-60
0.0509263609831342	3.712646403310201e-59
0.051435624592965544	2.5350359086827055e-58
0.0519499808388952	1.108589949427641e-57
0.05246948064728415	4.9082066265864904e-57
0.052994175453756995	2.0865617815224738e-56
0.053524117208294565	6.768563226762139e-56
0.05405935838037751	3.531249693096622e-55
0.05459995196418129	1.440049010474637e-54
0.0551459514838231	5.861800438546689e-54
0.05569741099866134	2.324466799105869e-53
0.05625438510864795	9.30676668544432e-53
0.056816928959734427	3.6604391695660735e-52
0.05738509824933177	1.3416373209416765e-51
0.05795894923182509	7.07698074699177e-51
0.05853853872414334	1.9965471399783118e-50
0.05912392411138478	1.0316136206284258e-49
0.05971516335249862	3.9562899580792384e-49
0.06031231498602361	1.4896948889917696e-48
0.06091543813588385	5.575951132716448e-48
0.06152459251724268	2.0799549751672778e-47
0.062139838442415114	7.741450570327498e-47
0.06276123682683926	2.8584712992683183e-46
0.06338884919510765	1.0496406509642717e-45
0.06402273768705874	3.8480445384366144e-45
0.06466296506392932	1.402032123857562e-44
0.06530959471456863	5.063044218166427e-44
0.06596269066171431	1.8282504020051785e-43
0.06662231756833144	6.530953333849646e-43
0.06728854074401477	2.3130789374225548e-42
0.06796142615145492	8.158402284167379e-42
0.06864104041296946	2.8499604749530835e-41
0.06932745081709915	9.845875210070057e-41
0.07002072532527015	3.377223513526222e-40
0.07072093257852285	1.1476004634209326e-39
0.07142814190430807	3.863687447806276e-39
0.07214242332335115	1.2868589371593703e-38
0.07286384755658468	4.2423053056454425e-38
0.07359248603215052	1.3810542851028048e-37
0.07432841089247202	4.4668951393444636e-37
0.07507169500139675	1.4270209713061645e-36
0.07582241195141072	4.508843116250602e-36
0.07658063607092483	1.4095394842318758e-35
0.07734644243163408	4.3638589456424757e-35
0.07811990685595041	1.3310571810207199e-34
0.07890110592450993	4.039292758479144e-34
0.07969011698375501	1.2100664063609023e-33
0.08048701815359258	3.583552396364503e-33
0.08129188833512849	1.0496672456596038e-32
0.08210480721847978	3.041440286042634e-32
0.08292585529066457	8.737581569245737e-32
0.08375511384357122	2.480387900786915e-31
0.08459266498200693	6.907083361297842e-31
0.08543859163182702	1.929781045087257e-30
0.08629297754814527	5.3000368009569166e-30
0.08715590732362674	1.4444083710498598e-29
0.08802746639686301	3.879469897194191e-29
0.08890774106083163	1.0372259748782794e-28
0.08979681847143996	2.7376232388594566e-28
0.09069478665615435	7.159041477186856e-28
0.09160173452271589	5.68742335760532e-26
0.09251775186794305	4.285875129187194e-25
