#wavelength	surface flux
0.6450077295303345	17549.755098436468
0.6472567915916443	28226.92361756798
0.6494921445846558	38221.24495946755
0.6517150402069092	45810.92680898572
0.6539263725280762	54163.611345314006
0.6561272740364075	63503.1749001998
0.6583186388015747	73872.67624081438
0.6605015397071838	85289.11624636911
0.6626768708229065	97582.15022191337
0.6648455858230591	110082.5554841618
0.6670085787773132	117705.32506530898
0.6691668033599854	110767.7612182556
0.6713210344314575	110337.20463852126
0.6734722256660461	143032.81452833902
0.6756211519241333	181609.8492390333
0.6777685880661011	205014.70452973986
0.6799154281616211	223043.8830451764
0.6820623278617859	239267.78294669924
0.6842101216316223	253860.6423626244
0.6863595843315125	266478.02616836695
0.688511312007904	276299.8381362266
0.6906660795211792	281629.6936614001
0.6928245425224304	283367.6228230607
0.6949873566627502	286020.7569338452
0.6971551775932312	288591.36998102465
0.6993286609649658	286255.1958214905
0.7015084028244019	279390.55439628195
0.7036949396133423	270321.7283462286
0.7058889269828796	259527.0197003221
0.7080909013748169	246888.27255494546
0.710301399230957	232512.0245624936
0.712520956993103	216529.2448394544
0.7147500514984131	197974.55916415568
0.7169892191886902	177440.54426734778
0.7192389369010925	159381.3821530473
0.7214996814727783	143992.78864912904
0.723771870136261	128003.3406200739
0.7260559797286987	112053.26270843962
0.7283523678779602	97562.0250660952
0.7306615710258484	84376.85771481716
0.7329838871955872	72534.25443374194
0.7353196740150452	61779.382799139836
0.7376693487167358	51633.76847791324
0.7400332689285278	42426.53943973902
0.7424117922782898	34346.717829127345
0.7448052167892456	27387.256772857854
0.7472138404846191	21489.748087256965
0.7496379613876343	16578.859923533666
0.7520779371261597	12596.497778170698
0.7545340061187744	9444.016461743573
0.7570064663887024	6989.06454670923
0.7594954967498779	5062.37743492112
0.7620013952255249	3430.0951414084475
0.7645244002342224	1968.6485769409662
0.7670646905899048	1054.7085387151647
0.7696225643157959	1160.81516272702
0.7721980810165405	2461.455006847147
0.7747915983200073	4648.240098402471
0.7774031162261963	6956.288704055874
0.7800329327583313	9883.5410817445
0.7826811671257019	15256.845812024376
0.7853479981422424	23033.507097907695
0.7880334854125977	32518.14016892032
0.7907378077507019	41941.95673513932
0.7934610247612	49164.78526759328
0.7962033748626709	66300.13511331374
0.7989648580551147	99555.89554223308
0.801745593547821	136473.03045293328
0.8045456409454346	174552.5280860939
0.8073651194572449	217461.99716113144
0.8102040886878967	264588.4763696366
0.8130625486373901	318399.8315577604
0.8159406185150146	385232.1161179929
0.8188382983207703	465887.2799429146
0.8217556476593018	556464.4591816842
0.8246926665306091	662816.4220276249
0.8276493549346924	785428.8883164683
0.8306257724761963	916996.0220697374
0.8336219191551208	1062500.7738724023
0.8366377949714661	1226939.0811059668
0.8396733403205872	1411843.773002423
0.8427285552024841	1620089.8627656503
0.8458034992218018	1834312.4845863942
0.8488980531692505	1939790.100876826
0.8520121574401855	2008591.2632652582
0.8551458716392517	2400966.39855895
0.8582990765571594	2891217.23895348
0.8614717125892639	3058633.4332364486
0.8646637797355652	3178254.1881300313
0.8678751587867737	3499960.2444244963
0.8711057901382446	3877819.4755779547
0.8743556141853333	4272463.357346018
0.87762451171875	4681508.063736216
0.8809124231338501	4959023.864086156
0.8842192888259888	5152519.858102153
0.8875449895858765	5348296.15075621
0.8908893465995789	5213982.569870541
0.894252359867096	4991168.01941095
0.8976338505744934	5906940.719698353
0.9010337591171265	7734129.705851712
0.9044519662857056	9346903.596202526
0.9078882932662964	10441184.934550846
0.9113426208496094	11121262.611535411
0.914814829826355	11674089.854668349
0.9183048605918884	12436414.339100333
0.9218124747276306	13015141.873657826
0.925337553024292	11515862.99696674
0.9288799166679382	8284694.586875204
0.9324395060539246	6855465.329210931
0.9360161423683167	8199913.079321476
0.9396095871925354	10393280.064368838
0.943219780921936	11591148.280754171
0.9468464851379395	11678690.12680721
0.9504896402359009	11744451.774021173
0.9541489481925964	11761256.578784492
0.9578243494033813	11581754.885929177
0.9615156054496765	12013492.421787538
0.9652225375175476	13669175.80557399
0.9689450263977051	15880696.888270456
0.9726828336715698	17589112.9273694
0.9764357805252075	19088985.10320117
0.9802037477493286	20747394.79838986
0.983986496925354	22336349.72437935
0.9877838492393494	23892735.753760576
0.9915955662727356	25143869.36285025
0.9954215884208679	25248043.274553318
0.9992615580558777	23808369.88116911
1.0031154155731201	23492103.280956343
1.0069829225540161	25763736.82766846
1.0108637809753418	29051788.35987593
1.0147579908370972	32711525.79458409
1.018665075302124	36447637.51098302
1.022585153579712	39779457.687710084
1.0265177488327026	42615540.26999204
1.0304628610610962	45727743.68117674
1.0344202518463135	49493053.52009112
1.0383895635604858	53214786.70767087
1.0423706769943237	56323708.65404696
1.0463634729385376	58805295.39429936
1.0503677129745483	60624046.850710265
1.0543830394744873	62235637.53844515
1.058409333229065	64170162.306073055
1.0624464750289917	66555356.05129662
1.0664942264556885	69170181.8362235
1.0705522298812866	71797316.97880718
1.0746204853057861	74711269.9167098
1.0786986351013184	77367028.19130512
1.0827864408493042	78210393.9498879
1.086883783340454	73752723.06901355
1.0909905433654785	61659934.05107788
1.0951062440872192	46388409.38905587
1.0992310047149658	33845163.13719474
1.10336434841156	24544484.758250546
1.1075061559677124	17520952.321354456
1.1116561889648438	12680165.42215175
1.115814208984375	10398454.269059641
1.1199802160263062	10500325.223743964
1.124153733253479	12021339.714343293
1.1283347606658936	12782503.128311055
1.1325229406356812	10843792.848227259
1.1367181539535522	10127033.094956553
1.1409201622009277	12327424.224843603
1.145128846168518	14219340.686568817
1.1493438482284546	14786175.96381866
1.1535650491714478	13797498.73222817
1.1577922105789185	12649159.403414609
1.1620250940322876	12237924.141366966
1.1662636995315552	11962262.480028199
1.170507550239563	12784330.643522253
1.174756646156311	14449447.240560405
1.1790107488632202	17388747.68392889
1.1832695007324219	22833056.959948134
1.1875330209732056	28888842.91795537
1.191800832748413	35038270.452245235
1.1960728168487549	41818573.71405913
1.2003488540649414	48211325.25009996
1.2046287059783936	54593396.29784923
1.2089121341705322	60660885.37522513
1.2131990194320679	66207917.520301975
1.2174891233444214	71963356.93123946
1.2217823266983032	77379624.01818824
1.2260783910751343	82885447.16015357
1.230377197265625	88324866.88063744
1.2346785068511963	91829927.32013781
1.238982081413269	89827009.01269811
1.2432878017425537	84388222.9447678
1.2475954294204712	80856435.61980654
1.2519049644470215	78408121.61837004
1.256216049194336	87880454.57027186
1.2605286836624146	104955645.31524217
1.2648425102233887	111906321.39075127
1.2691574096679688	111942105.67640063
1.2734732627868652	109974467.2905182
1.2777899503707886	107196701.84182681
1.2821072340011597	102432950.2231107
1.2864248752593994	95066959.59842387
1.2907428741455078	89122029.3196961
1.2950609922409058	86422324.18416776
1.2993791103363037	83952580.1852052
1.303696870803833	80779066.96263504
1.3080145120620728	76869076.15540484
1.3123314380645752	70225927.46458799
1.3166478872299194	63248072.84172293
1.3209635019302368	56787126.72536775
1.3252781629562378	45445181.88514788
1.3295916318893433	28436981.88460375
1.3339040279388428	12875460.795426933
1.3382149934768677	4719882.683515354
1.3425244092941284	2221589.0769494534
1.3468321561813354	1419518.1103614494
1.3511382341384888	991124.4516822252
1.3554422855377197	721237.8948888258
1.3597444295883179	681128.602105391
1.3640443086624146	881714.3194515007
1.3683418035507202	1063543.0259828265
1.3726370334625244	1252617.8324052875
1.3769296407699585	1580311.2183731287
1.381219506263733	1610236.0638413017
1.3855066299438477	1387691.2574710282
1.3897908926010132	1299373.0513016216
1.3940720558166504	1237301.115385362
1.3983501195907593	1197657.462714226
1.4026249647140503	1260684.7095571691
1.4068963527679443	1263655.2374241643
1.4111642837524414	1209233.8755880068
1.4154287576675415	1228052.2580081273
1.419689416885376	1228817.4811107102
1.4239463806152344	1287298.1796373832
1.4281994104385376	1587396.89120111
1.4324485063552856	1893815.8163429082
1.436693549156189	2037622.5700060844
1.440934419631958	2221501.9009056794
1.4451709985733032	2601156.100042233
1.449403166770935	3375344.9196794615
1.453631043434143	4264597.476264075
1.4578542709350586	4876319.954004747
1.4620729684829712	5129241.719370294
1.4662868976593018	5077362.709666527
1.4704961776733398	5001650.228836954
1.4747005701065063	5292460.0913389325
1.4788999557495117	5851002.139094661
1.4830944538116455	6245433.306448549
1.4872838258743286	6615550.494770698
1.491468071937561	7187793.432608375
1.4956470727920532	7956219.309030171
1.4998208284378052	8882625.192763792
1.5039892196655273	9822547.931232944
1.5081522464752197	10776377.593439007
1.5123097896575928	11821311.480880378
1.5164618492126465	12881171.58440554
1.5206083059310913	14362444.27666149
1.5247491598129272	16178106.178232327
1.5288842916488647	17898611.095582373
1.5330137014389038	19761193.20209951
1.5371372699737549	21484109.12238296
1.541254997253418	22982511.22588453
1.545366883277893	24993108.89588377
1.5494728088378906	26894427.69787037
1.5535727739334106	28034028.807447188
1.5576666593551636	29602534.927238096
1.561754584312439	32687680.7211056
1.5658363103866577	36209113.499902114
1.5699119567871094	38192064.019994855
1.5739814043045044	39016788.30646524
1.5780447721481323	40085243.049474224
1.582101821899414	41169455.884814784
1.5861525535583496	41416577.32423403
1.5901970863342285	40578654.567165375
1.5942351818084717	39283180.40284935
1.5982669591903687	37688075.75589166
1.6022924184799194	35055867.51963228
1.606311559677124	31875995.95904956
1.6103241443634033	28959497.170362093
1.6143304109573364	25795754.323617116
1.6183301210403442	22834247.619927544
1.6223233938217163	21527725.30762995
1.6263102293014526	21548686.30729713
1.6302905082702637	22072185.814913947
1.634264349937439	23767023.370833345
1.638231635093689	26665330.24546697
1.6421923637390137	27967954.14673015
1.646146535873413	26489526.75175686
1.6500942707061768	25856874.099802732
1.6540353298187256	25132965.15130578
1.6579699516296387	23701586.740734953
1.661897897720337	22675094.997041512
1.6658192873001099	15341798.665442334
1.6697341203689575	8121646.546647657
1.6736423969268799	10988484.013418715
1.677544116973877	15742598.766645879
1.6814392805099487	16149083.863401446
1.6853278875350952	14669012.8008728
1.6892099380493164	12954520.433867123
1.6930854320526123	11094553.912603924
1.696954369544983	9441164.05177501
1.7008168697357178	8441034.143170703
1.7046726942062378	8560829.408540549
1.708522081375122	9869509.890650215
1.712364912033081	11070805.829328552
1.7162011861801147	11797534.040205766
1.7200311422348022	12320161.90535173
1.723854422569275	11779416.175041065
1.7276713848114014	10918791.158625528
1.731481909751892	10393275.064018896
1.7352858781814575	9988111.637798687
1.7390835285186768	10019704.351538569
1.7428747415542603	10242067.807127068
1.7466596364974976	10215447.423167966
1.7504380941390991	9791514.110643942
1.7542102336883545	8696878.455608735
1.7579760551452637	7614839.950828401
1.7617355585098267	7150976.371123301
1.7654887437820435	6626844.987241902
1.7692357301712036	5840295.285997877
1.7729763984680176	5161747.264773399
1.776710867881775	4830991.611591821
1.7804391384124756	4732381.133866266
1.7841613292694092	4292437.132500506
1.7878772020339966	3804090.9388480512
1.7915871143341064	3353749.289654983
1.7952908277511597	3075174.20023721
1.7989884614944458	3121655.0772799444
1.8026801347732544	2719335.983638128
1.806365728378296	2418039.292197191
1.8100452423095703	2613098.401220105
1.8137187957763672	2821671.748106906
1.817386507987976	2641520.240457353
1.8210482597351074	2664090.172865008
1.8247040510177612	3106166.338174853
1.828354001045227	2817636.35945068
1.8319982290267944	2229797.905069087
1.8356364965438843	1974218.5208306916
1.8392690420150757	1967994.8118762325
1.8428958654403687	2278376.4595684675
1.8465168476104736	2352386.1528595625
1.8501322269439697	2257256.1880518873
1.8537418842315674	2201152.8190037995
1.8573459386825562	1854902.8401212227
1.860944390296936	1491980.3386240606
1.864537239074707	1342323.0497553763
1.8681244850158691	1278163.4788167842
1.871706247329712	1427442.704760586
1.8752825260162354	2002175.1223719532
1.8788533210754395	2934862.400749247
1.8824186325073242	3632300.7708415464
1.8859784603118896	3730895.4789203997
1.8895330429077148	3692139.4707594784
1.8930821418762207	4173437.4266497116
1.8966259956359863	4564879.422490635
1.9001644849777222	4007990.414795519
1.9036977291107178	3523040.8043532143
1.9072256088256836	3772583.295877222
1.9107483625411987	3723496.9459728925
1.9142658710479736	3401538.9861418833
1.9177782535552979	3517822.6938717733
1.9212853908538818	3400681.864710747
1.9247875213623047	2952154.022555706
1.9282845258712769	2554181.381223168
1.9317764043807983	2223247.017128674
1.9352631568908691	2005596.4447542909
1.9387450218200684	1807963.0134075158
1.942221760749817	1948782.668200496
1.9456936120986938	2263069.475287792
1.9491604566574097	2410095.8594922596
1.952622413635254	2413325.997371603
1.956079363822937	2329381.974245939
1.959531545639038	2439743.7289015576
1.962978720664978	2674462.402691553
1.966421127319336	3003542.22916466
1.9698586463928223	3238205.726784359
1.9732913970947266	3227094.9344798145
1.9767193794250488	3416709.13275524
1.9801424741744995	3662024.607762383
1.9835609197616577	3967543.528789216
1.9869745969772339	4323809.303743379
1.990383505821228	4452301.703424433
1.9937876462936401	4997300.539363653
1.9971871376037598	5615499.020260006
2.000581979751587	5956997.434784848
2.003972291946411	6291570.731036102
2.007357597351074	6324547.433585103
2.0107386112213135	6648781.149432408
2.0141148567199707	7140489.680189771
2.017486572265625	7151838.843630395
2.0208535194396973	7842235.086595471
2.0242159366607666	8868985.593708947
2.027573823928833	8894166.925432501
2.0309269428253174	9096483.007074721
2.034275770187378	10035590.914676324
2.0376198291778564	10576344.39979912
2.040959596633911	10651140.66646745
2.044294595718384	11304370.586931556
2.0476250648498535	12323735.747475794
2.0509510040283203	12516148.340482293
2.054272413253784	12613147.279672258
2.057589530944824	13590080.00160423
2.0609018802642822	14122935.171532074
2.0642096996307373	14123195.89191181
2.0675129890441895	14488361.168782076
2.0708119869232178	14746088.050539771
2.074106216430664	14787156.642110744
2.0773961544036865	14859615.581026005
2.080681324005127	15050286.913727414
2.0839622020721436	15220893.452647245
2.087238311767578	15334976.933377149
2.090510129928589	15489628.406167194
2.0937774181365967	15465518.81436652
2.0970399379730225	15281876.618011862
2.1002981662750244	14974595.603821363
2.1035518646240234	14627930.419283915
2.1068007946014404	14340393.473215418
2.1100454330444336	14092896.067138523
2.1132853031158447	14027911.073356202
2.116520881652832	13738176.835479999
2.1197516918182373	13331808.580140427
2.1229779720306396	13229406.88693146
2.12619948387146	13080574.259293882
2.1294167041778564	12768986.76929292
2.132629156112671	12573802.59479748
2.1358368396759033	12332178.674528249
2.139039993286133	11707123.509057565
2.1422386169433594	10700440.527409533
2.145432472229004	9780797.10653905
2.1486217975616455	9457128.629274298
2.151806354522705	9390353.559394222
2.1549863815307617	9197199.210818661
2.1581614017486572	8816872.113443047
2.16133189201355	8274138.388203017
2.1644976139068604	7816785.504014997
2.167658567428589	7414315.710364162
2.1708147525787354	7106808.128174706
2.173966407775879	6819955.417242489
2.1771130561828613	6401596.728793111
2.1802549362182617	6026393.182834923
2.183391809463501	5585444.426963056
2.1865241527557373	5045488.631570532
2.1896514892578125	4402157.715509921
2.1927738189697266	3563891.9578312254
2.1958916187286377	2582478.461743286
2.1990041732788086	1647642.698137246
2.2021119594573975	1103980.065278945
2.2052149772644043	1023153.5098974599
2.208312749862671	1223285.6804579129
2.2114057540893555	1545932.3701605164
2.214493751525879	1854473.3852373997
2.217576742172241	2051265.87188735
2.2206547260284424	2099116.6330233286
2.2237277030944824	2008100.0813124792
2.2267956733703613	1813546.3716736422
2.2298583984375	1625933.9224680997
2.2329163551330566	1522313.61280004
2.235969066619873	1452439.9313677847
2.2390167713165283	1324807.8583395826
2.2420592308044434	1176123.7288122356
2.2450966835021973	1062609.3693320453
2.248128890991211	978875.183538116
2.2511560916900635	934168.1586189223
2.254178285598755	912055.2020930053
2.257194995880127	903640.2305794867
2.260206699371338	906485.4399477046
2.2632133960723877	926484.3056659957
2.266214609146118	947826.6374207765
2.2692108154296875	947131.8263431346
2.2722020149230957	940937.4865385754
2.2751877307891846	918580.4443011166
2.278168201446533	898338.7651766478
2.2811436653137207	854143.2358619738
2.284113883972168	753772.6056791444
2.287078857421875	677404.3366454471
2.290038824081421	621462.3912194258
2.2929933071136475	576103.9689455461
2.295942783355713	590947.061287873
2.298887014389038	677015.5483211727
2.301826238632202	783613.573683033
2.304760217666626	946067.0297663229
2.3076889514923096	1301354.6446590188
2.310612440109253	1756784.756721924
2.3135311603546143	1839085.270332577
2.3164443969726562	1236186.3802232344
2.319352865219116	603266.7683046919
2.322256088256836	461859.05428881635
2.3251543045043945	479117.57861344464
2.328047275543213	487533.322330924
2.330935478210449	528906.6849761517
2.3338186740875244	576144.0042839414
2.3366971015930176	612691.9140635288
2.3395702838897705	640646.1800199994
2.3424389362335205	645108.0690854941
2.3453025817871094	613245.6067444844
2.348161458969116	604144.737848205
2.351015567779541	651597.2031641974
2.353865146636963	715507.005755634
2.3567099571228027	791494.2575203726
2.3595502376556396	923867.2140868427
2.3623859882354736	1076012.596371525
2.3652172088623047	1146799.8976239178
2.368043899536133	1015603.4334404599
2.370866537094116	687555.7644361386
2.3736846446990967	516604.44852901023
2.3764986991882324	572067.5590094505
2.3793084621429443	595575.4642769947
2.3821144104003906	575851.2337936168
2.384916305541992	663102.473586268
2.387714147567749	853716.9317226568
2.3905084133148193	944902.0753040394
2.393299102783203	935085.3869588951
2.3960859775543213	981231.0399161004
2.398869514465332	1114218.7218021587
2.4016497135162354	1259962.6600968894
2.4044265747070312	1361506.0930266536
2.407200336456299	1384435.5929535562
2.409970998764038	1460224.806576589
2.4127390384674072	1612587.8522970956
2.415503978729248	1569485.851304537
2.418266534805298	1448950.2361650825
2.4210267066955566	1453710.8634937278
2.4237842559814453	1377566.2208325332
2.426539897918701	1301551.0487434282
2.429293394088745	1467745.9454594045
2.4320452213287354	1657088.9020177366
2.4347951412200928	1613070.339887826
2.4375438690185547	1681874.7690737455
2.440291166305542	1912301.6776991975
2.443037271499634	1906832.9810583105
2.445782423019409	1793306.291656681
2.4485268592834473	1784591.4378386268
2.451270818710327	1783227.4151517688
2.454014539718628	1833434.6896669038
2.4567582607269287	2045494.641085649
2.4595019817352295	2149661.619312218
2.4622461795806885	2264430.912764796
2.4649908542633057	2453102.739359874
2.4677364826202393	2254671.025986815
2.4704833030700684	1948707.7205591605
2.473231554031372	1857976.8234321657
2.4759814739227295	1933930.0316153315
2.4787333011627197	2038165.0544996588
2.481487512588501	2083005.001143746
