#wavelength	surface flux
0.6450077295303345	3421.4291076786362
0.6472567915916443	5558.6638816429295
0.6494921445846558	7680.16040211316
0.6517150402069092	9403.82887687625
0.6539263725280762	11335.043978186704
0.6561272740364075	13530.247033243744
0.6583186388015747	16049.147090067976
0.6605015397071838	18898.284253663795
0.6626768708229065	22016.509679447296
0.6648455858230591	25336.96372270843
0.6670085787773132	27657.073723955567
0.6691668033599854	26562.814883407835
0.6713210344314575	27076.145252129463
0.6734722256660461	35625.44226316465
0.6756211519241333	45576.57359725127
0.6777685880661011	51849.421338618944
0.6799154281616211	56896.66275060881
0.6820623278617859	61575.810531944204
0.6842101216316223	65873.89004308585
0.6863595843315125	69581.02342687553
0.688511312007904	72041.32044316539
0.6906660795211792	71808.62376186572
0.6928245425224304	70136.55792578838
0.6949873566627502	71175.60898952786
0.6971551775932312	73858.3029963733
0.6993286609649658	73826.62440577969
0.7015084028244019	71389.03591834314
0.7036949396133423	68821.44877615104
0.7058889269828796	66407.44748649716
0.7080909013748169	63580.062851453884
0.710301399230957	59979.67153851929
0.712520956993103	55551.14366393053
0.7147500514984131	49528.38092940305
0.7169892191886902	42206.80012535435
0.7192389369010925	36614.549412774366
0.7214996814727783	32999.54745106094
0.723771870136261	29090.328079922558
0.7260559797286987	25055.909948960085
0.7283523678779602	22076.701228713013
0.7306615710258484	19832.510896013195
0.7329838871955872	17892.231325833924
0.7353196740150452	16090.566175157033
0.7376693487167358	14044.11415846876
0.7400332689285278	11980.902394717623
0.7424117922782898	10124.240463580893
0.7448052167892456	8543.571934939037
0.7472138404846191	7167.741720489539
0.7496379613876343	5895.200209054536
0.7520779371261597	4748.64984772978
0.7545340061187744	3745.440019198168
0.7570064663887024	2867.7632026422234
0.7594954967498779	2089.3273387482586
0.7620013952255249	1364.148067842238
0.7645244002342224	709.7657757510843
0.7670646905899048	316.76547916748194
0.7696225643157959	357.007004621307
0.7721980810165405	915.1521563863623
0.7747915983200073	1898.1604946810937
0.7774031162261963	2939.0583124064524
0.7800329327583313	4141.598578842753
0.7826811671257019	6177.233625321605
0.7853479981422424	8957.62229252529
0.7880334854125977	12149.961707888482
0.7907378077507019	15188.291236172841
0.7934610247612	17326.099006897926
0.7962033748626709	22318.50541528214
0.7989648580551147	32144.642230537454
0.801745593547821	42961.952008180124
0.8045456409454346	53775.86983592574
0.8073651194572449	64735.183459998414
0.8102040886878967	75275.54598751287
0.8130625486373901	88235.15255609775
0.8159406185150146	107719.93601841891
0.8188382983207703	132351.005151762
0.8217556476593018	157793.7112726031
0.8246926665306091	188425.11971180895
0.8276493549346924	225470.5530416081
0.8306257724761963	264394.74841049
0.8336219191551208	306979.1398887387
0.8366377949714661	354020.48795940296
0.8396733403205872	407553.4344947648
0.8427285552024841	471890.8310774227
0.8458034992218018	544831.3611431539
0.8488980531692505	589392.5820547082
0.8520121574401855	621136.9620501339
0.8551458716392517	746572.1130151468
0.8582990765571594	899159.4987029848
0.8614717125892639	963928.4609658573
0.8646637797355652	1023397.0506486256
0.8678751587867737	1146593.8739496255
0.8711057901382446	1291866.0530546547
0.8743556141853333	1417231.383238874
0.87762451171875	1457821.7112945796
0.8809124231338501	1298159.791548229
0.8842192888259888	1034184.7206103072
0.8875449895858765	867803.8159793003
0.8908893465995789	774164.2317502568
0.894252359867096	762924.9653874845
0.8976338505744934	1060576.6620451496
0.9010337591171265	1704845.7761248613
0.9044519662857056	2453572.918338285
0.9078882932662964	2979427.610231161
0.9113426208496094	3128763.604575355
0.914814829826355	3073312.457515147
0.9183048605918884	3158252.097513912
0.9218124747276306	3287522.487980361
0.925337553024292	2740278.3850064157
0.9288799166679382	1700852.6238489777
0.9324395060539246	1169361.4451941045
0.9360161423683167	1242288.9533260653
0.9396095871925354	1495828.2472501283
0.943219780921936	1701951.0462197699
0.9468464851379395	1819022.1225045957
0.9504896402359009	1915022.9368577444
0.9541489481925964	1946786.640455274
0.9578243494033813	1868266.7397284894
0.9615156054496765	1881772.697221561
0.9652225375175476	2094554.2772031368
0.9689450263977051	2315830.7809403036
0.9726828336715698	2432763.1173218186
0.9764357805252075	2544186.973286212
0.9802037477493286	2652366.6200811937
0.983986496925354	2674005.9281993485
0.9877838492393494	2753614.2362822345
0.9915955662727356	3045762.3499877932
0.9954215884208679	3494168.354784928
0.9992615580558777	4014677.450081097
1.0031154155731201	4758784.8259192305
1.0069829225540161	5669625.92522172
1.0108637809753418	6558931.881335368
1.0147579908370972	7606992.339037611
1.018665075302124	8864252.980969531
1.022585153579712	10143284.831481827
1.0265177488327026	11415860.498575892
1.0304628610610962	12824541.663722761
1.0344202518463135	14472557.937740885
1.0383895635604858	16172647.447627153
1.0423706769943237	17581341.025356032
1.0463634729385376	18489009.744647354
1.0503677129745483	19084990.862185564
1.0543830394744873	19822541.532989535
1.058409333229065	20579940.8327765
1.0624464750289917	21385836.814466693
1.0664942264556885	22220653.383204266
1.0705522298812866	22934302.453532226
1.0746204853057861	23854689.903310902
1.0786986351013184	24486078.989937954
1.0827864408493042	23716445.636309862
1.086883783340454	19974312.682878025
1.0909905433654785	13652957.646783985
1.0951062440872192	8289188.462982323
1.0992310047149658	5591096.793275585
1.10336434841156	4143962.2618234586
1.1075061559677124	2926182.0466668154
1.1116561889648438	1981628.868050245
1.115814208984375	1418462.4628371112
1.1199802160263062	1149783.7956876454
1.124153733253479	1082152.6712419481
1.1283347606658936	1118565.4212227152
1.1325229406356812	975321.3479048121
1.1367181539535522	943062.5900628435
1.1409201622009277	1210000.8952268674
1.145128846168518	1294244.1026988104
1.1493438482284546	1101607.058097978
1.1535650491714478	890292.7250153794
1.1577922105789185	839893.357634788
1.1620250940322876	841813.1414629405
1.1662636995315552	890376.6465652373
1.170507550239563	1170786.8904330153
1.174756646156311	1561327.4531428046
1.1790107488632202	2103677.246943622
1.1832695007324219	2861007.161935187
1.1875330209732056	3668561.632036197
1.191800832748413	4855742.265659839
1.1960728168487549	6395100.822753025
1.2003488540649414	7816932.402216455
1.2046287059783936	9369507.414978247
1.2089121341705322	10887306.203509113
1.2131990194320679	12207230.812032968
1.2174891233444214	13684347.428954745
1.2217823266983032	15346251.86327445
1.2260783910751343	17383068.15356469
1.230377197265625	19584763.44751254
1.2346785068511963	21576725.226030935
1.238982081413269	23151479.80908312
1.2432878017425537	24477795.276533175
1.2475954294204712	25807417.58375566
1.2519049644470215	26544536.76008845
1.256216049194336	28487309.496175423
1.2605286836624146	30463721.48402731
1.2648425102233887	29456888.856790632
1.2691574096679688	27390275.72726512
1.2734732627868652	25832899.86921876
1.2777899503707886	24790588.305241298
1.2821072340011597	23346136.516227502
1.2864248752593994	20956907.1915557
1.2907428741455078	19135328.424340975
1.2950609922409058	18331681.286667682
1.2993791103363037	17121569.569607385
1.303696870803833	15282456.670806317
1.3080145120620728	13386123.728412539
1.3123314380645752	11532659.63065638
1.3166478872299194	10213638.630034
1.3209635019302368	9547117.93489157
1.3252781629562378	8255672.077240116
1.3295916318893433	5285338.488655606
1.3339040279388428	2211210.348188679
1.3382149934768677	802642.4129917965
1.3425244092941284	412181.0703929688
1.3468321561813354	224571.84570793484
1.3511382341384888	129746.35302549909
1.3554422855377197	86303.64364711329
1.3597444295883179	78046.4003851003
1.3640443086624146	101888.69880586711
1.3683418035507202	121445.30847022412
1.3726370334625244	131569.57605869454
1.3769296407699585	154156.85797960762
1.381219506263733	153136.52854202548
1.3855066299438477	138283.04951791643
1.3897908926010132	142988.52403156948
1.3940720558166504	146282.81103663277
1.3983501195907593	143296.19818515453
1.4026249647140503	141932.8614492871
1.4068963527679443	134181.5288321319
1.4111642837524414	140926.87968455907
1.4154287576675415	169673.01413437075
1.419689416885376	173991.0215275223
1.4239463806152344	171653.28201065716
1.4281994104385376	215937.99568144514
1.4324485063552856	279131.9718499287
1.436693549156189	328460.79621699644
1.440934419631958	372506.0645428667
1.4451709985733032	443876.4813378756
1.449403166770935	615421.7031886368
1.453631043434143	836545.1208685156
1.4578542709350586	960633.3576699139
1.4620729684829712	967467.5958480516
1.4662868976593018	908339.419600191
1.4704961776733398	805202.6540578597
1.4747005701065063	784518.2281007221
1.4788999557495117	890213.9624858584
1.4830944538116455	996852.3299473033
1.4872838258743286	1090299.6007046383
1.491468071937561	1178816.3668427744
1.4956470727920532	1300801.8878859608
1.4998208284378052	1483238.8242589887
1.5039892196655273	1591552.9694949063
1.5081522464752197	1652363.2411785466
1.5123097896575928	1789684.3937678463
1.5164618492126465	1982947.4805031987
1.5206083059310913	2262293.76702981
1.5247491598129272	2568174.6736845127
1.5288842916488647	2863173.7763840356
1.5330137014389038	3195555.8815556094
1.5371372699737549	3471969.640571466
1.541254997253418	3710020.6873851507
1.545366883277893	4070270.5231970362
1.5494728088378906	4369552.364789321
1.5535727739334106	4421022.213948593
1.5576666593551636	4716963.935098511
1.561754584312439	5664526.75132237
1.5658363103866577	6735378.677075371
1.5699119567871094	7226573.613196975
1.5739814043045044	7329333.072409785
1.5780447721481323	7478542.750541754
1.582101821899414	7529453.479097053
1.5861525535583496	7334143.989578518
1.5901970863342285	6922188.9917330975
1.5942351818084717	6385565.771467546
1.5982669591903687	5708920.244824731
1.6022924184799194	4767187.803153032
1.606311559677124	3873374.853546191
1.6103241443634033	3304798.07510372
1.6143304109573364	2734820.5354452957
1.6183301210403442	2189896.8814612376
1.6223233938217163	2169290.6981090987
1.6263102293014526	2552560.6209124946
1.6302905082702637	2855239.432444801
1.634264349937439	3181687.8421669113
1.638231635093689	3703236.0033930587
1.6421923637390137	3670686.245994071
1.646146535873413	2861750.889759714
1.6500942707061768	2730459.8983699405
1.6540353298187256	2908319.8597823763
1.6579699516296387	2434914.882736134
1.661897897720337	2194075.6966449074
1.6658192873001099	1529570.443149611
1.6697341203689575	590597.0794214642
1.6736423969268799	612672.2656606971
1.677544116973877	921959.264276491
1.6814392805099487	893062.6642939597
1.6853278875350952	756612.7116051415
1.6892099380493164	603545.5280296571
1.6930854320526123	418455.0225494187
1.696954369544983	300383.57188524446
1.7008168697357178	265797.8851434582
1.7046726942062378	316807.37376357696
1.708522081375122	453199.05311449786
1.712364912033081	577454.3625570456
1.7162011861801147	700438.413304404
1.7200311422348022	804943.0214318974
1.723854422569275	765305.3040391773
1.7276713848114014	687684.1457225805
1.731481909751892	634151.7097509
1.7352858781814575	626292.5290885968
1.7390835285186768	742150.0943938484
1.7428747415542603	911726.9426471227
1.7466596364974976	1056574.1209212097
1.7504380941390991	1102674.7419802065
1.7542102336883545	1009097.4011822083
1.7579760551452637	894385.48515517
1.7617355585098267	841809.181979333
1.7654887437820435	773133.8662646316
1.7692357301712036	641539.8764368782
1.7729763984680176	559553.5843786544
1.776710867881775	656943.1668554986
1.7804391384124756	798723.9477149098
1.7841613292694092	757561.2721454527
1.7878772020339966	638603.2736413403
1.7915871143341064	520422.7136516938
1.7952908277511597	488240.0321917004
1.7989884614944458	553883.0825741339
1.8026801347732544	518312.99964378984
1.806365728378296	490106.4197381626
1.8100452423095703	548843.5403618808
1.8137187957763672	592862.713255626
1.817386507987976	545996.9190173277
1.8210482597351074	565887.4361098178
1.8247040510177612	687711.8982565092
1.828354001045227	632706.7839043839
1.8319982290267944	481405.42706736765
1.8356364965438843	388373.0060275265
1.8392690420150757	386631.06364024006
1.8428958654403687	492137.13411955384
1.8465168476104736	526071.9513537074
1.8501322269439697	490561.5034903528
1.8537418842315674	482416.61359670263
1.8573459386825562	421333.86212721467
1.860944390296936	342733.283437964
1.864537239074707	299678.83821184334
1.8681244850158691	265589.7178593796
1.871706247329712	290529.80693979777
1.8752825260162354	438126.19687019306
1.8788533210754395	696006.8106375007
1.8824186325073242	898785.8910169128
1.8859784603118896	932265.0908505684
1.8895330429077148	911934.6490154517
1.8930821418762207	1000747.6710493241
1.8966259956359863	1063174.5605505186
1.9001644849777222	893266.804144925
1.9036977291107178	755395.9851487185
1.9072256088256836	830034.7182440248
1.9107483625411987	825334.9731566927
1.9142658710479736	736901.8769442484
1.9177782535552979	765459.1623273476
1.9212853908538818	766739.4118945224
1.9247875213623047	686608.0519353658
1.9282845258712769	576878.1329484045
1.9317764043807983	483274.1215590934
1.9352631568908691	435086.8784846589
1.9387450218200684	401288.4267301253
1.942221760749817	458849.07385497785
1.9456936120986938	538361.246621393
1.9491604566574097	550024.8273778243
1.952622413635254	529601.5261528065
1.956079363822937	511524.2817879329
1.959531545639038	556163.7184451302
1.962978720664978	612526.2175659215
1.966421127319336	667994.701138816
1.9698586463928223	726941.7651460738
1.9732913970947266	754859.6878688761
1.9767193794250488	824306.7135611442
1.9801424741744995	877077.2303818765
1.9835609197616577	926610.5254399951
1.9869745969772339	1026713.0195866431
1.990383505821228	1141783.4816466288
1.9937876462936401	1359569.0351272575
1.9971871376037598	1532841.9804642312
2.000581979751587	1617855.7347417425
2.003972291946411	1652595.7588564917
2.007357597351074	1642842.5084584665
2.0107386112213135	1738126.706503246
2.0141148567199707	1813832.812184736
2.017486572265625	1803379.35506235
2.0208535194396973	2046963.5705808683
2.0242159366607666	2431397.4875862235
2.027573823928833	2523248.7487480133
2.0309269428253174	2629323.7925607488
2.034275770187378	2984280.5499706883
2.0376198291778564	3171119.7442592364
2.040959596633911	3127396.54561896
2.044294595718384	3380847.5724580106
2.0476250648498535	3867675.363352452
2.0509510040283203	3960945.8842709903
2.054272413253784	3930649.90806367
2.057589530944824	4275367.211351867
2.0609018802642822	4465499.205410791
2.0642096996307373	4455746.549271277
2.0675129890441895	4618212.174339507
2.0708119869232178	4728423.56755376
2.074106216430664	4762401.07016868
2.0773961544036865	4754461.503790464
2.080681324005127	4750514.246017086
2.0839622020721436	4738538.40036027
2.087238311767578	4698338.877257
2.090510129928589	4749555.552821904
2.0937774181365967	4713330.124797156
2.0970399379730225	4517865.702575146
2.1002981662750244	4263612.381955336
2.1035518646240234	4061018.2088939752
2.1068007946014404	3867482.4977925336
2.1100454330444336	3620986.925267739
2.1132853031158447	3482508.050484361
2.116520881652832	3330209.0889080255
2.1197516918182373	3155073.6784901433
2.1229779720306396	3078734.7023992212
2.12619948387146	2977901.071616024
2.1294167041778564	2841637.840616439
2.132629156112671	2735585.6900907303
2.1358368396759033	2571645.010391358
2.139039993286133	2262002.080059441
2.1422386169433594	1849856.003974675
2.145432472229004	1493164.4452689872
2.1486217975616455	1367963.800732873
2.151806354522705	1346436.4772961843
2.1549863815307617	1274836.194076891
2.1581614017486572	1176273.3007750597
2.16133189201355	1052640.9260508
2.1644976139068604	930097.400934189
2.167658567428589	806798.2461053401
2.1708147525787354	738402.6178981961
2.173966407775879	717940.6728816512
2.1771130561828613	666743.4789262811
2.1802549362182617	611580.3969558179
2.183391809463501	546982.0061878926
2.1865241527557373	472733.35136231635
2.1896514892578125	390191.72605295724
2.1927738189697266	284751.677337761
2.1958916187286377	176773.9702911194
2.1990041732788086	90923.999461249
2.2021119594573975	47491.864594353065
2.2052149772644043	39455.68757586094
2.208312749862671	49965.606803883005
2.2114057540893555	73424.71444332419
2.214493751525879	101654.7716612362
2.217576742172241	124064.93001678347
2.2206547260284424	130960.1351134434
2.2237277030944824	121938.57460461806
2.2267956733703613	108455.13607353781
2.2298583984375	95533.39070800923
2.2329163551330566	87199.57491567658
2.235969066619873	81128.79247585451
2.2390167713165283	68338.61532130654
2.2420592308044434	56324.57213112038
2.2450966835021973	47996.08053892806
2.248128890991211	41610.111004881444
2.2511560916900635	38662.069315037676
2.254178285598755	37211.47145450041
2.257194995880127	38222.18350165732
2.260206699371338	40809.36096661751
2.2632133960723877	42060.46779893941
2.266214609146118	42574.25807146437
2.2692108154296875	43884.573234946365
2.2722020149230957	44333.61984809051
2.2751877307891846	41515.13903144788
2.278168201446533	39044.95635134052
2.2811436653137207	36513.046756862386
2.284113883972168	29960.338331994597
2.287078857421875	23787.18835398817
2.290038824081421	20447.479160755454
2.2929933071136475	18811.00427415897
2.295942783355713	19631.884826825415
2.298887014389038	23828.974753335722
2.301826238632202	29387.8465409173
2.304760217666626	38467.35698625985
2.3076889514923096	58953.5162558238
2.310612440109253	88251.23783731536
2.3135311603546143	98998.51995264311
2.3164443969726562	66506.66580292016
2.319352865219116	27518.44078467887
2.322256088256836	16357.830819506027
2.3251543045043945	15599.111816991737
2.328047275543213	16248.58680271182
2.330935478210449	19951.92876783114
2.3338186740875244	24539.246682799778
2.3366971015930176	28632.766430875603
2.3395702838897705	30959.07316575484
2.3424389362335205	29906.155640873087
2.3453025817871094	26012.495228230684
2.348161458969116	24486.611475654216
2.351015567779541	27490.780527133913
2.353865146636963	31798.7857940913
2.3567099571228027	37054.40228955424
2.3595502376556396	43838.01539967846
2.3623859882354736	51701.495722130065
2.3652172088623047	59379.41104900273
2.368043899536133	57520.718879919186
2.370866537094116	39398.40498004487
2.3736846446990967	26067.176742943604
2.3764986991882324	27053.782902502044
2.3793084621429443	26918.505800420222
2.3821144104003906	25078.894950080776
2.384916305541992	31922.813225829275
2.387714147567749	46079.09289557639
2.3905084133148193	52565.21526129338
2.393299102783203	51188.69515701057
2.3960859775543213	54177.584958573265
2.398869514465332	63815.51227539053
2.4016497135162354	76970.89934931324
2.4044265747070312	94091.03120028375
2.407200336456299	106229.03466117948
2.409970998764038	112780.34286928148
2.4127390384674072	120038.99412578726
2.415503978729248	119062.39456929134
2.418266534805298	110045.91144830601
2.4210267066955566	99194.68874906829
2.4237842559814453	85214.85249145112
2.426539897918701	81015.41788061979
2.429293394088745	95496.93994442026
2.4320452213287354	106383.02261851457
2.4347951412200928	105179.15146613009
2.4375438690185547	120646.37543286389
2.440291166305542	149755.9395692587
2.443037271499634	161247.29469692757
2.445782423019409	162419.455612534
2.4485268592834473	168977.4371467105
2.451270818710327	179884.11917073262
2.454014539718628	194035.2574507978
2.4567582607269287	213699.07442918862
2.4595019817352295	234756.34768603943
2.4622461795806885	260431.6342411465
2.4649908542633057	289898.9299525467
2.4677364826202393	284778.00893767393
2.4704833030700684	260708.55165926114
2.473231554031372	255200.48578767144
2.4759814739227295	272460.2240998469
2.4787333011627197	291701.1112171349
2.481487512588501	297161.7069699193
