#wavelength	surface flux
0.6450077295303345	78888.59833873909
0.6472567915916443	126410.94278667857
0.6494921445846558	170121.8697579146
0.6517150402069092	202528.618155683
0.6539263725280762	237789.89773335998
0.6561272740364075	276829.8831445813
0.6583186388015747	319628.55969463143
0.6605015397071838	365464.22227578587
0.6626768708229065	412042.4949698735
0.6648455858230591	451836.9185774487
0.6670085787773132	453475.08788232075
0.6691668033599854	379152.8281500507
0.6713210344314575	346975.56149061274
0.6734722256660461	492455.68571916665
0.6756211519241333	685371.7772641621
0.6777685880661011	804759.8219496058
0.6799154281616211	886206.8213418735
0.6820623278617859	956196.8132755759
0.6842101216316223	1018144.8788153335
0.6863595843315125	1070122.0329522353
0.688511312007904	1107846.1282773903
0.6906660795211792	1121743.82121727
0.6928245425224304	1119805.834427629
0.6949873566627502	1132398.5810293683
0.6971551775932312	1154427.9003740128
0.6993286609649658	1153543.306107941
0.7015084028244019	1131266.7680836124
0.7036949396133423	1098686.8548532217
0.7058889269828796	1054058.1842150304
0.7080909013748169	1002708.9925213433
0.710301399230957	949377.6542445491
0.712520956993103	891372.7249654521
0.7147500514984131	823180.0928411086
0.7169892191886902	748702.2815772545
0.7192389369010925	685308.1577235255
0.7214996814727783	630077.5282840997
0.723771870136261	569356.4481231977
0.7260559797286987	507153.72619896324
0.7283523678779602	450126.4820389029
0.7306615710258484	397227.1727747307
0.7329838871955872	348135.67189587554
0.7353196740150452	302550.9946970527
0.7376693487167358	258492.9490873258
0.7400332689285278	217205.05442983852
0.7424117922782898	179688.58454047763
0.7448052167892456	146161.3610116174
0.7472138404846191	116366.01534283624
0.7496379613876343	89985.37775797166
0.7520779371261597	67163.9906109265
0.7545340061187744	48020.75869366634
0.7570064663887024	32499.83599532429
0.7594954967498779	20438.62328129289
0.7620013952255249	11499.305356603456
0.7645244002342224	5374.088786923615
0.7670646905899048	2312.8042871535663
0.7696225643157959	2586.5789773148513
0.7721980810165405	6864.834237567945
0.7747915983200073	15634.74624306798
0.7774031162261963	26979.144239157707
0.7800329327583313	43267.23182047843
0.7826811671257019	73035.41419073104
0.7853479981422424	114712.96914975203
0.7880334854125977	163007.48315097188
0.7907378077507019	208342.4437047307
0.7934610247612	239353.5541639256
0.7962033748626709	311980.452623712
0.7989648580551147	453211.8041017023
0.801745593547821	602618.5391509448
0.8045456409454346	747472.4842086473
0.8073651194572449	903896.4974862657
0.8102040886878967	1070859.576843305
0.8130625486373901	1258946.958601759
0.8159406185150146	1476398.5228523843
0.8188382983207703	1725292.817852114
0.8217556476593018	2037394.7679916937
0.8246926665306091	2419031.406969761
0.8276493549346924	2829786.1344259805
0.8306257724761963	3258967.952841123
0.8336219191551208	3728037.6527656293
0.8366377949714661	4245517.513705843
0.8396733403205872	4814355.352847823
0.8427285552024841	5429753.546316152
0.8458034992218018	6025532.402150906
0.8488980531692505	6235823.1879871655
0.8520121574401855	6314129.7947762655
0.8551458716392517	7462767.9643549
0.8582990765571594	8734256.746697003
0.8614717125892639	8387678.178306431
0.8646637797355652	7764141.191473119
0.8678751587867737	8186305.580974085
0.8711057901382446	8827699.017424678
0.8743556141853333	9554828.640461586
0.87762451171875	10569059.198211672
0.8809124231338501	11525738.986655412
0.8842192888259888	12534019.498741705
0.8875449895858765	13404914.1216552
0.8908893465995789	13187077.886481304
0.894252359867096	12735574.03686185
0.8976338505744934	15013938.355432834
0.9010337591171265	19244292.454221733
0.9044519662857056	22885309.20002105
0.9078882932662964	25625329.52075986
0.9113426208496094	27694921.465304084
0.914814829826355	29463281.058282174
0.9183048605918884	31234958.878970858
0.9218124747276306	31756179.944928426
0.925337553024292	27961164.732619137
0.9288799166679382	21649210.46529107
0.9324395060539246	19212531.37832744
0.9360161423683167	21428766.681869894
0.9396095871925354	25004571.523580052
0.943219780921936	27707351.097319808
0.9468464851379395	28904017.287361767
0.9504896402359009	29478426.691043463
0.9541489481925964	29525130.681562223
0.9578243494033813	28987720.95334862
0.9615156054496765	29283387.30312921
0.9652225375175476	31473856.10815686
0.9689450263977051	34458894.13600131
0.9726828336715698	36746181.70005671
0.9764357805252075	38999923.05144293
0.9802037477493286	41714410.08432613
0.983986496925354	44449540.28429889
0.9877838492393494	46490000.79589869
0.9915955662727356	46373165.36951987
0.9954215884208679	43933934.56387837
0.9992615580558777	38351000.331514835
1.0031154155731201	34165875.34615259
1.0069829225540161	35726001.384572685
1.0108637809753418	40375936.876700036
1.0147579908370972	46632534.86377095
1.018665075302124	53736269.6810061
1.022585153579712	59842300.25023188
1.0265177488327026	64177939.96900893
1.0304628610610962	69489237.15650915
1.0344202518463135	77046436.02013841
1.0383895635604858	84205091.63394028
1.0423706769943237	88926169.87046798
1.0463634729385376	90996297.04298726
1.0503677129745483	90853361.0554339
1.0543830394744873	90708585.03637025
1.058409333229065	92555754.07628769
1.0624464750289917	96728565.87067017
1.0664942264556885	102414747.79717618
1.0705522298812866	108726695.0471626
1.0746204853057861	115903791.26361662
1.0786986351013184	122695572.80699022
1.0827864408493042	126185102.2561063
1.086883783340454	120456251.92925574
1.0909905433654785	102466178.54796813
1.0951062440872192	80728912.18231954
1.0992310047149658	64349929.630127795
1.10336434841156	52069303.69954655
1.1075061559677124	41466058.52128773
1.1116561889648438	33653163.346688785
1.115814208984375	29861675.68589033
1.1199802160263062	29589212.053624675
1.124153733253479	32013204.71406577
1.1283347606658936	33285025.7407319
1.1325229406356812	28562256.904273897
1.1367181539535522	24951116.22333199
1.1409201622009277	27919300.431502525
1.145128846168518	32965254.8127762
1.1493438482284546	36129169.58618862
1.1535650491714478	35883129.99993247
1.1577922105789185	35107444.84719743
1.1620250940322876	34409513.03750802
1.1662636995315552	32157900.67707542
1.170507550239563	30994011.027640425
1.174756646156311	30888630.304599084
1.1790107488632202	32887636.382522743
1.1832695007324219	40472667.087076336
1.1875330209732056	50099180.4153361
1.191800832748413	59122866.17980958
1.1960728168487549	67848516.84082088
1.2003488540649414	75789944.73493491
1.2046287059783936	84613779.90930794
1.2089121341705322	93510404.11486803
1.2131990194320679	101812058.09877741
1.2174891233444214	110493345.55513266
1.2217823266983032	118986197.91897866
1.2260783910751343	128358228.46957453
1.230377197265625	137418570.36054698
1.2346785068511963	143033083.60477048
1.238982081413269	140012458.34532765
1.2432878017425537	131843542.76172651
1.2475954294204712	127846967.60075976
1.2519049644470215	125108008.76738098
1.256216049194336	138009630.12634856
1.2605286836624146	160131012.79031214
1.2648425102233887	167434508.0930425
1.2691574096679688	167637691.48888126
1.2734732627868652	166657480.7562325
1.2777899503707886	165469401.4548178
1.2821072340011597	161957414.55716226
1.2864248752593994	153332029.73150694
1.2907428741455078	146526537.2432541
1.2950609922409058	145104959.87757924
1.2993791103363037	142944375.34423536
1.303696870803833	138222126.18841752
1.3080145120620728	131401815.5734238
1.3123314380645752	121719160.88091901
1.3166478872299194	112106506.03412835
1.3209635019302368	102595103.87850331
1.3252781629562378	86530781.57839571
1.3295916318893433	59076957.05009176
1.3339040279388428	30136901.14329723
1.3382149934768677	13871327.640115077
1.3425244092941284	8634802.134979948
1.3468321561813354	6573827.42832554
1.3511382341384888	5195462.708309076
1.3554422855377197	4352428.151286701
1.3597444295883179	4326419.586644463
1.3640443086624146	5078288.897664495
1.3683418035507202	5602395.910165912
1.3726370334625244	5800521.004888231
1.3769296407699585	6424368.048711905
1.381219506263733	6686026.395621907
1.3855066299438477	6489753.600585291
1.3897908926010132	6420874.577998637
1.3940720558166504	6150991.307131891
1.3983501195907593	5880447.389624676
1.4026249647140503	5893244.133415169
1.4068963527679443	5642571.983605415
1.4111642837524414	5319682.717552553
1.4154287576675415	5418989.067499249
1.419689416885376	5376201.1589992205
1.4239463806152344	5250123.63470812
1.4281994104385376	5678484.264075932
1.4324485063552856	6372306.386394973
1.436693549156189	6894783.474768988
1.440934419631958	7301445.974972495
1.4451709985733032	7914736.722249099
1.449403166770935	9437060.949911982
1.453631043434143	11393990.815584995
1.4578542709350586	12670179.090658111
1.4620729684829712	13069567.383714272
1.4662868976593018	13038072.549328817
1.4704961776733398	13100648.81619688
1.4747005701065063	13806392.560201762
1.4788999557495117	14913305.100701457
1.4830944538116455	15712583.294621032
1.4872838258743286	16573745.408868171
1.491468071937561	17567241.58224356
1.4956470727920532	18554885.889113262
1.4998208284378052	19765678.99465113
1.5039892196655273	21236258.897951677
1.5081522464752197	23281788.122176252
1.5123097896575928	25754593.524115305
1.5164618492126465	27434467.249212697
1.5206083059310913	28764159.474934734
1.5247491598129272	30454197.65545502
1.5288842916488647	32318257.08841088
1.5330137014389038	34623552.898387805
1.5371372699737549	36606695.33698312
1.541254997253418	38293618.50038212
1.545366883277893	40914062.99196278
1.5494728088378906	43274364.98868707
1.5535727739334106	43948902.06808923
1.5576666593551636	44728678.37706167
1.561754584312439	48426620.5169001
1.5658363103866577	53834763.97948384
1.5699119567871094	57258846.18819397
1.5739814043045044	58906980.725536786
1.5780447721481323	60371065.41073688
1.582101821899414	62094211.21754048
1.5861525535583496	63781933.385433376
1.5901970863342285	64315642.66641244
1.5942351818084717	64321147.788996205
1.5982669591903687	63955727.250693
1.6022924184799194	61753409.950050585
1.606311559677124	58755437.32786816
1.6103241443634033	56719284.10785394
1.6143304109573364	54415959.01476235
1.6183301210403442	51992540.59706841
1.6223233938217163	52260497.58369319
1.6263102293014526	54520866.60276083
1.6302905082702637	56695434.579432175
1.634264349937439	60121062.1622967
1.638231635093689	64957562.597833954
1.6421923637390137	66665083.00290651
1.646146535873413	64300737.73825704
1.6500942707061768	63624110.58216833
1.6540353298187256	61945254.58974983
1.6579699516296387	58841024.404483095
1.661897897720337	56259974.723015144
1.6658192873001099	40966125.52043128
1.6697341203689575	26629568.84597068
1.6736423969268799	34306181.212103285
1.677544116973877	45900205.34760892
1.6814392805099487	47278291.82505941
1.6853278875350952	43826516.61486898
1.6892099380493164	39349473.19946355
1.6930854320526123	34561446.39230206
1.696954369544983	30283687.79741216
1.7008168697357178	27963406.66140994
1.7046726942062378	28076313.512650423
1.708522081375122	29837582.87524228
1.712364912033081	30714165.39313797
1.7162011861801147	30482870.861531764
1.7200311422348022	30561800.214056816
1.723854422569275	29348557.905032575
1.7276713848114014	27120868.816960424
1.731481909751892	25177801.567151193
1.7352858781814575	24083218.106413413
1.7390835285186768	24419448.63559941
1.7428747415542603	25071527.491466865
1.7466596364974976	24849437.14819256
1.7504380941390991	23880648.505185273
1.7542102336883545	22109637.498350732
1.7579760551452637	20346100.840260442
1.7617355585098267	19403859.153046414
1.7654887437820435	18159819.876724336
1.7692357301712036	16307365.292636406
1.7729763984680176	14912290.460369317
1.776710867881775	14514730.580673719
1.7804391384124756	14525214.28716403
1.7841613292694092	13595670.932932127
1.7878772020339966	12406090.982884396
1.7915871143341064	11253318.644729344
1.7952908277511597	10703853.567425149
1.7989884614944458	10853282.90383531
1.8026801347732544	10025611.980614778
1.806365728378296	9493870.69271314
1.8100452423095703	9940292.117356744
1.8137187957763672	10585333.232447132
1.817386507987976	10101359.976573063
1.8210482597351074	9629877.416762535
1.8247040510177612	10612584.605140455
1.828354001045227	10646557.990229622
1.8319982290267944	9679714.011859078
1.8356364965438843	8999229.2859468
1.8392690420150757	8887073.851722667
1.8428958654403687	9118160.664452532
1.8465168476104736	8781963.329978814
1.8501322269439697	8515429.388320012
1.8537418842315674	8302667.991329449
1.8573459386825562	7163908.451883284
1.860944390296936	6173475.327582831
1.864537239074707	6109580.872088883
1.8681244850158691	6397072.960600538
1.871706247329712	7000416.151623818
1.8752825260162354	8120113.168952632
1.8788533210754395	9795893.78362747
1.8824186325073242	11449484.27277824
1.8859784603118896	12189118.154773334
1.8895330429077148	12246595.285733111
1.8930821418762207	12825367.833468843
1.8966259956359863	13654010.586004483
1.9001644849777222	13458665.03013535
1.9036977291107178	12992984.349750867
1.9072256088256836	13538434.442883618
1.9107483625411987	13729985.04991146
1.9142658710479736	13353464.138486737
1.9177782535552979	13534581.689523384
1.9212853908538818	13161505.547542237
1.9247875213623047	12380688.950918354
1.9282845258712769	11643405.956918897
1.9317764043807983	10695965.331750594
1.9352631568908691	9730501.589675114
1.9387450218200684	8700779.461086715
1.942221760749817	8854226.453156846
1.9456936120986938	9902807.845996233
1.9491604566574097	10514237.00689325
1.952622413635254	10439217.310557015
1.956079363822937	9918143.279865824
1.959531545639038	10062063.345510494
1.962978720664978	10567334.351609137
1.966421127319336	11246373.02949568
1.9698586463928223	11988360.106230177
1.9732913970947266	11929338.800578073
1.9767193794250488	11930191.689952597
1.9801424741744995	12221506.327070028
1.9835609197616577	12687001.10571883
1.9869745969772339	13280338.176053878
1.990383505821228	13541472.808196057
1.9937876462936401	14570184.800322551
1.9971871376037598	15444602.046110988
2.000581979751587	15908322.65255953
2.003972291946411	16643900.833921004
2.007357597351074	16669442.80529486
2.0107386112213135	17204928.975600142
2.0141148567199707	18401885.04143488
2.017486572265625	18800338.640800994
2.0208535194396973	20183811.16356369
2.0242159366607666	21991253.667619735
2.027573823928833	21768811.2935579
2.0309269428253174	21907853.739398308
2.034275770187378	23645187.9987303
2.0376198291778564	24722609.37665706
2.040959596633911	24818923.136644192
2.044294595718384	25764365.071046468
2.0476250648498535	27449128.436283994
2.0509510040283203	27778407.135787457
2.054272413253784	27819181.125368487
2.057589530944824	29669707.675173957
2.0609018802642822	30584265.9655953
2.0642096996307373	30371834.962082103
2.0675129890441895	31234103.504193723
2.0708119869232178	31713324.866185203
2.074106216430664	31587590.642161872
2.0773961544036865	31745227.858652133
2.080681324005127	32058597.472537994
2.0839622020721436	32231569.541773435
2.087238311767578	32478086.67936354
2.090510129928589	32990247.329743464
2.0937774181365967	33170228.07620082
2.0970399379730225	32995702.74402084
2.1002981662750244	32601099.841637205
2.1035518646240234	32118168.906275503
2.1068007946014404	31576881.598001163
2.1100454330444336	31086768.183989715
2.1132853031158447	31176295.717856254
2.116520881652832	30784712.308505632
2.1197516918182373	30151057.658888195
2.1229779720306396	30281251.027485542
2.12619948387146	30155546.54342045
2.1294167041778564	29504143.544920024
2.132629156112671	29264690.694584996
2.1358368396759033	28930644.116749536
2.139039993286133	27444609.20125422
2.1422386169433594	25275251.108498536
2.145432472229004	23544540.00233336
2.1486217975616455	22969074.26103731
2.151806354522705	22875445.32722619
2.1549863815307617	22579533.088390846
2.1581614017486572	21943298.930351183
2.16133189201355	20986466.426099714
2.1644976139068604	20043836.352814026
2.167658567428589	19042375.899649985
2.1708147525787354	18280263.21546303
2.173966407775879	17489500.986544274
2.1771130561828613	16311143.756160904
2.1802549362182617	15317753.13189922
2.183391809463501	14204048.273971712
2.1865241527557373	12769264.870752728
2.1896514892578125	11253803.563244123
2.1927738189697266	9546494.769787036
2.1958916187286377	7383324.4659085395
2.1990041732788086	5087443.452117162
2.2021119594573975	3513983.152062544
2.2052149772644043	2807877.7199160173
2.208312749862671	2872967.163711932
2.2114057540893555	3649890.9217298888
2.214493751525879	4740232.654320513
2.217576742172241	5569937.452387913
2.2206547260284424	5888942.207797411
2.2237277030944824	5793639.820071316
2.2267956733703613	5392483.954160102
2.2298583984375	4964285.636413141
2.2329163551330566	4684596.618879765
2.235969066619873	4446006.872197457
2.2390167713165283	4132199.809597795
2.2420592308044434	3745693.9011547808
2.2450966835021973	3383409.8427464566
2.248128890991211	3183679.9703845107
2.2511560916900635	3093018.2812901405
2.254178285598755	3032268.0493524224
2.257194995880127	3005954.6711409693
2.260206699371338	2985077.4573090207
2.2632133960723877	3001397.064713199
2.266214609146118	2968584.67108843
2.2692108154296875	2890182.84384533
2.2722020149230957	2856445.9466269077
2.2751877307891846	2813606.8601800743
2.278168201446533	2699306.0651242165
2.2811436653137207	2468516.572165404
2.284113883972168	2176992.8864504155
2.287078857421875	1946522.4670326272
2.290038824081421	1746754.8676810982
2.2929933071136475	1601210.1477128507
2.295942783355713	1641771.7998401264
2.298887014389038	1886572.3139396098
2.301826238632202	2182216.2490349226
2.304760217666626	2592540.6295414767
2.3076889514923096	3398363.572294047
2.310612440109253	4293813.85810459
2.3135311603546143	4411434.490813887
2.3164443969726562	3255790.921919717
2.319352865219116	1951429.4510078419
2.322256088256836	1487645.658123922
2.3251543045043945	1340733.7255889867
2.328047275543213	1287368.0830582185
2.330935478210449	1404601.1343599863
2.3338186740875244	1558586.3104902543
2.3366971015930176	1696990.138714626
2.3395702838897705	1813690.0249045268
2.3424389362335205	1842444.4919114402
2.3453025817871094	1772496.386547436
2.348161458969116	1751222.2500912305
2.351015567779541	1865625.9298794046
2.353865146636963	2053485.447965925
2.3567099571228027	2256351.8192197364
2.3595502376556396	2480105.4856660413
2.3623859882354736	2739800.0167706427
2.3652172088623047	3008835.9640469565
2.368043899536133	2925300.281632161
2.370866537094116	2213336.19548792
2.3736846446990967	1711065.644014554
2.3764986991882324	1722277.2872052547
2.3793084621429443	1633495.1691795895
2.3821144104003906	1489825.4331216563
2.384916305541992	1683313.0766510437
2.387714147567749	2175919.3022964178
2.3905084133148193	2432178.0871030316
2.393299102783203	2449038.4218464154
2.3960859775543213	2621786.8957433626
2.398869514465332	2911527.8017022214
2.4016497135162354	3193044.4780764654
2.4044265747070312	3532997.0316423457
2.407200336456299	3725529.34607434
2.409970998764038	3788618.8520668508
2.4127390384674072	3967408.3699636566
2.415503978729248	4010310.0461220224
2.418266534805298	3918784.03370534
2.4210267066955566	3835416.505359086
2.4237842559814453	3546276.87256665
2.426539897918701	3340521.8444229364
2.429293394088745	3580496.5245459047
2.4320452213287354	3873904.22967313
2.4347951412200928	3813391.520572236
2.4375438690185547	3962467.4691697173
2.440291166305542	4384281.332185542
2.443037271499634	4412423.26654556
2.445782423019409	4280443.929490644
2.4485268592834473	4283162.733409314
2.451270818710327	4292075.749528376
2.454014539718628	4408332.253321571
2.4567582607269287	4843551.819790106
2.4595019817352295	5111628.043963597
2.4622461795806885	5367214.295584836
2.4649908542633057	5730424.276509687
2.4677364826202393	5360510.508463361
2.4704833030700684	4818759.629817423
2.473231554031372	4711209.012439931
2.4759814739227295	4969472.771014181
2.4787333011627197	5232827.845463649
