#wavelength	surface flux
0.6450077295303345	3951.6492382472165
0.6472567915916443	6404.492193531735
0.6494921445846558	8796.5643048514
0.6517150402069092	10711.097048216983
0.6539263725280762	12846.978902256893
0.6561272740364075	15254.362835713024
0.6583186388015747	17958.778424362474
0.6605015397071838	20985.344829511065
0.6626768708229065	24301.837560855867
0.6648455858230591	27820.26596062982
0.6670085787773132	30516.809469882293
0.6691668033599854	30058.995065784802
0.6713210344314575	30952.56018084514
0.6734722256660461	39078.58592624642
0.6756211519241333	48165.50596544528
0.6777685880661011	53771.77250227771
0.6799154281616211	58344.90455399736
0.6820623278617859	62536.21630883673
0.6842101216316223	66302.1650246076
0.6863595843315125	69502.74475150766
0.688511312007904	71806.1237481352
0.6906660795211792	72417.04639768561
0.6928245425224304	71817.30180916814
0.6949873566627502	72211.39151877043
0.6971551775932312	73106.4569153635
0.6993286609649658	72216.15956406842
0.7015084028244019	69767.47612627444
0.7036949396133423	66927.27154636556
0.7058889269828796	63867.71929767154
0.7080909013748169	60384.00815035439
0.710301399230957	56422.020591859364
0.712520956993103	51990.34115937344
0.7147500514984131	46584.33604860226
0.7169892191886902	40384.79780424885
0.7192389369010925	35402.50228063236
0.7214996814727783	31764.705082591896
0.723771870136261	27915.21357486776
0.7260559797286987	24061.619297269033
0.7283523678779602	20833.36370384233
0.7306615710258484	18094.787376005257
0.7329838871955872	15799.412105394129
0.7353196740150452	13797.247593087828
0.7376693487167358	11829.406234939648
0.7400332689285278	10027.960658958635
0.7424117922782898	8472.281610562653
0.7448052167892456	7147.343243814586
0.7472138404846191	6013.594630696241
0.7496379613876343	5035.428108497485
0.7520779371261597	4204.864599200072
0.7545340061187744	3502.4746039907304
0.7570064663887024	2886.68028895476
0.7594954967498779	2285.264153154623
0.7620013952255249	1625.4423471134799
0.7645244002342224	948.141452283021
0.7670646905899048	513.9541997643822
0.7696225643157959	567.8115166447651
0.7721980810165405	1195.5865893000146
0.7747915983200073	2227.2593360588653
0.7774031162261963	3212.9063067564302
0.7800329327583313	4194.382633809597
0.7826811671257019	5788.960876739037
0.7853479981422424	7942.176331971956
0.7880334854125977	10374.847449920004
0.7907378077507019	12707.642861689148
0.7934610247612	14437.191796021603
0.7962033748626709	18550.64878073191
0.7989648580551147	26614.954482112884
0.801745593547821	35654.707062961286
0.8045456409454346	45118.19111427839
0.8073651194572449	55638.51160749388
0.8102040886878967	66638.7803476973
0.8130625486373901	79318.23698405168
0.8159406185150146	97213.34480088502
0.8188382983207703	120537.69327307315
0.8217556476593018	145530.14692418158
0.8246926665306091	175252.00982956693
0.8276493549346924	211458.52681749102
0.8306257724761963	250261.06134917124
0.8336219191551208	293447.8799332812
0.8366377949714661	343348.49933352164
0.8396733403205872	401144.18712708645
0.8427285552024841	468740.20636379387
0.8458034992218018	541821.4171429276
0.8488980531692505	585915.5162378605
0.8520121574401855	619965.9226261546
0.8551458716392517	749518.7458740819
0.8582990765571594	917941.980437606
0.8614717125892639	1020551.3696490478
0.8646637797355652	1116317.112346709
0.8678751587867737	1253266.5998349555
0.8711057901382446	1408339.8214403219
0.8743556141853333	1561331.3631726117
0.87762451171875	1674916.0390015764
0.8809124231338501	1666203.6410110632
0.8842192888259888	1576695.8014344815
0.8875449895858765	1517065.9981519694
0.8908893465995789	1416937.7300310323
0.894252359867096	1334319.7250372884
0.8976338505744934	1646893.164584054
0.9010337591171265	2350646.2011389527
0.9044519662857056	3064799.3662436926
0.9078882932662964	3513566.0379830217
0.9113426208496094	3675900.112923316
0.914814829826355	3734311.4520977
0.9183048605918884	3928432.414863307
0.9218124747276306	4093916.0981018916
0.925337553024292	3407094.3627429865
0.9288799166679382	2077261.0113470522
0.9324395060539246	1421424.2894725837
0.9360161423683167	1688071.3676249112
0.9396095871925354	2255297.168221083
0.943219780921936	2589318.1771559436
0.9468464851379395	2605981.9007110214
0.9504896402359009	2583869.782644657
0.9541489481925964	2538952.5245606382
0.9578243494033813	2440269.695123504
0.9615156054496765	2542365.5073296814
0.9652225375175476	3048200.986065273
0.9689450263977051	3716769.6835781042
0.9726828336715698	4162123.409363853
0.9764357805252075	4508726.909610148
0.9802037477493286	4896172.079417744
0.983986496925354	5223663.59805197
0.9877838492393494	5700662.414286801
0.9915955662727356	6460923.202619192
0.9954215884208679	7239234.559177863
0.9992615580558777	7894533.038501957
1.0031154155731201	8858936.569088744
1.0069829225540161	10189125.368563382
1.0108637809753418	11563989.232797537
1.0147579908370972	13022479.250153195
1.018665075302124	14513007.800025053
1.022585153579712	15940017.547838345
1.0265177488327026	17376038.06451533
1.0304628610610962	18889096.47082667
1.0344202518463135	20540899.708638255
1.0383895635604858	22308915.77334707
1.0423706769943237	23923028.312811956
1.0463634729385376	25208815.968715873
1.0503677129745483	26314423.368512142
1.0543830394744873	27453552.66142802
1.058409333229065	28481995.173931945
1.0624464750289917	29372594.279669296
1.0664942264556885	30062102.732058734
1.0705522298812866	30509430.730330944
1.0746204853057861	31153840.082643557
1.0786986351013184	31687738.23321682
1.0827864408493042	31077318.908082426
1.086883783340454	27497968.841601085
1.0909905433654785	20503537.690178517
1.0951062440872192	13346271.40105014
1.0992310047149658	8674370.769108215
1.10336434841156	5819101.447970558
1.1075061559677124	3859023.7025910732
1.1116561889648438	2580846.2070382503
1.115814208984375	1919425.8207019847
1.1199802160263062	1793810.281271872
1.124153733253479	1962033.7062342698
1.1283347606658936	2079181.1296918301
1.1325229406356812	1797335.3150634172
1.1367181539535522	1841270.2371515043
1.1409201622009277	2413233.6382772923
1.145128846168518	2639827.747247933
1.1493438482284546	2452823.6319093904
1.1535650491714478	2101363.68579352
1.1577922105789185	1867719.5236453721
1.1620250940322876	1815949.7207843498
1.1662636995315552	1919706.5390127918
1.170507550239563	2454004.599200186
1.174756646156311	3252212.956070485
1.1790107488632202	4331340.733068248
1.1832695007324219	5834381.28025302
1.1875330209732056	7388404.571207117
1.191800832748413	9301488.37202552
1.1960728168487549	11746286.937713476
1.2003488540649414	14163820.341384737
1.2046287059783936	16686587.73824988
1.2089121341705322	19053154.788391918
1.2131990194320679	21145143.93330062
1.2174891233444214	23456624.45890065
1.2217823266983032	25863249.259975147
1.2260783910751343	28554404.09095275
1.230377197265625	31468810.136274386
1.2346785068511963	33968784.433465384
1.238982081413269	35128968.988961175
1.2432878017425537	35339242.31386902
1.2475954294204712	35633645.36227851
1.2519049644470215	35549896.06592597
1.256216049194336	38810934.44257793
1.2605286836624146	43795081.89109103
1.2648425102233887	44536674.84100622
1.2691574096679688	42657857.02846942
1.2734732627868652	40267322.001975946
1.2777899503707886	37840518.87830378
1.2821072340011597	34691366.57661593
1.2864248752593994	30515336.85714285
1.2907428741455078	27334083.614842925
1.2950609922409058	26058390.93374519
1.2993791103363037	24924449.57481532
1.303696870803833	23200959.308286898
1.3080145120620728	21299380.82661864
1.3123314380645752	18680428.996825248
1.3166478872299194	16363955.915673621
1.3209635019302368	14913636.125091288
1.3252781629562378	12164958.564439699
1.3295916318893433	7444958.599381286
1.3339040279388428	3123172.507883133
1.3382149934768677	1052529.297949371
1.3425244092941284	457467.8919167407
1.3468321561813354	245754.5127830325
1.3511382341384888	148249.16132671482
1.3554422855377197	95214.39207462379
1.3597444295883179	83015.9415792579
1.3640443086624146	110905.2986196835
1.3683418035507202	137852.80520213358
1.3726370334625244	170673.18192294813
1.3769296407699585	225660.89353066203
1.381219506263733	225564.16320203166
1.3855066299438477	188088.2578657304
1.3897908926010132	182339.34225608944
1.3940720558166504	180979.75706804002
1.3983501195907593	176175.82491467707
1.4026249647140503	183072.83986098773
1.4068963527679443	183966.92685020145
1.4111642837524414	186543.45821587244
1.4154287576675415	201971.5053168575
1.419689416885376	203368.0456288934
1.4239463806152344	218912.45375821032
1.4281994104385376	296829.90521182027
1.4324485063552856	373189.365958291
1.436693549156189	404844.59429148515
1.440934419631958	452773.15424202057
1.4451709985733032	560980.7973613967
1.449403166770935	780624.0600006393
1.453631043434143	1031791.5853116665
1.4578542709350586	1186785.9523144744
1.4620729684829712	1216817.781311839
1.4662868976593018	1145068.4867133813
1.4704961776733398	1030933.1193386139
1.4747005701065063	1022643.7340613039
1.4788999557495117	1151841.5295807705
1.4830944538116455	1260521.344946514
1.4872838258743286	1342204.9819394427
1.491468071937561	1453093.5056913234
1.4956470727920532	1645165.5483037531
1.4998208284378052	1926542.8427183758
1.5039892196655273	2129375.693430993
1.5081522464752197	2231526.5904718386
1.5123097896575928	2339443.2496791687
1.5164618492126465	2566503.5037572603
1.5206083059310913	3083576.0850081206
1.5247491598129272	3722614.367250296
1.5288842916488647	4312881.1926099295
1.5330137014389038	4917077.530576591
1.5371372699737549	5430258.348738006
1.541254997253418	5894877.591502193
1.545366883277893	6576484.580980396
1.5494728088378906	7249144.212372481
1.5535727739334106	7715756.740493451
1.5576666593551636	8518347.724870063
1.561754584312439	10101563.72039133
1.5658363103866577	11885728.75110222
1.5699119567871094	12814030.086894702
1.5739814043045044	13107131.4474496
1.5780447721481323	13643546.04222794
1.582101821899414	14192297.53948121
1.5861525535583496	14181880.62926448
1.5901970863342285	13561073.413823655
1.5942351818084717	12693981.438675178
1.5982669591903687	11689782.68521938
1.6022924184799194	10273506.741233733
1.606311559677124	8743409.111717355
1.6103241443634033	7478655.377071398
1.6143304109573364	6129154.540780055
1.6183301210403442	4882264.648005257
1.6223233938217163	4426264.607897646
1.6263102293014526	4555954.8625391675
1.6302905082702637	4856654.2603442045
1.634264349937439	5536691.772793256
1.638231635093689	6588124.114122426
1.6421923637390137	6906403.082958936
1.646146535873413	6028991.401025335
1.6500942707061768	5739128.339088311
1.6540353298187256	5769594.457039919
1.6579699516296387	5306895.904254942
1.661897897720337	5134686.932347755
1.6658192873001099	3473449.7085903506
1.6697341203689575	1474104.4866658156
1.6736423969268799	1765331.8035630146
1.677544116973877	2583282.2292418033
1.6814392805099487	2548455.6520026242
1.6853278875350952	2233309.0173094533
1.6892099380493164	1892060.2643996591
1.6930854320526123	1477671.588137434
1.696954369544983	1143978.2090095931
1.7008168697357178	962325.8669295898
1.7046726942062378	1021300.3560895753
1.708522081375122	1375955.4533413353
1.712364912033081	1752035.4508652582
1.7162011861801147	2078556.5209617463
1.7200311422348022	2317426.767677509
1.723854422569275	2184353.874250113
1.7276713848114014	1974182.508135994
1.731481909751892	1892265.2602239943
1.7352858781814575	1888592.06703807
1.7390835285186768	2077359.6477432167
1.7428747415542603	2330891.912735775
1.7466596364974976	2482475.674177961
1.7504380941390991	2446871.7591458675
1.7542102336883545	2128832.7621080726
1.7579760551452637	1778331.8242686887
1.7617355585098267	1629823.0915750663
1.7654887437820435	1523239.129003389
1.7692357301712036	1343116.0176554823
1.7729763984680176	1172774.6110625048
1.776710867881775	1155120.9746717743
1.7804391384124756	1216680.6335171172
1.7841613292694092	1111673.1995616201
1.7878772020339966	945528.0477947068
1.7915871143341064	781682.7277768803
1.7952908277511597	702745.7360223964
1.7989884614944458	753874.3697158252
1.8026801347732544	654597.4980339413
1.806365728378296	561959.0396820022
1.8100452423095703	607908.9838309679
1.8137187957763672	646753.3206604936
1.817386507987976	597209.1483757347
1.8210482597351074	637465.8367549115
1.8247040510177612	774952.6727616132
1.828354001045227	662730.0934984067
1.8319982290267944	468465.082944149
1.8356364965438843	388318.12929196854
1.8392690420150757	391844.67200939445
1.8428958654403687	514277.4522298139
1.8465168476104736	565511.2332711802
1.8501322269439697	538345.9262475929
1.8537418842315674	528567.3464650915
1.8573459386825562	446276.56163090793
1.860944390296936	346896.25712072034
1.864537239074707	291730.63689718704
1.8681244850158691	251601.13280701498
1.871706247329712	272403.66508018057
1.8752825260162354	432023.5857778651
1.8788533210754395	722073.8870166533
1.8824186325073242	930136.8115746313
1.8859784603118896	935431.0800738021
1.8895330429077148	904763.2078583805
1.8930821418762207	1037688.5975604805
1.8966259956359863	1130995.3598065733
1.9001644849777222	912117.3667900189
1.9036977291107178	727335.9806559297
1.9072256088256836	777279.1933309616
1.9107483625411987	747060.8645211663
1.9142658710479736	647058.4694059849
1.9177782535552979	671912.7798416185
1.9212853908538818	658971.7230733561
1.9247875213623047	558070.3430194948
1.9282845258712769	459928.99163605337
1.9317764043807983	390612.8804028463
1.9352631568908691	352719.76818682125
1.9387450218200684	321765.50573073025
1.942221760749817	364004.0151493758
1.9456936120986938	430266.3312678796
1.9491604566574097	444338.6925365083
1.952622413635254	435359.05657915113
1.956079363822937	440963.18773917126
1.959531545639038	493220.5381810732
1.962978720664978	547937.5238745277
1.966421127319336	608221.9513104667
1.9698586463928223	646907.9279838833
1.9732913970947266	661145.148274595
1.9767193794250488	745017.1507858513
1.9801424741744995	803704.3807309006
1.9835609197616577	855185.2152334881
1.9869745969772339	964206.1798490314
1.990383505821228	1064187.3264110049
1.9937876462936401	1264330.0573253415
1.9971871376037598	1476844.906523235
2.000581979751587	1597437.2342295924
2.003972291946411	1646889.679579811
2.007357597351074	1650426.7097725961
2.0107386112213135	1744938.7552555974
2.0141148567199707	1794868.365818611
2.017486572265625	1716664.9275538372
2.0208535194396973	1897600.2691332202
2.0242159366607666	2255031.106219411
2.027573823928833	2355520.8046069476
2.0309269428253174	2469506.5705058696
2.034275770187378	2767446.4886609768
2.0376198291778564	2927838.2743884055
2.040959596633911	2958654.804920323
2.044294595718384	3246427.7005817993
2.0476250648498535	3677337.0884094774
2.0509510040283203	3778036.133246496
2.054272413253784	3833375.445079937
2.057589530944824	4196172.171322173
2.0609018802642822	4428521.679085665
2.0642096996307373	4505112.454336889
2.0675129890441895	4688243.052440209
2.0708119869232178	4834555.864197295
2.074106216430664	4922172.601668783
2.0773961544036865	4977099.3361216625
2.080681324005127	5048855.90777715
2.0839622020721436	5134115.856348656
2.087238311767578	5200990.65534624
2.090510129928589	5284540.5783997
2.0937774181365967	5275975.725418891
2.0970399379730225	5167453.671684089
2.1002981662750244	5002762.407148745
2.1035518646240234	4850964.868481583
2.1068007946014404	4722809.968548034
2.1100454330444336	4574418.528215194
2.1132853031158447	4503286.148099612
2.116520881652832	4356795.0955887465
2.1197516918182373	4161882.841947014
2.1229779720306396	4083497.901009579
2.12619948387146	3999871.097099847
2.1294167041778564	3880843.411263244
2.132629156112671	3807572.0625863527
2.1358368396759033	3707926.8341920148
2.139039993286133	3450176.217450186
2.1422386169433594	3009627.4610641995
2.145432472229004	2599925.3314597695
2.1486217975616455	2466977.608876999
2.151806354522705	2439562.988394341
2.1549863815307617	2333071.2529400964
2.1581614017486572	2167422.73418202
2.16133189201355	1957157.6448086484
2.1644976139068604	1781544.8317152052
2.167658567428589	1638710.5346674826
2.1708147525787354	1551859.3752175323
2.173966407775879	1507982.0770200235
2.1771130561828613	1417504.4158632706
2.1802549362182617	1321303.516961986
2.183391809463501	1204040.7569621538
2.1865241527557373	1068150.8706975437
2.1896514892578125	899822.3023727417
2.1927738189697266	663520.7080846191
2.1958916187286377	423911.12912086066
2.1990041732788086	236368.3072414785
2.2021119594573975	140260.1401247489
2.2052149772644043	137748.19603848207
2.208312749862671	186452.1592420068
2.2114057540893555	251050.9820065227
2.214493751525879	307697.2096182901
2.217576742172241	344284.2202395241
2.2206547260284424	347072.53793715284
2.2237277030944824	319673.06224753754
2.2267956733703613	280784.3609946894
2.2298583984375	242653.53850116188
2.2329163551330566	222933.25485470996
2.235969066619873	213363.39370837898
2.2390167713165283	186234.78806154247
2.2420592308044434	159361.01996968678
2.2450966835021973	142258.0912229276
2.248128890991211	124254.33285839834
2.2511560916900635	113030.66213840537
2.254178285598755	107687.87531438323
2.257194995880127	106565.9862152028
2.260206699371338	109944.66741878484
2.2632133960723877	114721.2677613147
2.266214609146118	119902.46679625768
2.2692108154296875	122615.3450679216
2.2722020149230957	123364.95516560234
2.2751877307891846	119842.24543066438
2.278168201446533	117858.96270279317
2.2811436653137207	113118.41916069307
2.284113883972168	95238.21550816085
2.287078857421875	81357.37832921755
2.290038824081421	74717.71409279693
2.2929933071136475	69123.4870520031
2.295942783355713	70983.4987803183
2.298887014389038	82613.2463154362
2.301826238632202	96963.32824073131
2.304760217666626	121950.67442684791
2.3076889514923096	184106.0287927486
2.310612440109253	274510.14090503077
2.3135311603546143	298075.9212853624
2.3164443969726562	189358.63828793657
2.319352865219116	75856.2805706684
2.322256088256836	52863.56215969919
2.3251543045043945	58147.50320030081
2.328047275543213	60567.98496938619
2.330935478210449	67913.58003417905
2.3338186740875244	77432.34387902173
2.3366971015930176	84996.1690011334
2.3395702838897705	90176.96336159675
2.3424389362335205	91126.84075096829
2.3453025817871094	83872.73663609274
2.348161458969116	80178.37690937935
2.351015567779541	88249.42826226862
2.353865146636963	99388.65462889402
2.3567099571228027	113229.94930083363
2.3595502376556396	137096.89239019583
2.3623859882354736	163754.89497653843
2.3652172088623047	174613.55465367524
2.368043899536133	150951.98576701467
2.370866537094116	96727.04290030457
2.3736846446990967	68875.5114985868
2.3764986991882324	80899.1740080281
2.3793084621429443	88708.80819362498
2.3821144104003906	85786.51736519863
2.384916305541992	101615.85598586872
2.387714147567749	137885.82936484303
2.3905084133148193	154560.26060477892
2.393299102783203	149360.14219093643
2.3960859775543213	153933.31314150163
2.398869514465332	179816.8242497278
2.4016497135162354	214832.81785945437
2.4044265747070312	243963.0878807424
2.407200336456299	255752.34301232197
2.409970998764038	280364.2879322009
2.4127390384674072	318458.46987914294
2.415503978729248	304740.69661596743
2.418266534805298	267453.32608644426
2.4210267066955566	255978.9956646548
2.4237842559814453	234524.30144805604
2.426539897918701	224530.63359195198
2.429293394088745	270851.16040513053
2.4320452213287354	314891.0035834244
2.4347951412200928	311778.52233925747
2.4375438690185547	344743.85484227183
2.440291166305542	413164.67892471905
2.443037271499634	422084.117929009
2.445782423019409	396224.3717621283
2.4485268592834473	391357.3378755358
2.451270818710327	400105.9106158263
2.454014539718628	426872.5197391404
2.4567582607269287	482708.1517268722
2.4595019817352295	522047.03310661536
2.4622461795806885	569482.8549881233
2.4649908542633057	631782.8941807224
2.4677364826202393	595815.0407477581
2.4704833030700684	519281.79895387753
2.473231554031372	495857.51870332134
2.4759814739227295	520618.5799638876
2.4787333011627197	548075.2412732608
