#wavelength	surface flux
0.6450077295303345	52920.409857847
0.6472567915916443	84952.99474982389
0.6494921445846558	114678.34875902641
0.6517150402069092	136970.67820801047
0.6539263725280762	161339.67864234658
0.6561272740364075	188433.39828225633
0.6583186388015747	218287.03957323107
0.6605015397071838	250537.6874132696
0.6626768708229065	283874.4528103336
0.6648455858230591	313876.0124360807
0.6670085787773132	319846.4324641961
0.6691668033599854	274234.56070249534
0.6713210344314575	255869.3176459015
0.6734722256660461	357253.2489773482
0.6756211519241333	488847.5147019131
0.6777685880661011	570115.3581175352
0.6799154281616211	627067.8913658127
0.6820623278617859	676421.0388212553
0.6842101216316223	720227.5992699285
0.6863595843315125	757259.7340049378
0.688511312007904	784210.6111593145
0.6906660795211792	794315.7597349823
0.6928245425224304	793251.7399499046
0.6949873566627502	802169.7731717866
0.6971551775932312	817268.7948789624
0.6993286609649658	816039.3111740618
0.7015084028244019	799576.4263586123
0.7036949396133423	776544.7850752627
0.7058889269828796	746754.0715473061
0.7080909013748169	712025.6661865163
0.710301399230957	674220.9376809627
0.712520956993103	632388.0519074913
0.7147500514984131	582573.4381310042
0.7169892191886902	527355.5166931074
0.7192389369010925	480868.89135123393
0.7214996814727783	441522.0234640295
0.723771870136261	398224.329949004
0.7260559797286987	353800.64406509185
0.7283523678779602	313554.5749504376
0.7306615710258484	276556.30467276316
0.7329838871955872	242360.42974410055
0.7353196740150452	210607.85870976283
0.7376693487167358	179682.51538300986
0.7400332689285278	150578.5139979538
0.7424117922782898	124138.90039496969
0.7448052167892456	100571.30028629686
0.7472138404846191	79707.34127057622
0.7496379613876343	61335.54422204222
0.7520779371261597	45580.41122824062
0.7545340061187744	32515.71307875974
0.7570064663887024	22058.152775131028
0.7594954967498779	14020.382595737678
0.7620013952255249	8067.769035419957
0.7645244002342224	3902.2777716588007
0.7670646905899048	1753.9542290451443
0.7696225643157959	1955.4205596845484
0.7721980810165405	4974.3942211246485
0.7747915983200073	11004.22004291671
0.7774031162261963	18692.585793235845
0.7800329327583313	29773.79132398103
0.7826811671257019	50216.132589765766
0.7853479981422424	79165.47109041581
0.7880334854125977	113207.2186201723
0.7907378077507019	145549.03272249515
0.7934610247612	168113.61658573514
0.7962033748626709	220871.7989984784
0.7989648580551147	323243.2434985861
0.801745593547821	432098.3830390053
0.8045456409454346	538140.597261837
0.8073651194572449	652434.6099048893
0.8102040886878967	773688.6553327693
0.8130625486373901	910545.2365369569
0.8159406185150146	1073420.6941518232
0.8188382983207703	1262860.7250676663
0.8217556476593018	1491275.5408462037
0.8246926665306091	1767386.178134721
0.8276493549346924	2070238.158714725
0.8306257724761963	2387628.556543915
0.8336219191551208	2734284.7110311533
0.8366377949714661	3118022.632716423
0.8396733403205872	3543257.613037405
0.8427285552024841	4014137.4290661826
0.8458034992218018	4484027.0829273965
0.8488980531692505	4668185.6145635955
0.8520121574401855	4750733.433528447
0.8551458716392517	5635284.0044219075
0.8582990765571594	6637682.337016455
0.8614717125892639	6491059.213340051
0.8646637797355652	6143532.059884947
0.8678751587867737	6530441.297741947
0.8711057901382446	7076410.09159204
0.8743556141853333	7677876.056110974
0.87762451171875	8449964.004292442
0.8809124231338501	9109354.878911218
0.8842192888259888	9773962.833993431
0.8875449895858765	10381740.301490959
0.8908893465995789	10169336.35403993
0.894252359867096	9778596.321495194
0.8976338505744934	11589253.877510658
0.9010337591171265	15035920.750325615
0.9044519662857056	18058988.211372007
0.9078882932662964	20260394.602635577
0.9113426208496094	21786960.802879445
0.914814829826355	23032921.16555354
0.9183048605918884	24448912.042768534
0.9218124747276306	25112393.43021709
0.925337553024292	22133138.37895618
0.9288799166679382	16791172.122650485
0.9324395060539246	14629039.486331783
0.9360161423683167	16413891.918159317
0.9396095871925354	19379896.128696453
0.943219780921936	21595146.342960555
0.9468464851379395	22522638.331796978
0.9504896402359009	22966822.58822401
0.9541489481925964	23013484.340186592
0.9578243494033813	22575235.502927516
0.9615156054496765	22861775.543763667
0.9652225375175476	24770562.15854719
0.9689450263977051	27332024.827613614
0.9726828336715698	29282874.77887407
0.9764357805252075	31173236.58921565
0.9802037477493286	33396140.64397347
0.983986496925354	35594297.12736554
0.9877838492393494	37445449.24326828
0.9915955662727356	37935447.21767292
0.9954215884208679	36433713.77977021
0.9992615580558777	32112263.801394407
1.0031154155731201	28999603.168466687
1.0069829225540161	30561740.85304201
1.0108637809753418	34591959.881715626
1.0147579908370972	40032046.885434166
1.018665075302124	46236971.92679254
1.022585153579712	51639562.13100312
1.0265177488327026	55668559.2629036
1.0304628610610962	60472474.213260844
1.0344202518463135	67018581.86191461
1.0383895635604858	73230432.15701717
1.0423706769943237	77508354.58230396
1.0463634729385376	79773343.09664612
1.0503677129745483	80346159.24216795
1.0543830394744873	80868880.68591304
1.058409333229065	82828059.67948493
1.0624464750289917	86469888.6436338
1.0664942264556885	91147852.01243728
1.0705522298812866	96164618.37146936
1.0746204853057861	101872232.58431229
1.0786986351013184	107207951.75973439
1.0827864408493042	109547800.47867644
1.086883783340454	103553711.25618409
1.0909905433654785	86583729.46840334
1.0951062440872192	66625151.86937279
1.0992310047149658	51993638.888099134
1.10336434841156	41407765.177122846
1.1075061559677124	32435983.602655053
1.1116561889648438	25774860.905211072
1.115814208984375	22446835.55054026
1.1199802160263062	22074399.343232978
1.124153733253479	23854634.0540793
1.1283347606658936	24804479.92579474
1.1325229406356812	21199007.120936997
1.1367181539535522	18681696.11643503
1.1409201622009277	21274787.65894788
1.145128846168518	25004512.203346584
1.1493438482284546	27008198.525483042
1.1535650491714478	26459415.48999843
1.1577922105789185	25692308.965889785
1.1620250940322876	25167065.042364128
1.1662636995315552	23746683.95084012
1.170507550239563	23497862.12062744
1.174756646156311	24110338.69004251
1.1790107488632202	26314447.025893155
1.1832695007324219	32750685.96468328
1.1875330209732056	40698960.90315046
1.191800832748413	48477755.71197513
1.1960728168487549	56318258.74930972
1.2003488540649414	63477815.53790938
1.2046287059783936	71309142.93984482
1.2089121341705322	79138142.78681758
1.2131990194320679	86382569.18923423
1.2174891233444214	93975271.02517189
1.2217823266983032	101440878.39342232
1.2260783910751343	109659870.88338995
1.230377197265625	117722290.83509535
1.2346785068511963	122976319.56646286
1.238982081413269	121007751.05256921
1.2432878017425537	114687901.25856559
1.2475954294204712	111604020.9990859
1.2519049644470215	109305499.87875283
1.256216049194336	120754974.31953116
1.2605286836624146	140158012.03662837
1.2648425102233887	146103055.23971128
1.2691574096679688	145517046.3626408
1.2734732627868652	144030548.9054262
1.2777899503707886	142394235.5434703
1.2821072340011597	138600775.92041093
1.2864248752593994	130398142.89583331
1.2907428741455078	123921480.2796424
1.2950609922409058	122264582.31576611
1.2993791103363037	119978878.95079048
1.303696870803833	115456787.6252819
1.3080145120620728	109224888.71953475
1.3123314380645752	100434683.75815123
1.3166478872299194	91894081.66795103
1.3209635019302368	83915129.99369422
1.3252781629562378	70396096.76383911
1.3295916318893433	47305662.28046297
1.3339040279388428	23461240.53159717
1.3382149934768677	10414152.787218552
1.3425244092941284	6268049.377932518
1.3468321561813354	4613415.91099507
1.3511382341384888	3546728.880705818
1.3554422855377197	2908208.9993998585
1.3597444295883179	2872933.5412891814
1.3640443086624146	3425478.4171069977
1.3683418035507202	3823202.83223318
1.3726370334625244	3989568.1485290737
1.3769296407699585	4466001.369804646
1.381219506263733	4635036.535901629
1.3855066299438477	4458752.571522812
1.3897908926010132	4417548.566366895
1.3940720558166504	4242021.144753067
1.3983501195907593	4049924.1685001063
1.4026249647140503	4059221.441067933
1.4068963527679443	3890658.6038331767
1.4111642837524414	3694415.6668815035
1.4154287576675415	3806790.9790111925
1.419689416885376	3785676.868347642
1.4239463806152344	3710789.426639945
1.4281994104385376	4084651.6563590514
1.4324485063552856	4649172.22634298
1.436693549156189	5059423.247251793
1.440934419631958	5388979.030178681
1.4451709985733032	5900418.315790827
1.449403166770935	7154270.207588933
1.453631043434143	8758869.897631282
1.4578542709350586	9806316.862008471
1.4620729684829712	10146990.250774378
1.4662868976593018	10125976.02686063
1.4704961776733398	10150633.82016471
1.4747005701065063	10708770.94232809
1.4788999557495117	11617208.776072806
1.4830944538116455	12265885.453162812
1.4872838258743286	12971770.857293958
1.491468071937561	13826159.3189743
1.4956470727920532	14703189.845208045
1.4998208284378052	15758172.85775605
1.5039892196655273	17002343.350046176
1.5081522464752197	18715195.73990584
1.5123097896575928	20779018.432972316
1.5164618492126465	22193747.169153936
1.5206083059310913	23372546.737660743
1.5247491598129272	24903709.099945568
1.5288842916488647	26581222.511059392
1.5330137014389038	28593437.142419975
1.5371372699737549	30310267.42983857
1.541254997253418	31776897.228258673
1.545366883277893	34058841.345496915
1.5494728088378906	36105364.86030477
1.5535727739334106	36699508.08199876
1.5576666593551636	37481948.426116735
1.561754584312439	40808871.00115498
1.5658363103866577	45501668.90787885
1.5699119567871094	48361039.32506817
1.5739814043045044	49654060.24605243
1.5780447721481323	50891073.96375556
1.582101821899414	52303658.85267175
1.5861525535583496	53472902.04115466
1.5901970863342285	53540832.95685334
1.5942351818084717	53115988.88087774
1.5982669591903687	52337731.692026965
1.6022924184799194	49937064.240553476
1.606311559677124	46847910.294168435
1.6103241443634033	44621677.40439235
1.6143304109573364	42143278.89406317
1.6183301210403442	39608264.400860816
1.6223233938217163	39559222.5272347
1.6263102293014526	41360575.972068846
1.6302905082702637	43131055.66155713
1.634264349937439	46028595.316090524
1.638231635093689	50296056.55436388
1.6421923637390137	51755911.741176575
1.646146535873413	49222031.19058917
1.6500942707061768	48377341.58356712
1.6540353298187256	47031300.86725508
1.6579699516296387	44226120.6889202
1.661897897720337	42271603.32270475
1.6658192873001099	30065846.374461778
1.6697341203689575	18033769.151211306
1.6736423969268799	23575630.134728547
1.677544116973877	32529749.14006294
1.6814392805099487	33477741.0039455
1.6853278875350952	30730542.368631843
1.6892099380493164	27305774.68158719
1.6930854320526123	23606355.457292758
1.696954369544983	20347645.646110214
1.7008168697357178	18590933.94313271
1.7046726942062378	18815882.559344545
1.708522081375122	20582967.97393896
1.712364912033081	21744725.18784136
1.7162011861801147	22015256.48817517
1.7200311422348022	22377008.10327141
1.723854422569275	21469424.662308414
1.7276713848114014	19765330.94446012
1.731481909751892	18348050.8658434
1.7352858781814575	17604198.062850732
1.7390835285186768	18062654.004991468
1.7428747415542603	18826589.52899548
1.7466596364974976	18894365.831358265
1.7504380941390991	18249859.923395522
1.7542102336883545	16803565.322976973
1.7579760551452637	15329967.1542739
1.7617355585098267	14576617.047828846
1.7654887437820435	13636762.533674857
1.7692357301712036	12198800.945899997
1.7729763984680176	11102844.408264836
1.776710867881775	10867436.905166222
1.7804391384124756	10973021.033245444
1.7841613292694092	10244563.4099715
1.7878772020339966	9266777.305102514
1.7915871143341064	8295030.903450214
1.7952908277511597	7836959.547843244
1.7989884614944458	8014742.09870749
1.8026801347732544	7383379.783958032
1.806365728378296	6962688.728289828
1.8100452423095703	7345442.846086642
1.8137187957763672	7854762.483923702
1.817386507987976	7463771.202948606
1.8210482597351074	7156415.945498055
1.8247040510177612	7981743.42555342
1.828354001045227	7915740.200301483
1.8319982290267944	7048804.876379184
1.8356364965438843	6472264.879458906
1.8392690420150757	6400269.092224981
1.8428958654403687	6695864.856581071
1.8465168476104736	6505401.728717024
1.8501322269439697	6287217.515594344
1.8537418842315674	6134218.675716002
1.8573459386825562	5257379.087139032
1.860944390296936	4459376.281766842
1.864537239074707	4348280.849998654
1.8681244850158691	4498412.188393994
1.871706247329712	4961201.673652398
1.8752825260162354	5940111.233266649
1.8788533210754395	7413242.8688498605
1.8824186325073242	8795335.426042344
1.8859784603118896	9361681.33614495
1.8895330429077148	9404556.24031965
1.8930821418762207	9948611.343779298
1.8966259956359863	10631475.844212556
1.9001644849777222	10321294.653821984
1.9036977291107178	9858884.439060776
1.9072256088256836	10351703.782833254
1.9107483625411987	10488136.560753914
1.9142658710479736	10113414.565766254
1.9177782535552979	10287514.362193722
1.9212853908538818	10010433.69817936
1.9247875213623047	9320751.645953625
1.9282845258712769	8642767.898315987
1.9317764043807983	7832957.919020119
1.9352631568908691	7069007.821041919
1.9387450218200684	6293814.896145444
1.942221760749817	6473203.785549852
1.9456936120986938	7320980.866565417
1.9491604566574097	7804299.635913419
1.952622413635254	7760719.223362757
1.956079363822937	7361057.712529696
1.959531545639038	7497583.490997902
1.962978720664978	7942976.384604577
1.966421127319336	8534673.907317024
1.9698586463928223	9150623.279795127
1.9732913970947266	9130630.579192895
1.9767193794250488	9200182.153842168
1.9801424741744995	9475140.678548688
1.9835609197616577	9879733.312087832
1.9869745969772339	10404433.020482635
1.990383505821228	10661138.616938498
1.9937876462936401	11591249.946553737
1.9971871376037598	12397757.435223678
2.000581979751587	12825044.056138946
2.003972291946411	13439721.217009854
2.007357597351074	13460116.595679043
2.0107386112213135	13962129.5976571
2.0141148567199707	14988711.82570111
2.017486572265625	15288938.120108992
2.0208535194396973	16513638.772942673
2.0242159366607666	18143778.246020034
2.027573823928833	17982750.380236924
2.0309269428253174	18121367.8097752
2.034275770187378	19665943.438875534
2.0376198291778564	20614296.482670736
2.040959596633911	20681620.251777787
2.044294595718384	21559846.645752795
2.0476250648498535	23108391.325753637
2.0509510040283203	23394416.905259565
2.054272413253784	23416719.116765834
2.057589530944824	25044663.07509731
2.0609018802642822	25852013.72396546
2.0642096996307373	25667246.552135717
2.0675129890441895	26384598.461929664
2.0708119869232178	26783977.462267645
2.074106216430664	26684134.757894177
2.0773961544036865	26788332.58323636
2.080681324005127	27023575.54034636
2.0839622020721436	27139469.587355573
2.087238311767578	27305125.786335364
2.090510129928589	27706155.368292533
2.0937774181365967	27801427.524024114
2.0970399379730225	27561867.184947874
2.1002981662750244	27114262.75691137
2.1035518646240234	26605417.07108955
2.1068007946014404	26061232.387542553
2.1100454330444336	25549314.455706757
2.1132853031158447	25540959.55710152
2.116520881652832	25134870.795531344
2.1197516918182373	24514898.14582612
2.1229779720306396	24545675.67810803
2.12619948387146	24396285.2118039
2.1294167041778564	23823189.132102016
2.132629156112671	23564250.715487037
2.1358368396759033	23208865.07736711
2.139039993286133	21876264.925417412
2.1422386169433594	19886503.308325548
2.145432472229004	18243680.076888334
2.1486217975616455	17720878.50292667
2.151806354522705	17675581.069208346
2.1549863815307617	17400609.65889531
2.1581614017486572	16806852.09301872
2.16133189201355	15939375.552654078
2.1644976139068604	15094406.635322347
2.167658567428589	14221270.482644059
2.1708147525787354	13599693.893572519
2.173966407775879	12995462.764288004
2.1771130561828613	12065526.585222268
2.1802549362182617	11263912.610275934
2.183391809463501	10366765.68131395
2.1865241527557373	9248775.94813766
2.1896514892578125	8054035.672260126
2.1927738189697266	6689295.777837384
2.1958916187286377	5030939.274842225
2.1990041732788086	3339785.1261952743
2.2021119594573975	2240783.2922633225
2.2052149772644043	1808572.4501862149
2.208312749862671	1902466.043868278
2.2114057540893555	2456541.3384268633
2.214493751525879	3204021.1164505747
2.217576742172241	3767182.100884254
2.2206547260284424	3981102.332677946
2.2237277030944824	3895580.7452649134
2.2267956733703613	3596588.4467462613
2.2298583984375	3284708.8042205204
2.2329163551330566	3085420.6552547324
2.235969066619873	2922356.3716324274
2.2390167713165283	2695237.954547016
2.2420592308044434	2423305.526188866
2.2450966835021973	2176769.4448739225
2.248128890991211	2035600.552347739
2.2511560916900635	1970830.828353137
2.254178285598755	1928391.1825397604
2.257194995880127	1913170.5346250434
2.260206699371338	1906203.3826740056
2.2632133960723877	1923932.7114898718
2.266214609146118	1912334.0868286819
2.2692108154296875	1870325.7845312555
2.2722020149230957	1851455.0749255202
2.2751877307891846	1819422.7830738972
2.278168201446533	1748902.9016335444
2.2811436653137207	1606425.1658113364
2.284113883972168	1409707.7477146985
2.287078857421875	1250314.814527572
2.290038824081421	1119504.8039191582
2.2929933071136475	1029102.1349377406
2.295942783355713	1060417.3260791362
2.298887014389038	1226814.6694798726
2.301826238632202	1426934.8003421994
2.304760217666626	1710742.968743768
2.3076889514923096	2286362.6041761413
2.310612440109253	2956901.677073852
2.3135311603546143	3073175.8213525536
2.3164443969726562	2226988.656132296
2.319352865219116	1269463.227724098
2.322256088256836	951821.8841941328
2.3251543045043945	870082.9091544945
2.328047275543213	844309.6945268558
2.330935478210449	931057.177095918
2.3338186740875244	1041001.786568492
2.3366971015930176	1136765.1726423916
2.3395702838897705	1211795.563792051
2.3424389362335205	1222086.4412690778
2.3453025817871094	1163485.4525754005
2.348161458969116	1144411.5789487096
2.351015567779541	1224983.2041698652
2.353865146636963	1351012.1235244183
2.3567099571228027	1486653.0586551323
2.3595502376556396	1651695.6267518075
2.3623859882354736	1848720.2867622483
2.3652172088623047	2039840.0841459658
2.368043899536133	1973174.0354073055
2.370866537094116	1465570.3007071128
2.3736846446990967	1110412.6136248591
2.3764986991882324	1125543.4019551908
2.3793084621429443	1078040.6420443426
2.3821144104003906	990799.8609839437
2.384916305541992	1136254.6140384201
2.387714147567749	1485601.6329420053
2.3905084133148193	1661300.1974785868
2.393299102783203	1664740.3690575268
2.3960859775543213	1780036.7389373397
2.398869514465332	1988267.585021665
2.4016497135162354	2201676.217981888
2.4044265747070312	2452633.1730984654
2.407200336456299	2592100.1246835617
2.409970998764038	2649134.394657896
2.4127390384674072	2790237.426063533
2.415503978729248	2812656.0346115977
2.418266534805298	2731713.088659845
2.4210267066955566	2667259.312067972
2.4237842559814453	2451108.7964455225
2.426539897918701	2303598.8224963453
2.429293394088745	2499397.2773912386
2.4320452213287354	2728378.3652637745
2.4347951412200928	2688593.866263993
2.4375438690185547	2811744.6111181835
2.440291166305542	3141202.422670247
2.443037271499634	3175911.7454873384
2.445782423019409	3084153.580158893
2.4485268592834473	3090503.9266607133
2.451270818710327	3109067.662656349
2.454014539718628	3213091.6168921944
2.4567582607269287	3544268.5847732713
2.4595019817352295	3754034.790880111
2.4622461795806885	3964550.929008578
2.4649908542633057	4255393.574171272
2.4677364826202393	3985197.6994194062
2.4704833030700684	3568976.483929492
2.473231554031372	3483185.54053241
2.4759814739227295	3680954.7580237035
2.4787333011627197	3887234.3011630415
