#wavelength	surface flux
0.6450077295303345	102916.38943464345
0.6472567915916443	164715.7846473087
0.6494921445846558	221145.87218563375
0.6517150402069092	262532.8715766733
0.6539263725280762	307386.1158655118
0.6561272740364075	356834.8314965974
0.6583186388015747	410771.3947380761
0.6605015397071838	468251.27073870145
0.6626768708229065	526299.0971292368
0.6648455858230591	575100.101392408
0.6670085787773132	574399.3240506032
0.6691668033599854	476782.50914552313
0.6713210344314575	433410.8717683521
0.6734722256660461	616343.854647719
0.6756211519241333	859863.2120369683
0.6777685880661011	1009866.6500435004
0.6799154281616211	1111015.2603034931
0.6820623278617859	1197074.7213444735
0.6842101216316223	1272970.7636871408
0.6863595843315125	1336942.5999704502
0.688511312007904	1384840.28319329
0.6906660795211792	1406243.806158754
0.6928245425224304	1408456.070555064
0.6949873566627502	1424905.5694362144
0.6971551775932312	1451137.577091413
0.6993286609649658	1450598.145127744
0.7015084028244019	1424214.2691738892
0.7036949396133423	1384219.530697971
0.7058889269828796	1328785.6872928662
0.7080909013748169	1264904.3417295346
0.710301399230957	1198883.502323944
0.712520956993103	1127582.0876649925
0.7147500514984131	1045120.8165838978
0.7169892191886902	955701.5800679169
0.7192389369010925	877059.9943769207
0.7214996814727783	806269.1733997879
0.723771870136261	729686.0234048787
0.7260559797286987	651601.6430532895
0.7283523678779602	578805.5986320169
0.7306615710258484	510595.52269974025
0.7329838871955872	446976.4024647848
0.7353196740150452	387653.61510054296
0.7376693487167358	330791.65771020367
0.7400332689285278	277773.68436939275
0.7424117922782898	229555.87495325986
0.7448052167892456	186311.4889159098
0.7472138404846191	147805.8324141006
0.7496379613876343	113752.9487607679
0.7520779371261597	84313.941379761
0.7545340061187744	59662.15603921379
0.7570064663887024	39814.395917122216
0.7594954967498779	24623.681833619292
0.7620013952255249	13642.792041576715
0.7645244002342224	6329.90310461817
0.7670646905899048	2740.755224168094
0.7696225643157959	3060.0386032260826
0.7721980810165405	8076.951446805381
0.7747915983200073	18515.888359347246
0.7774031162261963	32307.779956558064
0.7800329327583313	52604.80315472087
0.7826811671257019	90050.97525821048
0.7853479981422424	142622.4559659761
0.7880334854125977	203544.29808108057
0.7907378077507019	260572.64134057934
0.7934610247612	299357.7302730666
0.7962033748626709	390232.6907537309
0.7989648580551147	567028.4346386059
0.801745593547821	753707.7427707646
0.8045456409454346	934610.9091427487
0.8073651194572449	1131343.2241896787
0.8102040886878967	1343472.1266930012
0.8130625486373901	1580926.0062839633
0.8159406185150146	1846408.5659168523
0.8188382983207703	2144775.7103934395
0.8217556476593018	2530088.7845216757
0.8246926665306091	3003219.1463424014
0.8276493549346924	3503450.022960376
0.8306257724761963	4024082.832579196
0.8336219191551208	4593060.657874434
0.8366377949714661	5220706.8039115295
0.8396733403205872	5908091.241315394
0.8427285552024841	6643904.326952305
0.8458034992218018	7344715.176869499
0.8488980531692505	7573702.779946989
0.8520121574401855	7649042.557258042
0.8551458716392517	9028846.980272206
0.8582990765571594	10532098.404655503
0.8614717125892639	9998772.64180596
0.8646637797355652	9121490.156606277
0.8678751587867737	9584374.95152206
0.8711057901382446	10337055.163743528
0.8743556141853333	11201468.96454607
0.87762451171875	12458325.944925291
0.8809124231338501	13705604.034671111
0.8842192888259888	15054588.575566625
0.8875449895858765	16255364.826144302
0.8908893465995789	16142423.781812234
0.894252359867096	15684115.761254078
0.8976338505744934	18429657.46442479
0.9010337591171265	23400782.54881019
0.9044519662857056	27543317.016784232
0.9078882932662964	30707502.446503792
0.9113426208496094	33330181.855806623
0.914814829826355	35745407.85871249
0.9183048605918884	38085645.05271916
0.9218124747276306	38887641.039046325
0.925337553024292	34739561.19139532
0.9288799166679382	27619846.705297023
0.9324395060539246	25051512.51816
0.9360161423683167	28175190.560458038
0.9396095871925354	32888555.596439313
0.943219780921936	36238893.28917917
0.9468464851379395	37581110.65098511
0.9504896402359009	38187510.17138412
0.9541489481925964	38186140.25663273
0.9578243494033813	37559038.377016485
0.9615156054496765	37990672.65610153
0.9652225375175476	40776768.50093904
0.9689450263977051	44674954.12167039
0.9726828336715698	47822681.92853139
0.9764357805252075	50944480.15098508
0.9802037477493286	54651441.51814787
0.983986496925354	58319830.069545664
0.9877838492393494	60427116.72438903
0.9915955662727356	58947648.57315792
0.9954215884208679	54529345.18599055
0.9992615580558777	46633896.49391814
1.0031154155731201	40870884.583240874
1.0069829225540161	42576730.528544724
1.0108637809753418	48169986.50751009
1.0147579908370972	55511666.380569644
1.018665075302124	63637439.90354393
1.022585153579712	70532662.92892589
1.0265177488327026	75271478.0304685
1.0304628610610962	81013988.40716588
1.0344202518463135	89364592.55754332
1.0383895635604858	97388896.25024946
1.0423706769943237	102681657.42030089
1.0463634729385376	105047005.67463844
1.0503677129745483	105028042.60149348
1.0543830394744873	104981346.57945894
1.058409333229065	107122719.47612038
1.0624464750289917	111735891.9248161
1.0664942264556885	118010241.21849373
1.0705522298812866	125131726.52786322
1.0746204853057861	133348342.75683804
1.0786986351013184	141447633.10923645
1.0827864408493042	146472482.49899426
1.086883783340454	142296955.29204938
1.0909905433654785	124918311.0232265
1.0951062440872192	101831634.78428018
1.0992310047149658	82700472.80529428
1.10336434841156	67439290.36314477
1.1075061559677124	54244555.74935859
1.1116561889648438	44596067.32169838
1.115814208984375	40206935.89430676
1.1199802160263062	40492701.351842925
1.124153733253479	44257572.01270422
1.1283347606658936	46030190.60048872
1.1325229406356812	39353110.59827745
1.1367181539535522	33875213.59329124
1.1409201622009277	37492440.03209842
1.145128846168518	44925318.09660082
1.1493438482284546	50131307.0450772
1.1535650491714478	50096393.278117254
1.1577922105789185	48771499.48732388
1.1620250940322876	47374487.80047252
1.1662636995315552	43459639.51053327
1.170507550239563	40623669.495338336
1.174756646156311	39510898.03931588
1.1790107488632202	41644907.829920635
1.1832695007324219	51666893.14719876
1.1875330209732056	64517489.77648944
1.191800832748413	75840560.17125194
1.1960728168487549	86184667.03946713
1.2003488540649414	95529145.34979029
1.2046287059783936	105938652.83447613
1.2089121341705322	116538718.6673584
1.2131990194320679	126564930.5623116
1.2174891233444214	136893248.4249383
1.2217823266983032	146673157.7648595
1.2260783910751343	157341846.2182199
1.230377197265625	167321383.51146212
1.2346785068511963	172561385.67175996
1.238982081413269	166589441.4958219
1.2432878017425537	154369942.6895132
1.2475954294204712	148017112.8735912
1.2519049644470215	143928560.9414995
1.256216049194336	160346897.68318495
1.2605286836624146	189631676.39181077
1.2648425102233887	201165817.11399996
1.2691574096679688	203417840.78612366
1.2734732627868652	203331263.7834674
1.2777899503707886	202272044.7483077
1.2821072340011597	198511329.97496185
1.2864248752593994	188825215.85193944
1.2907428741455078	180922688.68299252
1.2950609922409058	179321073.75182226
1.2993791103363037	177542920.75443786
1.303696870803833	173182683.10314977
1.3080145120620728	166151805.37398714
1.3123314380645752	155291132.25137976
1.3166478872299194	143841679.33811748
1.3209635019302368	131518038.20458323
1.3252781629562378	110357218.59061359
1.3295916318893433	75413126.28755695
1.3339040279388428	38711375.541300096
1.3382149934768677	17578217.933490697
1.3425244092941284	10765910.032445164
1.3468321561813354	8279907.3434580285
1.3511382341384888	6603010.061016234
1.3554422855377197	5550328.566700784
1.3597444295883179	5545632.278115746
1.3640443086624146	6538866.540116822
1.3683418035507202	7238843.36497933
1.3726370334625244	7567685.07120963
1.3769296407699585	8466550.516623393
1.381219506263733	8822272.05026544
1.3855066299438477	8496699.261610478
1.3897908926010132	8313412.298654961
1.3940720558166504	7890547.310691175
1.3983501195907593	7530778.078444504
1.4026249647140503	7593582.328977717
1.4068963527679443	7303920.413072378
1.4111642837524414	6840623.9759038
1.4154287576675415	6888146.317689469
1.419689416885376	6828019.88436637
1.4239463806152344	6693850.736957641
1.4281994104385376	7241361.384664473
1.4324485063552856	8100992.538568503
1.436693549156189	8721600.762256406
1.440934419631958	9218553.498992534
1.4451709985733032	9995247.054282894
1.449403166770935	11878427.820883691
1.453631043434143	14248691.98382975
1.4578542709350586	15799476.088122826
1.4620729684829712	16323221.212311815
1.4662868976593018	16310752.05658651
1.4704961776733398	16442562.215629974
1.4747005701065063	17366460.655166507
1.4788999557495117	18751031.363636304
1.4830944538116455	19756168.22311406
1.4872838258743286	20789527.660517346
1.491468071937561	21981620.050242476
1.4956470727920532	23198991.606039777
1.4998208284378052	24718043.477427963
1.5039892196655273	26625638.387669113
1.5081522464752197	29167466.919479094
1.5123097896575928	32151485.55878364
1.5164618492126465	34253314.09871925
1.5206083059310913	36058030.46704678
1.5247491598129272	38349832.422832355
1.5288842916488647	40796998.32198619
1.5330137014389038	43788315.86429049
1.5371372699737549	46439236.885647096
1.541254997253418	48655815.051499315
1.545366883277893	51950725.37620605
1.5494728088378906	55017233.71878043
1.5535727739334106	56135073.73306873
1.5576666593551636	57232638.15780941
1.561754584312439	61567424.36642326
1.5658363103866577	67944087.45382528
1.5699119567871094	72132755.20753296
1.5739814043045044	74231672.65535097
1.5780447721481323	76041530.20931415
1.582101821899414	78158752.11674362
1.5861525535583496	80236697.89933644
1.5901970863342285	80998884.00169103
1.5942351818084717	81136883.22296943
1.5982669591903687	80818544.85809517
1.6022924184799194	78482250.5685826
1.606311559677124	75228975.37538771
1.6103241443634033	72915548.45457384
1.6143304109573364	70308446.35985132
1.6183301210403442	67514733.45662877
1.6223233938217163	67440773.65641332
1.6263102293014526	69466655.15565875
1.6302905082702637	71566898.02366424
1.634264349937439	75169043.83172573
1.638231635093689	80388464.34202212
1.6421923637390137	82431246.37515177
1.646146535873413	80314862.86416389
1.6500942707061768	79609107.16375068
1.6540353298187256	77461391.71054342
1.6579699516296387	74097169.12369573
1.661897897720337	70561758.66627227
1.6658192873001099	51730105.14079648
1.6697341203689575	35214302.24598384
1.6736423969268799	45226327.712093696
1.677544116973877	59397593.69995175
1.6814392805099487	61241487.38184266
1.6853278875350952	57192966.122714624
1.6892099380493164	51844467.29221841
1.6930854320526123	46252955.522787355
1.696954369544983	41177152.97518538
1.7008168697357178	38281051.631016016
1.7046726942062378	38175388.11702037
1.708522081375122	39852122.287456095
1.712364912033081	40445039.33928157
1.7162011861801147	39768267.283576965
1.7200311422348022	39564561.058358364
1.723854422569275	38023319.46410492
1.7276713848114014	35330857.66502916
1.731481909751892	32960387.675583534
1.7352858781814575	31383912.40831914
1.7390835285186768	31216423.29638214
1.7428747415542603	31407918.349947166
1.7466596364974976	30750097.08879579
1.7504380941390991	29421061.412828058
1.7542102336883545	27185979.498990633
1.7579760551452637	25032179.216954626
1.7617355585098267	23965317.430547412
1.7654887437820435	22482058.358456947
1.7692357301712036	20224711.754182916
1.7729763984680176	18449135.573916122
1.776710867881775	17703720.982889522
1.7804391384124756	17460024.35433148
1.7841613292694092	16271499.78367037
1.7878772020339966	14924835.956139728
1.7915871143341064	13690761.40276334
1.7952908277511597	13032587.98407542
1.7989884614944458	13079402.061136948
1.8026801347732544	12000659.026404109
1.806365728378296	11330974.206612203
1.8100452423095703	11855056.752110997
1.8137187957763672	12614373.198871518
1.817386507987976	12041512.319622003
1.8210482597351074	11501080.14935276
1.8247040510177612	12648964.77167465
1.828354001045227	12624140.567592565
1.8319982290267944	11466269.48575239
1.8356364965438843	10709760.52479025
1.8392690420150757	10584611.169664558
1.8428958654403687	10817248.16330496
1.8465168476104736	10389876.685772404
1.8501322269439697	10081613.19620322
1.8537418842315674	9831082.123853011
1.8573459386825562	8468736.90072041
1.860944390296936	7291503.384388421
1.864537239074707	7228110.198899012
1.8681244850158691	7592356.229586338
1.871706247329712	8306331.862460096
1.8752825260162354	9606268.86022143
1.8788533210754395	11559337.909322836
1.8824186325073242	13475238.078637028
1.8859784603118896	14315716.920550346
1.8895330429077148	14385407.16645432
1.8930821418762207	15122920.17555004
1.8966259956359863	16150540.316988198
1.9001644849777222	15914118.480876533
1.9036977291107178	15358277.311551193
1.9072256088256836	15989396.91287895
1.9107483625411987	16185985.021290451
1.9142658710479736	15731676.490214067
1.9177782535552979	15945564.32379919
1.9212853908538818	15468309.482080875
1.9247875213623047	14499585.442187535
1.9282845258712769	13625826.345794596
1.9317764043807983	12513461.190324413
1.9352631568908691	11392203.284076495
1.9387450218200684	10185186.189710215
1.942221760749817	10342420.356004173
1.9456936120986938	11564424.768026493
1.9491604566574097	12281852.4948274
1.952622413635254	12198457.82238918
1.956079363822937	11587339.636476882
1.959531545639038	11713721.06074956
1.962978720664978	12278245.67576227
1.966421127319336	13109171.875308892
1.9698586463928223	13964411.774039764
1.9732913970947266	13841967.270080646
1.9767193794250488	13830805.903078191
1.9801424741744995	14186944.881584395
1.9835609197616577	14768400.93941487
1.9869745969772339	15466568.407089617
1.990383505821228	15682339.577845829
1.9937876462936401	16801750.40322921
1.9971871376037598	17829734.597040407
2.000581979751587	18384989.60188179
2.003972291946411	19274444.341148555
2.007357597351074	19303408.53064283
2.0107386112213135	19873447.07338448
2.0141148567199707	21263728.635275453
2.017486572265625	21738879.505410418
2.0208535194396973	23320034.66079479
2.0242159366607666	25339638.54695956
2.027573823928833	25033011.837168433
2.0309269428253174	25224815.60201375
2.034275770187378	27225026.99701991
2.0376198291778564	28460151.612910837
2.040959596633911	28625161.16754275
2.044294595718384	29664697.28468685
2.0476250648498535	31479591.76938282
2.0509510040283203	31860580.11786509
2.054272413253784	31976082.760955554
2.057589530944824	34083984.24791423
2.0609018802642822	35109156.09601953
2.0642096996307373	34873544.58275085
2.0675129890441895	35852276.81067441
2.0708119869232178	36404596.23290844
2.074106216430664	36263639.86112361
2.0773961544036865	36482454.6329535
2.080681324005127	36902898.01433032
2.0839622020721436	37161193.56906896
2.087238311767578	37492949.44646093
2.090510129928589	38078230.820212305
2.0937774181365967	38286911.4074037
2.0970399379730225	38138007.530162275
2.1002981662750244	37772911.88834953
2.1035518646240234	37283054.31579749
2.1068007946014404	36757984.89842312
2.1100454330444336	36346405.63754393
2.1132853031158447	36522559.92627165
2.116520881652832	36123212.86228007
2.1197516918182373	35456567.0984389
2.1229779720306396	35626507.24203866
2.12619948387146	35505213.72755938
2.1294167041778564	34793747.09630137
2.132629156112671	34540405.10618502
2.1358368396759033	34204780.29504757
2.139039993286133	32676221.617820628
2.1422386169433594	30466763.63499389
2.145432472229004	28710105.802134264
2.1486217975616455	28086024.915237874
2.151806354522705	27939857.515638947
2.1549863815307617	27631087.848627217
2.1581614017486572	26947524.756465103
2.16133189201355	25912691.400479592
2.1644976139068604	24937125.03249145
2.167658567428589	23884086.3039755
2.1708147525787354	23007182.369017594
2.173966407775879	22061267.76990033
2.1771130561828613	20718829.460318062
2.1802549362182617	19596841.618101057
2.183391809463501	18318005.709995802
2.1865241527557373	16642027.99824845
2.1896514892578125	14855834.875121372
2.1927738189697266	12813963.574106993
2.1958916187286377	10138777.5444328
2.1990041732788086	7215466.089335425
2.2021119594573975	5155453.926473373
2.2052149772644043	4220319.51226779
2.208312749862671	4326398.365083886
2.2114057540893555	5363190.114010196
2.214493751525879	6770619.218271766
2.217576742172241	7797625.1288450705
2.2206547260284424	8173957.844406985
2.2237277030944824	8053092.986904999
2.2267956733703613	7525952.921402072
2.2298583984375	6968677.151582113
2.2329163551330566	6608351.469666508
2.235969066619873	6294153.386694968
2.2390167713165283	5895067.557169019
2.2420592308044434	5383214.141478364
2.2450966835021973	4895828.937091067
2.248128890991211	4631536.473056225
2.2511560916900635	4513219.211521783
2.254178285598755	4441490.25680651
2.257194995880127	4404434.227827241
2.260206699371338	4360698.59072611
2.2632133960723877	4378759.623582872
2.266214609146118	4339256.212267055
2.2692108154296875	4218454.053335046
2.2722020149230957	4154895.9616176845
2.2751877307891846	4101244.1594093097
2.278168201446533	3956216.322375552
2.2811436653137207	3641355.714592653
2.284113883972168	3242389.6966337287
2.287078857421875	2936948.995211778
2.290038824081421	2657947.4364650375
2.2929933071136475	2439761.200550225
2.295942783355713	2492703.123670051
2.298887014389038	2838377.467668691
2.301826238632202	3253611.990257734
2.304760217666626	3824817.893713839
2.3076889514923096	4917730.590992447
2.310612440109253	6090493.6706350325
2.3135311603546143	6191997.330519609
2.3164443969726562	4589563.468641201
2.319352865219116	2816098.0603092653
2.322256088256836	2199058.1145475474
2.3251543045043945	2008709.1732622806
2.328047275543213	1935764.531732672
2.330935478210449	2087800.0856096097
2.3338186740875244	2287493.83189049
2.3366971015930176	2467884.3675562516
2.3395702838897705	2629410.052937456
2.3424389362335205	2685085.91884526
2.3453025817871094	2607171.0712659075
2.348161458969116	2584260.9347513635
2.351015567779541	2735784.8488096036
2.353865146636963	2990904.343505815
2.3567099571228027	3265895.649682303
2.3595502376556396	3578014.5355060394
2.3623859882354736	3946260.7602295466
2.3652172088623047	4289660.90022586
2.368043899536133	4114674.4141679597
2.370866537094116	3113282.845519763
2.3736846446990967	2453038.4701962154
2.3764986991882324	2491278.120642495
2.3793084621429443	2371137.6615441744
2.3821144104003906	2168872.408316611
2.384916305541992	2424870.4236792442
2.387714147567749	3089882.343874805
2.3905084133148193	3442628.625501451
2.393299102783203	3473374.388040803
2.3960859775543213	3705665.324707396
2.398869514465332	4095818.2749938215
2.4016497135162354	4455439.381176356
2.4044265747070312	4852731.4511492625
2.407200336456299	5054349.616762939
2.409970998764038	5134336.5277658785
2.4127390384674072	5384974.799029781
2.415503978729248	5414795.129687379
2.418266534805298	5276653.513925584
2.4210267066955566	5209444.995011167
2.4237842559814453	4877399.069390786
2.426539897918701	4610358.225767699
2.429293394088745	4915626.523680795
2.4320452213287354	5305639.518820586
2.4347951412200928	5203734.51551418
2.4375438690185547	5363960.714260002
2.440291166305542	5890094.4698869595
2.443037271499634	5870922.926745153
2.445782423019409	5647414.822541413
2.4485268592834473	5644706.451696185
2.451270818710327	5625975.3559326045
2.454014539718628	5726854.482700948
2.4567582607269287	6283826.084897941
2.4595019817352295	6588842.112027225
2.4622461795806885	6865999.8460702775
2.4649908542633057	7299452.685447529
2.4677364826202393	6770471.914059811
2.4704833030700684	6044949.530969451
2.473231554031372	5882278.745320329
2.4759814739227295	6175804.259397493
2.4787333011627197	6490609.506888843
2.481487512588501	6528242.82006192
2.4842441082000732	7080116.67745078
