#wavelength	surface flux
0.6450077295303345	20528.6135479107
0.6472567915916443	33168.25418360461
0.6494921445846558	45266.68991329816
0.6517150402069092	54712.5522905711
0.6539263725280762	65164.64053231966
0.6561272740364075	76886.29393899375
0.6583186388015747	89932.5919040828
0.6605015397071838	104278.05296594343
0.6626768708229065	119612.65551483518
0.6648455858230591	134814.96022208105
0.6670085787773132	142543.09924825362
0.6691668033599854	130352.82519945831
0.6713210344314575	127578.52881739847
0.6734722256660461	170478.7144340349
0.6756211519241333	222782.62850324364
0.6777685880661011	254855.3705772373
0.6799154281616211	278911.71632393886
0.6820623278617859	300336.11453487206
0.6842101216316223	319600.136297582
0.6863595843315125	336259.40489792166
0.688511312007904	348956.90687187656
0.6906660795211792	354861.9945897107
0.6928245425224304	355838.29205808387
0.6949873566627502	360085.9180923786
0.6971551775932312	365981.41546298633
0.6993286609649658	364681.9773449639
0.7015084028244019	356661.8305059954
0.7036949396133423	345986.52713761985
0.7058889269828796	333250.7044103444
0.7080909013748169	318123.39500836766
0.710301399230957	300639.71169093606
0.712520956993103	280896.6579578211
0.7147500514984131	257091.75456653713
0.7169892191886902	230155.23880906624
0.7192389369010925	207411.02118121908
0.7214996814727783	188773.38009382592
0.723771870136261	168603.8174848588
0.7260559797286987	148024.4015764403
0.7283523678779602	129599.7696400838
0.7306615710258484	112914.785631923
0.7329838871955872	97759.7160018266
0.7353196740150452	83831.10452623166
0.7376693487167358	70366.35710520453
0.7400332689285278	57899.91185313106
0.7424117922782898	46822.85652127618
0.7448052167892456	37201.813549384155
0.7472138404846191	28968.11320390467
0.7496379613876343	22023.823975909152
0.7520779371261597	16352.11839419315
0.7545340061187744	11881.179635208427
0.7570064663887024	8466.03418412658
0.7594954967498779	5899.526701278666
0.7620013952255249	3876.0098360584425
0.7645244002342224	2164.3198570142604
0.7670646905899048	1102.7153838705422
0.7696225643157959	1214.9637715822212
0.7721980810165405	2709.014223641629
0.7747915983200073	5258.815589193952
0.7774031162261963	8075.613871640621
0.7800329327583313	11909.686328167521
0.7826811671257019	19123.572155865604
0.7853479981422424	29708.84586398659
0.7880334854125977	42765.72518450846
0.7907378077507019	55723.856674885246
0.7934610247612	65503.150282047485
0.7962033748626709	88584.12737065095
0.7989648580551147	133324.3126517917
0.801745593547821	182474.99394911004
0.8045456409454346	232250.94554577177
0.8073651194572449	286944.001986059
0.8102040886878967	345348.72450586414
0.8130625486373901	411640.25919502205
0.8159406185150146	494628.9690598274
0.8188382983207703	594474.9486964986
0.8217556476593018	707042.6806360597
0.8246926665306091	840128.5791825665
0.8276493549346924	991966.2174179611
0.8306257724761963	1152414.413294324
0.8336219191551208	1328141.6146438704
0.8366377949714661	1525040.1281184773
0.8396733403205872	1746051.18353639
0.8427285552024841	1996129.2686098902
0.8458034992218018	2253452.1589563023
0.8488980531692505	2373142.1544446386
0.8520121574401855	2444044.4217221653
0.8551458716392517	2915830.0905735395
0.8582990765571594	3483527.733507193
0.8614717125892639	3579810.6130194874
0.8646637797355652	3597825.137442189
0.8678751587867737	3911255.8206052147
0.8711057901382446	4296136.680926631
0.8743556141853333	4699497.067959103
0.87762451171875	5128384.461804949
0.8809124231338501	5391949.608827003
0.8842192888259888	5568913.378252843
0.8875449895858765	5758349.118837841
0.8908893465995789	5579941.2850724
0.894252359867096	5331306.188931156
0.8976338505744934	6364559.23268981
0.9010337591171265	8435256.813053273
0.9044519662857056	10310937.390262935
0.9078882932662964	11587954.470832223
0.9113426208496094	12332082.826269345
0.914814829826355	12884475.15359726
0.9183048605918884	13688551.94804591
0.9218124747276306	14275455.555371
0.925337553024292	12529324.21023407
0.9288799166679382	9012141.25521745
0.9324395060539246	7464858.290312282
0.9360161423683167	8617681.158301791
0.9396095871925354	10615574.121428397
0.943219780921936	11941316.282596454
0.9468464851379395	12299477.019496862
0.9504896402359009	12449299.255492682
0.9541489481925964	12443494.266217994
0.9578243494033813	12182315.45871887
0.9615156054496765	12476228.09510374
0.9652225375175476	13932050.289617866
0.9689450263977051	15866848.244216278
0.9726828336715698	17324101.092177503
0.9764357805252075	18643899.765557244
0.9802037477493286	20125981.007858843
0.983986496925354	21520950.519315023
0.9877838492393494	22927026.693649665
0.9915955662727356	24019288.794053417
0.9954215884208679	23940134.935525127
0.9992615580558777	22122902.937105045
1.0031154155731201	21233801.52359374
1.0069829225540161	23030125.297665287
1.0108637809753418	26087835.245785598
1.0147579908370972	29901150.91906066
1.018665075302124	34107282.079889365
1.022585153579712	37852592.97390688
1.0265177488327026	40890077.36266945
1.0304628610610962	44330292.60482471
1.0344202518463135	48712123.29175015
1.0383895635604858	52979429.09251576
1.0423706769943237	56272879.54218444
1.0463634729385376	58633736.57266501
1.0503677129745483	60156819.026880436
1.0543830394744873	61554654.29451199
1.058409333229065	63486447.36487386
1.0624464750289917	66046145.99862772
1.0664942264556885	68913503.40049334
1.0705522298812866	71785678.42554775
1.0746204853057861	75083592.04880182
1.0786986351013184	78104429.06608613
1.0827864408493042	78917104.9579088
1.086883783340454	73526031.51153326
1.0909905433654785	59896317.27957481
1.0951062440872192	44063474.45502966
1.0992310047149658	32456153.000946812
1.10336434841156	24391076.984676845
1.1075061559677124	18078343.0231087
1.1116561889648438	13561154.626299452
1.115814208984375	11298466.660984255
1.1199802160263062	11080344.103838483
1.124153733253479	12146150.285121728
1.1283347606658936	12694313.472378828
1.1325229406356812	10764228.335786803
1.1367181539535522	9822727.092338229
1.1409201622009277	11754483.467569131
1.145128846168518	13635960.630944561
1.1493438482284546	14205715.605163079
1.1535650491714478	13388771.459724877
1.1577922105789185	12587036.74131191
1.1620250940322876	12235919.161653014
1.1662636995315552	11847244.373787887
1.170507550239563	12565609.955724332
1.174756646156311	13970564.096390402
1.1790107488632202	16391662.156168567
1.1832695007324219	21100751.758850448
1.1875330209732056	26450717.57529794
1.191800832748413	32094332.602367844
1.1960728168487549	38340332.30244354
1.2003488540649414	44168271.21801895
1.2046287059783936	50287799.49575592
1.2089121341705322	56279691.68473564
1.2131990194320679	61767800.204076126
1.2174891233444214	67536632.08169417
1.2217823266983032	73169471.52891652
1.2260783910751343	79206507.45175977
1.230377197265625	85256024.08472446
1.2346785068511963	89446022.7485575
1.238982081413269	88468117.37714407
1.2432878017425537	84298333.15670666
1.2475954294204712	82056771.8956228
1.2519049644470215	80266428.48511021
1.256216049194336	89352276.02612449
1.2605286836624146	104795734.50953263
1.2648425102233887	109517724.6829651
1.2691574096679688	108251057.24595222
1.2734732627868652	105965889.7408575
1.2777899503707886	103388170.9758802
1.2821072340011597	98977640.01945688
1.2864248752593994	91554259.03075051
1.2907428741455078	85665612.6533012
1.2950609922409058	83578313.25477916
1.2993791103363037	81402149.74205686
1.303696870803833	77840336.62294754
1.3080145120620728	73285759.97970973
1.3123314380645752	66497021.435017504
1.3166478872299194	59907221.24388876
1.3209635019302368	54271518.85448465
1.3252781629562378	44504700.79026985
1.3295916318893433	28563990.950367905
1.3339040279388428	13190156.954765558
1.3382149934768677	5192134.275525949
1.3425244092941284	2737985.093076624
1.3468321561813354	1819287.551332771
1.3511382341384888	1289816.2945597663
1.3554422855377197	977431.5919480933
1.3597444295883179	938481.8276046591
1.3640443086624146	1179139.1290794513
1.3683418035507202	1373710.1756714433
1.3726370334625244	1511459.3006131195
1.3769296407699585	1797762.6928638443
1.381219506263733	1850732.2228264643
1.3855066299438477	1696742.5582870594
1.3897908926010132	1658586.2295315533
1.3940720558166504	1593807.739328344
1.3983501195907593	1521920.6351665705
1.4026249647140503	1546027.7357019589
1.4068963527679443	1503707.6261073241
1.4111642837524414	1449522.8084563185
1.4154287576675415	1513815.1026242194
1.419689416885376	1511791.6592384984
1.4239463806152344	1522814.7445597257
1.4281994104385376	1793502.3563543013
1.4324485063552856	2123777.671824799
1.436693549156189	2321381.7976878155
1.440934419631958	2513164.983803177
1.4451709985733032	2863017.864679604
1.449403166770935	3656566.5870609526
1.453631043434143	4626285.767736056
1.4578542709350586	5258510.931468094
1.4620729684829712	5482500.400332634
1.4662868976593018	5448095.728031672
1.4704961776733398	5388749.616321996
1.4747005701065063	5681715.444461847
1.4788999557495117	6247987.6804574225
1.4830944538116455	6645971.14342243
1.4872838258743286	7053315.191687059
1.491468071937561	7619001.997416817
1.4956470727920532	8296991.994938768
1.4998208284378052	9117544.312186256
1.5039892196655273	9989546.622423554
1.5081522464752197	11038229.80744626
1.5123097896575928	12242809.746187333
1.5164618492126465	13191762.081402177
1.5206083059310913	14296258.757535715
1.5247491598129272	15756833.928972004
1.5288842916488647	17243545.717229433
1.5330137014389038	18876777.60463651
1.5371372699737549	20291080.746324148
1.541254997253418	21508970.438902844
1.545366883277893	23331722.354216546
1.5494728088378906	25026059.45483522
1.5535727739334106	25763237.056395713
1.5576666593551636	26848172.92739277
1.561754584312439	29728821.456862625
1.5658363103866577	33301815.5471405
1.5699119567871094	35286876.55686078
1.5739814043045044	36061440.783402584
1.5780447721481323	37059704.485365264
1.582101821899414	38107313.64449928
1.5861525535583496	38461753.04629882
1.5901970863342285	37767942.39254413
1.5942351818084717	36651232.29923237
1.5982669591903687	35252378.66122644
1.6022924184799194	32720071.19381873
1.606311559677124	29705918.866971154
1.6103241443634033	27247968.06387245
1.6143304109573364	24568197.55418903
1.6183301210403442	21977387.902394492
1.6223233938217163	21264889.655611437
1.6263102293014526	21996710.04062287
1.6302905082702637	22956026.927961227
1.634264349937439	24891005.154723547
1.638231635093689	27992544.252177194
1.6421923637390137	29111049.744478207
1.646146535873413	26995498.611866243
1.6500942707061768	26180225.579799086
1.6540353298187256	25476397.772530682
1.6579699516296387	23612222.518727254
1.661897897720337	22589612.420202326
1.6658192873001099	15494477.356341034
1.6697341203689575	7972709.092153094
1.6736423969268799	10502891.726938479
1.677544116973877	15189524.61924794
1.6814392805099487	15545406.37341287
1.6853278875350952	14017093.403433982
1.6892099380493164	12248752.620903766
1.6930854320526123	10298946.64073715
1.696954369544983	8609041.383645333
1.7008168697357178	7665396.973161922
1.7046726942062378	7869519.137427695
1.708522081375122	9206478.59601262
1.712364912033081	10356224.448364444
1.7162011861801147	11013338.63299474
1.7200311422348022	11522215.341015652
1.723854422569275	11006929.919113962
1.7276713848114014	10100057.51017154
1.731481909751892	9478035.252733983
1.7352858781814575	9153592.302397406
1.7390835285186768	9496413.74256467
1.7428747415542603	10058951.979046857
1.7466596364974976	10267526.24982509
1.7504380941390991	9977712.973963892
1.7542102336883545	8986507.03872776
1.7579760551452637	7958183.491696297
1.7617355585098267	7505012.647112948
1.7654887437820435	7016618.118152951
1.7692357301712036	6220635.78638247
1.7729763984680176	5554066.439146548
1.776710867881775	5391432.163662925
1.7804391384124756	5467880.529155208
1.7841613292694092	5035243.103546766
1.7878772020339966	4458706.938285917
1.7915871143341064	3888425.703630601
1.7952908277511597	3597244.657830214
1.7989884614944458	3725759.277263179
1.8026801347732544	3347633.478076304
1.806365728378296	3060290.8425362385
1.8100452423095703	3287821.090638209
1.8137187957763672	3543673.020139123
1.817386507987976	3326717.0857420424
1.8210482597351074	3292451.202459804
1.8247040510177612	3799846.96721924
1.828354001045227	3566740.8027499565
1.8319982290267944	2932484.6926511573
1.8356364965438843	2598245.9020258626
1.8392690420150757	2582797.5038480074
1.8428958654403687	2897506.363667638
1.8465168476104736	2919967.312881999
1.8501322269439697	2803356.1297096517
1.8537418842315674	2746465.025219292
1.8573459386825562	2319652.6981623713
1.860944390296936	1879354.3992392758
1.864537239074707	1736016.011925309
1.8681244850158691	1706934.0887260486
1.871706247329712	1909059.1996213738
1.8752825260162354	2536568.9165559434
1.8788533210754395	3535777.7199286893
1.8824186325073242	4357457.801806557
1.8859784603118896	4572844.311372478
1.8895330429077148	4564031.533814178
1.8930821418762207	5021072.049242162
1.8966259956359863	5439211.697566925
1.9001644849777222	4958399.912718293
1.9036977291107178	4517567.614939072
1.9072256088256836	4845971.399832807
1.9107483625411987	4847971.702916161
1.9142658710479736	4515946.974675681
1.9177782535552979	4659983.331903092
1.9212853908538818	4536732.300884794
1.9247875213623047	4042895.7640295876
1.9282845258712769	3555576.840079073
1.9317764043807983	3093434.2855329453
1.9352631568908691	2755684.1624821
1.9387450218200684	2459851.0117420233
1.942221760749817	2630117.047819578
1.9456936120986938	3049523.6993156835
1.9491604566574097	3256385.1085871323
1.952622413635254	3248702.403424595
1.956079363822937	3099206.113635449
1.959531545639038	3210750.828873865
1.962978720664978	3480495.6359181567
1.966421127319336	3847250.67764563
1.9698586463928223	4166529.8604455953
1.9732913970947266	4179390.3792049545
1.9767193794250488	4344734.26457692
1.9801424741744995	4573458.747426758
1.9835609197616577	4855485.76670203
1.9869745969772339	5226698.915471277
1.990383505821228	5440164.539030714
1.9937876462936401	6106178.270129137
1.9971871376037598	6739787.469622951
2.000581979751587	7081929.237111618
2.003972291946411	7442537.323969844
2.007357597351074	7460823.175723826
2.0107386112213135	7843597.564795824
2.0141148567199707	8446409.645326966
2.017486572265625	8531966.199799355
2.0208535194396973	9383148.823197896
2.0242159366607666	10571195.839391425
2.027573823928833	10538248.253759634
2.0309269428253174	10705197.973952025
2.034275770187378	11804152.835257016
2.0376198291778564	12457560.556603868
2.040959596633911	12515593.913929332
2.044294595718384	13239616.873667005
2.0476250648498535	14441535.891030002
2.0509510040283203	14657696.690650025
2.054272413253784	14705867.64572554
2.057589530944824	15879145.85492123
2.0609018802642822	16485978.80743191
2.0642096996307373	16416958.697044969
2.0675129890441895	16882784.472081587
2.0708119869232178	17169714.575946588
2.074106216430664	17166238.142628387
2.0773961544036865	17226880.58794284
2.080681324005127	17387491.951771207
2.0839622020721436	17495259.753863264
2.087238311767578	17598419.55714656
2.090510129928589	17827738.430547312
2.0937774181365967	17815460.17280327
2.0970399379730225	17553900.57840356
2.1002981662750244	17133678.54856528
2.1035518646240234	16685606.466687543
2.1068007946014404	16272085.348098202
2.1100454330444336	15883984.01806998
2.1132853031158447	15790018.26528367
2.116520881652832	15427534.212369079
2.1197516918182373	14916068.108446646
2.1229779720306396	14823522.4025403
2.12619948387146	14665146.621322777
2.1294167041778564	14278341.130310789
2.132629156112671	14058890.618560208
2.1358368396759033	13771101.435599225
2.139039993286133	12902705.875417402
2.1422386169433594	11530846.929849373
2.145432472229004	10327144.35686032
2.1486217975616455	9954804.5020685
2.151806354522705	9935649.441919968
2.1549863815307617	9713596.818975829
2.1581614017486572	9257718.270468282
2.16133189201355	8628829.66510587
2.1644976139068604	8068655.968978641
2.167658567428589	7545645.621459074
2.1708147525787354	7197121.997150831
2.173966407775879	6894266.048236552
2.1771130561828613	6406302.057884627
2.1802549362182617	5974586.242144609
2.183391809463501	5476956.1743663605
2.1865241527557373	4865459.521426497
2.1896514892578125	4176465.5146273887
2.1927738189697266	3338941.672066752
2.1958916187286377	2383903.236943011
2.1990041732788086	1486315.9915566694
2.2021119594573975	961067.7851576934
2.2052149772644043	835683.7120093345
2.208312749862671	963385.9855334011
2.2114057540893555	1258545.7457835388
2.214493751525879	1594563.909002512
2.217576742172241	1827652.4280560727
2.2206547260284424	1898611.1862256806
2.2237277030944824	1821554.9506713056
2.2267956733703613	1649663.4376696544
2.2298583984375	1484289.1447381976
2.2329163551330566	1382758.6425334755
2.235969066619873	1306386.4624981666
2.2390167713165283	1184834.8094348102
2.2420592308044434	1048059.1451790514
2.2450966835021973	936998.6428138494
2.248128890991211	859929.7865006772
2.2511560916900635	821935.4631519546
2.254178285598755	802319.11517169
2.257194995880127	797122.7569573665
2.260206699371338	802256.4423081495
2.2632133960723877	821238.4354279496
2.266214609146118	833712.608406761
2.2692108154296875	826574.0365655625
2.2722020149230957	817491.8750929335
2.2751877307891846	796164.4404395297
2.278168201446533	773894.5816924087
2.2811436653137207	727562.620171999
2.284113883972168	635527.8436518182
2.287078857421875	559273.0179589641
2.290038824081421	503963.99615325953
2.2929933071136475	465453.5810813804
2.295942783355713	479739.31569708296
2.298887014389038	556250.4537618
2.301826238632202	649620.3083452833
2.304760217666626	790514.3501785876
2.3076889514923096	1096531.9321829278
2.310612440109253	1486926.9902305852
2.3135311603546143	1575477.6404910416
2.3164443969726562	1087886.2284895687
2.319352865219116	546637.5465355145
2.322256088256836	400611.83798705786
2.3251543045043945	391109.0857858908
2.328047275543213	391445.1169466737
2.330935478210449	435016.134027915
2.3338186740875244	487404.04660895566
2.3366971015930176	531197.4484586302
2.3395702838897705	563944.0073849281
2.3424389362335205	566089.0751412107
2.3453025817871094	530600.5974458194
2.348161458969116	516704.54809479037
2.351015567779541	556917.3451852762
2.353865146636963	614677.7270936668
2.3567099571228027	679745.7522842445
2.3595502376556396	779775.0162426591
2.3623859882354736	899836.1052560112
2.3652172088623047	983737.9610590461
2.368043899536133	912807.6864216826
2.370866537094116	640242.280711062
2.3736846446990967	471966.3336803743
2.3764986991882324	499886.0392153163
2.3793084621429443	500427.3740497169
2.3821144104003906	472204.71786437975
2.384916305541992	552405.5634893936
2.387714147567749	729849.3727105566
2.3905084133148193	814285.6037200111
2.393299102783203	807066.7053801722
2.3960859775543213	854829.0017802466
2.398869514465332	967918.9010886524
2.4016497135162354	1095103.4207847659
2.4044265747070312	1218851.403457863
2.407200336456299	1273746.956062937
2.409970998764038	1324773.9526267392
2.4127390384674072	1430087.0542228564
2.415503978729248	1414289.1248889174
2.418266534805298	1332448.800074698
2.4210267066955566	1305842.7922466483
2.4237842559814453	1204011.9675285013
2.426539897918701	1134466.9979067605
2.429293394088745	1273552.3486475875
2.4320452213287354	1426248.165255778
2.4347951412200928	1404133.913224527
2.4375438690185547	1482555.1090723798
2.440291166305542	1688008.1170502708
2.443037271499634	1705043.877642543
2.445782423019409	1634042.9546861805
2.4485268592834473	1634511.0919239034
2.451270818710327	1649966.8814352145
2.454014539718628	1716716.3675311394
2.4567582607269287	1911621.4323492232
2.4595019817352295	2029804.9144165558
2.4622461795806885	2158317.9810258606
2.4649908542633057	2340733.3388181515
2.4677364826202393	2182297.3489008215
2.4704833030700684	1921225.9548902104
2.473231554031372	1854955.5012700642
2.4759814739227295	1954062.7358290295
2.4787333011627197	2067355.4078366752
2.481487512588501	2098262.2378374464
