#wavelength	surface flux
0.6450077295303345	62736.46803066938
0.6472567915916443	100649.25477269905
0.6494921445846558	135656.8041770078
0.6517150402069092	161713.79974591848
0.6539263725280762	190139.89368647666
0.6561272740364075	221670.33872412037
0.6583186388015747	256291.37582959182
0.6605015397071838	293661.3734751431
0.6626768708229065	332433.648783404
0.6648455858230591	367761.7853098848
0.6670085787773132	375967.50019207125
0.6691668033599854	324755.92884161643
0.6713210344314575	304409.3763006565
0.6734722256660461	421133.89987575694
0.6756211519241333	571402.4349118411
0.6777685880661011	663480.0670226183
0.6799154281616211	727876.6664476141
0.6820623278617859	783073.8375639943
0.6842101216316223	831840.7083236829
0.6863595843315125	873529.2354636652
0.688511312007904	905335.0000778277
0.6906660795211792	921436.050052444
0.6928245425224304	925689.5007584061
0.6949873566627502	936140.1151973739
0.6971551775932312	950163.1268008543
0.6993286609649658	947932.9227920559
0.7015084028244019	929946.6153136315
0.7036949396133423	904255.4436467526
0.7058889269828796	871659.2497716405
0.7080909013748169	833170.6103895738
0.710301399230957	789997.249082009
0.712520956993103	741999.2000812195
0.7147500514984131	686189.3213401347
0.7169892191886902	624784.7136692395
0.7192389369010925	570326.2879183406
0.7214996814727783	522182.286079724
0.723771870136261	471023.8732370216
0.7260559797286987	419231.64887598454
0.7283523678779602	371202.24505176547
0.7306615710258484	326434.21373044536
0.7329838871955872	284881.10149530985
0.7353196740150452	246138.43743454322
0.7376693487167358	208939.4891421325
0.7400332689285278	174264.0531715079
0.7424117922782898	142813.413027627
0.7448052167892456	114758.20097012428
0.7472138404846191	90031.34373965545
0.7496379613876343	68517.38857102761
0.7520779371261597	50290.74598517807
0.7545340061187744	35368.36603565058
0.7570064663887024	23644.199471409323
0.7594954967498779	14869.359008316138
0.7620013952255249	8554.938726204216
0.7645244002342224	4199.835572305806
0.7670646905899048	1948.935195147952
0.7696225643157959	2164.572933543504
0.7721980810165405	5332.888729936385
0.7747915983200073	11641.796688499597
0.7774031162261963	19767.9884836619
0.7800329327583313	31838.986399631845
0.7826811671257019	54526.56735092495
0.7853479981422424	87028.88842422205
0.7880334854125977	125663.79778839921
0.7907378077507019	162600.32888514854
0.7934610247612	188661.09941384188
0.7962033748626709	249752.79749231102
0.7989648580551147	368186.28552523727
0.801745593547821	494438.68611746986
0.8045456409454346	618097.9655922594
0.8073651194572449	753299.292224439
0.8102040886878967	899332.8705274325
0.8130625486373901	1062887.2055450925
0.8159406185150146	1250761.07130614
0.8188382983207703	1465619.999872148
0.8217556476593018	1728932.6457084648
0.8246926665306091	2046267.8683857024
0.8276493549346924	2390087.12614225
0.8306257724761963	2750738.586972418
0.8336219191551208	3145206.3596311486
0.8366377949714661	3582877.5772105404
0.8396733403205872	4066789.9209472514
0.8427285552024841	4600472.46732493
0.8458034992218018	5129173.373915854
0.8488980531692505	5328486.824370928
0.8520121574401855	5413384.751447781
0.8551458716392517	6409684.861704302
0.8582990765571594	7535014.9794146875
0.8614717125892639	7348549.16554813
0.8646637797355652	6945926.322302452
0.8678751587867737	7405623.752937136
0.8711057901382446	8058412.945421228
0.8743556141853333	8778683.406767482
0.87762451171875	9723611.098321252
0.8809124231338501	10580805.24548388
0.8842192888259888	11457213.116241613
0.8875449895858765	12294708.57282636
0.8908893465995789	12192393.280273067
0.894252359867096	11803691.39989635
0.8976338505744934	13888257.479353571
0.9010337591171265	17746306.068982936
0.9044519662857056	20966869.962772455
0.9078882932662964	23322561.68096447
0.9113426208496094	25163475.729792528
0.914814829826355	26849733.082658615
0.9183048605918884	28727259.736187622
0.9218124747276306	29860617.20813808
0.925337553024292	26984148.420824837
0.9288799166679382	21175626.758529488
0.9324395060539246	18980909.6674583
0.9360161423683167	21764786.07381441
0.9396095871925354	25954097.592260618
0.943219780921936	28686791.253092233
0.9468464851379395	29533224.284891192
0.9504896402359009	29919519.453318667
0.9541489481925964	29931089.853712264
0.9578243494033813	29471796.396563727
0.9615156054496765	30005941.27538095
0.9652225375175476	32657230.77326797
0.9689450263977051	36331742.652958594
0.9726828336715698	39369224.61291208
0.9764357805252075	42309642.761345215
0.9802037477493286	45656550.24807736
0.983986496925354	48851442.97809731
0.9877838492393494	50651093.69581789
0.9915955662727356	49629874.250304885
0.9954215884208679	46240831.71303088
0.9992615580558777	40124480.55817066
1.0031154155731201	36104612.48085723
1.0069829225540161	38195441.01259035
1.0108637809753418	43211384.82690994
1.0147579908370972	49463198.55813515
1.018665075302124	56257536.41387897
1.022585153579712	62101005.36423022
1.0265177488327026	66297317.9724927
1.0304628610610962	71242256.18849696
1.0344202518463135	78213079.41266322
1.0383895635604858	84982520.64151871
1.0423706769943237	89802922.46697353
1.0463634729385376	92693187.0822984
1.0503677129745483	93786548.16707814
1.0543830394744873	94628085.41033952
1.058409333229065	97013628.35925338
1.0624464750289917	101171938.49286221
1.0664942264556885	106485461.14435492
1.0705522298812866	112388487.83677423
1.0746204853057861	119082241.47451799
1.0786986351013184	125545252.70716572
1.0827864408493042	129355893.07980254
1.086883783340454	125246967.8196399
1.0909905433654785	109385540.50037655
1.0951062440872192	87991591.81737582
1.0992310047149658	69853566.8618527
1.10336434841156	55544937.24913069
1.1075061559677124	43557267.26126846
1.1116561889648438	34740748.98107177
1.115814208984375	30685328.541014913
1.1199802160263062	31045316.86453189
1.124153733253479	34374810.35608037
1.1283347606658936	35871232.241428025
1.1325229406356812	30377024.692876108
1.1367181539535522	26303358.832497943
1.1409201622009277	29780694.700546872
1.145128846168518	35755484.98332098
1.1493438482284546	39547522.5485719
1.1535650491714478	38884119.19170315
1.1577922105789185	37187472.2219201
1.1620250940322876	35876508.19610878
1.1662636995315552	33070636.325058673
1.170507550239563	31594081.295986228
1.174756646156311	31770237.451025005
1.1790107488632202	34782468.19370341
1.1832695007324219	44196723.10411643
1.1875330209732056	55708819.216273
1.191800832748413	66115903.156151466
1.1960728168487549	76031848.35773128
1.2003488540649414	85012441.44984865
1.2046287059783936	94629777.69463806
1.2089121341705322	104267686.89900954
1.2131990194320679	113314732.02306703
1.2174891233444214	122579982.53899908
1.2217823266983032	131213655.20245822
1.2260783910751343	140373516.75906503
1.230377197265625	148977474.98118523
1.2346785068511963	153456961.28480506
1.238982081413269	147776574.8033118
1.2432878017425537	136467799.403061
1.2475954294204712	130185649.78945255
1.2519049644470215	126024251.1758202
1.256216049194336	141771185.19495526
1.2605286836624146	170257873.7805754
1.2648425102233887	181903831.98864484
1.2691574096679688	183795552.2309731
1.2734732627868652	183165352.06056774
1.2777899503707886	181362004.41016248
1.2821072340011597	176857059.76721656
1.2864248752593994	167479464.37548256
1.2907428741455078	159783099.94387248
1.2950609922409058	157466270.06011605
1.2993791103363037	155272462.31569365
1.303696870803833	151241145.36282408
1.3080145120620728	145130222.25125927
1.3123314380645752	135113754.51951182
1.3166478872299194	124393477.08989921
1.3209635019302368	113113750.087356
1.3252781629562378	93408849.65080851
1.3295916318893433	62043441.07624948
1.3339040279388428	30548254.95110684
1.3382149934768677	12894534.881971225
1.3425244092941284	7312259.384325885
1.3468321561813354	5369556.775079109
1.3511382341384888	4132260.089212507
1.3554422855377197	3351888.8437129804
1.3597444295883179	3320314.1223903275
1.3640443086624146	4035051.615921594
1.3683418035507202	4580360.38761179
1.3726370334625244	4928294.939662108
1.3769296407699585	5694085.425323295
1.381219506263733	5907805.268509206
1.3855066299438477	5534639.776790047
1.3897908926010132	5349637.524545393
1.3940720558166504	5057088.590239093
1.3983501195907593	4823948.29666584
1.4026249647140503	4914938.792198515
1.4068963527679443	4773166.09226794
1.4111642837524414	4487913.617050258
1.4154287576675415	4533234.938587702
1.419689416885376	4507879.583880609
1.4239463806152344	4485166.091488416
1.4281994104385376	5013870.607369963
1.4324485063552856	5719027.339759509
1.436693549156189	6171144.347215379
1.440934419631958	6575653.589233362
1.4451709985733032	7267842.362821694
1.449403166770935	8859320.261466103
1.453631043434143	10799494.901126852
1.4578542709350586	12080328.815502964
1.4620729684829712	12572296.064995112
1.4662868976593018	12592561.070100702
1.4704961776733398	12696029.491262034
1.4747005701065063	13476554.67660581
1.4788999557495117	14652853.63108261
1.4830944538116455	15489177.663885891
1.4872838258743286	16330578.704575535
1.491468071937561	17406516.307731148
1.4956470727920532	18601376.899117723
1.4998208284378052	20038982.46105798
1.5039892196655273	21780784.87897781
1.5081522464752197	23987174.9264013
1.5123097896575928	26520842.759327926
1.5164618492126465	28434348.80245148
1.5206083059310913	30305822.56076882
1.5247491598129272	32704891.105775345
1.5288842916488647	35180745.32352424
1.5330137014389038	38056068.64392397
1.5371372699737549	40654931.42166693
1.541254997253418	42831357.06867018
1.545366883277893	45918095.14157755
1.5494728088378906	48809320.83383935
1.5535727739334106	50078714.896259464
1.5576666593551636	51502433.03083169
1.561754584312439	55607213.495274834
1.5658363103866577	61153992.295096695
1.5699119567871094	64637223.95953815
1.5739814043045044	66295636.98356232
1.5780447721481323	67900006.54596245
1.582101821899414	69671630.44320858
1.5861525535583496	70953556.24391563
1.5901970863342285	70907846.29309464
1.5942351818084717	70266699.68043326
1.5982669591903687	69181024.36625935
1.6022924184799194	66339015.688505545
1.606311559677124	62631154.611459695
1.6103241443634033	59593693.312258534
1.6143304109573364	56247297.25181638
1.6183301210403442	52855895.49089752
1.6223233938217163	51901373.86686795
1.6263102293014526	52906330.87088187
1.6302905082702637	54264947.45189127
1.634264349937439	57156937.74437644
1.638231635093689	61768853.81132076
1.6421923637390137	63725720.41477624
1.646146535873413	61560713.34046524
1.6500942707061768	60592044.337556176
1.6540353298187256	58707409.12966258
1.6579699516296387	55760978.62008309
1.661897897720337	52941481.51906898
1.6658192873001099	37361577.03277802
1.6697341203689575	23333767.009511933
1.6736423969268799	30990282.182899617
1.677544116973877	42229045.62623521
1.6814392805099487	43612202.15686968
1.6853278875350952	40416828.97406446
1.6892099380493164	36399494.1080263
1.6930854320526123	32187177.07780837
1.696954369544983	28358253.595242847
1.7008168697357178	26095233.759276826
1.7046726942062378	26147985.399160173
1.708522081375122	28057379.225237638
1.712364912033081	29295387.24932025
1.7162011861801147	29470747.70904545
1.7200311422348022	29736073.375225328
1.723854422569275	28561267.75319947
1.7276713848114014	26542664.80658515
1.731481909751892	24907005.446523473
1.7352858781814575	23745261.209559046
1.7390835285186768	23603248.286202963
1.7428747415542603	23808868.986472853
1.7466596364974976	23446182.431851815
1.7504380941390991	22474829.473623604
1.7542102336883545	20531200.803037163
1.7579760551452637	18644874.090493217
1.7617355585098267	17799806.660293147
1.7654887437820435	16679665.517406275
1.7692357301712036	14925737.257646447
1.7729763984680176	13481821.472429065
1.776710867881775	12828918.403081127
1.7804391384124756	12607875.855645373
1.7841613292694092	11638481.13259702
1.7878772020339966	10575660.144129576
1.7915871143341064	9597237.013497265
1.7952908277511597	9032989.034145668
1.7989884614944458	9087128.40439006
1.8026801347732544	8220497.6742813885
1.806365728378296	7661706.564818431
1.8100452423095703	8116029.446122413
1.8137187957763672	8698089.959526055
1.817386507987976	8247623.753294813
1.8210482597351074	7968192.102379409
1.8247040510177612	8921138.024396569
1.828354001045227	8675491.0448839
1.8319982290267944	7590215.3777603675
1.8356364965438843	6981765.382428594
1.8392690420150757	6920073.092563297
1.8428958654403687	7289864.679426655
1.8465168476104736	7105281.326077336
1.8501322269439697	6865112.481985072
1.8537418842315674	6696800.7404124895
1.8573459386825562	5698679.2999633085
1.860944390296936	4778064.346065303
1.864537239074707	4617552.285774145
1.8681244850158691	4756000.406899845
1.871706247329712	5267295.940466715
1.8752825260162354	6428207.4643813055
1.8788533210754395	8192885.80051561
1.8824186325073242	9758225.73576766
1.8859784603118896	10313512.879710186
1.8895330429077148	10353158.568234036
1.8930821418762207	11136611.940533146
1.8966259956359863	12010248.063232029
1.9001644849777222	11498972.797885252
1.9036977291107178	10874907.707747089
1.9072256088256836	11459255.613024974
1.9107483625411987	11550307.2313237
1.9142658710479736	11050510.129340012
1.9177782535552979	11274441.033719262
1.9212853908538818	10913991.089258926
1.9247875213623047	10002883.912407052
1.9282845258712769	9170937.776490375
1.9317764043807983	8247651.789318875
1.9352631568908691	7438619.599544698
1.9387450218200684	6617050.090083385
1.942221760749817	6818999.939672633
1.9456936120986938	7750537.4725560425
1.9491604566574097	8285238.673400912
1.952622413635254	8262931.364206761
1.956079363822937	7840336.3863220215
1.959531545639038	7963597.847919106
1.962978720664978	8463183.894083275
1.966421127319336	9221763.665751263
1.9698586463928223	9913812.553571692
1.9732913970947266	9828017.894263012
1.9767193794250488	9940644.030945238
1.9801424741744995	10321906.030996941
1.9835609197616577	10883179.074641977
1.9869745969772339	11520850.463390343
1.990383505821228	11691745.37804321
1.9937876462936401	12685227.816089913
1.9971871376037598	13687246.65996083
2.000581979751587	14236281.192713153
2.003972291946411	15009647.377037028
2.007357597351074	15044804.333713898
2.0107386112213135	15583283.11279962
2.0141148567199707	16778918.69051346
2.017486572265625	17116165.80537432
2.0208535194396973	18529345.6682704
2.0242159366607666	20367037.55854336
2.027573823928833	20135099.742018364
2.0309269428253174	20357476.44434854
2.034275770187378	22166877.71439889
2.0376198291778564	23263555.403465178
2.040959596633911	23407073.03124127
2.044294595718384	24390306.121827714
2.0476250648498535	26048717.93620265
2.0509510040283203	26370503.337513614
2.054272413253784	26488221.58011013
2.057589530944824	28337184.729353357
2.0609018802642822	29243331.1075829
2.0642096996307373	29056692.165763766
2.0675129890441895	29829030.44035806
2.0708119869232178	30279163.3545393
2.074106216430664	30184105.682951674
2.0773961544036865	30340829.52431729
2.080681324005127	30698080.508385208
2.0839622020721436	30930881.73132588
2.087238311767578	31172797.8658115
2.090510129928589	31593490.010968402
2.0937774181365967	31676734.206331827
2.0970399379730225	31451727.1786075
2.1002981662750244	31025740.370727725
2.1035518646240234	30496159.336858124
2.1068007946014404	29994057.36181771
2.1100454330444336	29601793.62341478
2.1132853031158447	29656325.896766152
2.116520881652832	29233573.421946205
2.1197516918182373	28580886.215840477
2.1229779720306396	28601288.334648963
2.12619948387146	28440106.644286543
2.1294167041778564	27833312.61271328
2.132629156112671	27542926.24424742
2.1358368396759033	27175620.700775266
2.139039993286133	25895251.89994992
2.1422386169433594	23967904.2072317
2.145432472229004	22336831.747696754
2.1486217975616455	21773253.172435258
2.151806354522705	21679981.596105695
2.1549863815307617	21396680.507308617
2.1581614017486572	20753381.26989087
2.16133189201355	19812020.792215053
2.1644976139068604	18968624.26731967
2.167658567428589	18098406.169020854
2.1708147525787354	17396800.652120028
2.173966407775879	16675673.285744783
2.1771130561828613	15645799.208931658
2.1802549362182617	14760069.520348683
2.183391809463501	13734450.040117571
2.1865241527557373	12436204.132154338
2.1896514892578125	11007985.125612002
2.1927738189697266	9312313.179618891
2.1958916187286377	7174123.333135066
2.1990041732788086	4929967.944180543
2.2021119594573975	3453417.6112344787
2.2052149772644043	2926242.2768313834
2.208312749862671	3136462.648137453
2.2114057540893555	3914736.6614832096
2.214493751525879	4870706.811370053
2.217576742172241	5534025.177308806
2.2206547260284424	5763892.507920865
2.2237277030944824	5637039.9906162685
2.2267956733703613	5209206.592838153
2.2298583984375	4778691.076507632
2.2329163551330566	4513310.6901285695
2.235969066619873	4294868.520468788
2.2390167713165283	3999307.0731697083
2.2420592308044434	3624525.369806892
2.2450966835021973	3285159.1316479603
2.248128890991211	3093165.1099915854
2.2511560916900635	3004943.332078007
2.254178285598755	2957532.1992548406
2.257194995880127	2935743.1386991725
2.260206699371338	2910292.295796463
2.2632133960723877	2934067.814654396
2.266214609146118	2933530.818290215
2.2692108154296875	2868453.430637446
2.2722020149230957	2827513.4541813047
2.2751877307891846	2786695.235582458
2.278168201446533	2704898.185433801
2.2811436653137207	2514348.5428065583
2.284113883972168	2235191.1543105324
2.287078857421875	2021401.9434020445
2.290038824081421	1836195.250121433
2.2929933071136475	1695490.29370556
2.295942783355713	1744170.4011796124
2.298887014389038	1997002.3090420873
2.301826238632202	2296025.8250211114
2.304760217666626	2720120.4702334325
2.3076889514923096	3566006.7402199954
2.310612440109253	4526017.508649991
2.3135311603546143	4645055.682962862
2.3164443969726562	3335863.5255811955
2.319352865219116	1907902.3238475823
2.322256088256836	1479922.417526435
2.3251543045043945	1403321.8894828502
2.328047275543213	1379373.0908060013
2.330935478210449	1494961.528921241
2.3338186740875244	1635711.9910335129
2.3366971015930176	1754372.3274841132
2.3395702838897705	1853966.9027691735
2.3424389362335205	1880137.7813058873
2.3453025817871094	1811865.9291690674
2.348161458969116	1791540.3597167358
2.351015567779541	1904978.5436473754
2.353865146636963	2080376.4583724965
2.3567099571228027	2269539.5957065877
2.3595502376556396	2533430.5757566206
2.3623859882354736	2854933.5688412027
2.3652172088623047	3095085.1307421527
2.368043899536133	2899672.4800192593
2.370866537094116	2116680.568288292
2.3736846446990967	1636674.3028231512
2.3764986991882324	1696527.6910010588
2.3793084621429443	1649766.4621341596
2.3821144104003906	1535076.2878139706
2.384916305541992	1740695.9871663349
2.387714147567749	2229305.592682031
2.3905084133148193	2477897.3372042063
2.393299102783203	2485835.2757525416
2.3960859775543213	2641140.6738460185
2.398869514465332	2940071.9201181186
2.4016497135162354	3230892.08773599
2.4044265747070312	3506445.5849258695
2.407200336456299	3620630.428576662
2.409970998764038	3712426.43670209
2.4127390384674072	3949749.286170378
2.415503978729248	3932708.3512751227
2.418266534805298	3780838.09349421
2.4210267066955566	3758817.838283323
2.4237842559814453	3529292.0124358437
2.426539897918701	3328028.5105646146
2.429293394088745	3601099.170557624
2.4320452213287354	3941361.0699450294
2.4347951412200928	3855427.0437168437
2.4375438690185547	3979339.260493563
2.440291166305542	4408533.913017248
2.443037271499634	4385563.289221872
2.445782423019409	4188922.204688117
2.4485268592834473	4191744.0074540577
2.451270818710327	4181007.352324311
2.454014539718628	4262379.478654637
2.4567582607269287	4705401.22496296
2.4595019817352295	4929519.0628158515
2.4622461795806885	5147635.588248525
2.4649908542633057	5502631.453145198
2.4677364826202393	5066426.905470807
2.4704833030700684	4457830.828494444
2.473231554031372	4304694.750641802
2.4759814739227295	4512914.595280068
2.4787333011627197	4757701.061095274
2.481487512588501	4810615.673235442
