#wavelength	surface flux
0.6450077295303345	1117.0076989875054
0.6472567915916443	1806.037134973788
0.6494921445846558	2476.693295532482
0.6517150402069092	3014.034041575937
0.6539263725280762	3616.07202569565
0.6561272740364075	4295.738244964125
0.6583186388015747	5066.345320061155
0.6605015397071838	5944.5084984563455
0.6626768708229065	6918.489428178539
0.6648455858230591	7970.225241311154
0.6670085787773132	8860.63317967627
0.6691668033599854	8998.348919065518
0.6713210344314575	9455.642923417603
0.6734722256660461	11651.987335349895
0.6756211519241333	14029.244630065394
0.6777685880661011	15529.290604205706
0.6799154281616211	16772.343218319013
0.6820623278617859	17894.6276362476
0.6842101216316223	18872.93877722427
0.6863595843315125	19660.26118857317
0.688511312007904	20127.92406069266
0.6906660795211792	19929.648736884184
0.6928245425224304	19292.32598052443
0.6949873566627502	19222.417940214807
0.6971551775932312	19516.922620841513
0.6993286609649658	19159.868670509048
0.7015084028244019	18264.716782584423
0.7036949396133423	17362.169770689274
0.7058889269828796	16505.363372481996
0.7080909013748169	15578.665599551781
0.710301399230957	14540.428812215707
0.712520956993103	13373.003735236232
0.7147500514984131	11863.825826480504
0.7169892191886902	10049.86038092799
0.7192389369010925	8695.18647073096
0.7214996814727783	7887.113133475225
0.723771870136261	7020.216087574865
0.7260559797286987	6144.249331133779
0.7283523678779602	5494.224884974187
0.7306615710258484	5009.76212839319
0.7329838871955872	4683.642222013396
0.7353196740150452	4423.923609403547
0.7376693487167358	4089.237557970783
0.7400332689285278	3746.642907473011
0.7424117922782898	3436.614794475208
0.7448052167892456	3150.4513904574983
0.7472138404846191	2865.5141114365324
0.7496379613876343	2564.5240650398828
0.7520779371261597	2251.3843892413925
0.7545340061187744	1926.5497234283646
0.7570064663887024	1586.6850018993716
0.7594954967498779	1227.7911566623798
0.7620013952255249	851.7238591156993
0.7645244002342224	487.7392840079814
0.7670646905899048	255.12423969478743
0.7696225643157959	282.6357424367291
0.7721980810165405	619.8004960565614
0.7747915983200073	1179.6879904584687
0.7774031162261963	1730.9371264418112
0.7800329327583313	2293.6315968835934
0.7826811671257019	3182.760285534954
0.7853479981422424	4289.513038991248
0.7880334854125977	5383.778645011068
0.7907378077507019	6316.52570068419
0.7934610247612	6872.680208279023
0.7962033748626709	8208.522357345975
0.7989648580551147	10884.294070840613
0.801745593547821	13679.098170357829
0.8045456409454346	16377.760878245159
0.8073651194572449	19123.291042619618
0.8102040886878967	21551.522238828416
0.8130625486373901	24272.01258407136
0.8159406185150146	28989.509138735557
0.8188382983207703	35728.22030727681
0.8217556476593018	42532.72165017818
0.8246926665306091	50707.656719304
0.8276493549346924	61219.83301403726
0.8306257724761963	72364.3782858079
0.8336219191551208	84796.08714674939
0.8366377949714661	99513.53602673522
0.8396733403205872	117101.16264771119
0.8427285552024841	138510.1706306256
0.8458034992218018	162960.23971451554
0.8488980531692505	180375.88319858644
0.8520121574401855	195173.7275088548
0.8551458716392517	237031.03420437535
0.8582990765571594	290143.74266250164
0.8614717125892639	326808.0587036529
0.8646637797355652	364473.4919169661
0.8678751587867737	416734.9390674772
0.8711057901382446	477353.08441047376
0.8743556141853333	533841.8454198443
0.87762451171875	561553.593351551
0.8809124231338501	519958.21260898357
0.8842192888259888	437542.77487871144
0.8875449895858765	382951.68061468186
0.8908893465995789	343273.69411453605
0.894252359867096	322170.3083572535
0.8976338505744934	424444.74130387866
0.9010337591171265	678951.7359384137
0.9044519662857056	970858.0701302678
0.9078882932662964	1149060.9236568366
0.9113426208496094	1183636.509106497
0.914814829826355	1163779.3480293928
0.9183048605918884	1211111.3134417224
0.9218124747276306	1264319.9126203137
0.925337553024292	1005271.7463327488
0.9288799166679382	528511.2331158338
0.9324395060539246	287077.74280238466
0.9360161423683167	338147.8694500386
0.9396095871925354	481544.47228505806
0.943219780921936	565281.8584033941
0.9468464851379395	564276.6401553513
0.9504896402359009	550147.7914725104
0.9541489481925964	530389.9320066394
0.9578243494033813	501405.21716542647
0.9615156054496765	532357.6718141977
0.9652225375175476	685900.1282958777
0.9689450263977051	887921.7627221933
0.9726828336715698	1006647.1342594173
0.9764357805252075	1085925.1495994746
0.9802037477493286	1175251.2460905197
0.983986496925354	1229997.590458331
0.9877838492393494	1327889.2782357694
0.9915955662727356	1565304.6265342361
0.9954215884208679	1943917.510956868
0.9992615580558777	2477091.8951422977
1.0031154155731201	3167257.9734063973
1.0069829225540161	3842688.845905362
1.0108637809753418	4383616.1610814305
1.0147579908370972	4862161.926603626
1.018665075302124	5305679.465477743
1.022585153579712	5802848.051602228
1.0265177488327026	6442121.489675456
1.0304628610610962	7049155.461507335
1.0344202518463135	7618893.228804649
1.0383895635604858	8387453.22086745
1.0423706769943237	9213520.008874182
1.0463634729385376	9837129.791102992
1.0503677129745483	10387125.393766321
1.0543830394744873	11011062.226649553
1.058409333229065	11491785.694315786
1.0624464750289917	11770609.770687904
1.0664942264556885	11849213.986698078
1.0705522298812866	11747242.795161318
1.0746204853057861	11781226.964190643
1.0786986351013184	11802882.79187792
1.0827864408493042	11305354.762341581
1.086883783340454	9588434.926885081
1.0909905433654785	6659141.41867228
1.0951062440872192	3951620.5645356425
1.0992310047149658	2361461.160402039
1.10336434841156	1471042.751830707
1.1075061559677124	894375.2557379841
1.1116561889648438	537358.5007272569
1.115814208984375	348206.0847214596
1.1199802160263062	293447.5796840896
1.124153733253479	304292.67263696267
1.1283347606658936	325255.28070341056
1.1325229406356812	290092.1249304533
1.1367181539535522	325966.02171027346
1.1409201622009277	456943.82725356764
1.145128846168518	477199.7307317718
1.1493438482284546	389928.9582829465
1.1535650491714478	296089.87584488234
1.1577922105789185	250516.3585873634
1.1620250940322876	243183.36626998178
1.1662636995315552	277319.08553445316
1.170507550239563	422220.1648787227
1.174756646156311	647760.5874795328
1.1790107488632202	959285.9244057598
1.1832695007324219	1365407.9286766734
1.1875330209732056	1779611.9437601543
1.191800832748413	2342334.144404196
1.1960728168487549	3108718.9914913476
1.2003488540649414	3888752.581961137
1.2046287059783936	4734662.714108746
1.2089121341705322	5523164.457100032
1.2131990194320679	6196111.232842435
1.2174891233444214	6971536.130703245
1.2217823266983032	7871702.667329004
1.2260783910751343	9004180.086516457
1.230377197265625	10311882.502020635
1.2346785068511963	11565809.141452406
1.238982081413269	12632048.427827343
1.2432878017425537	13569232.537586067
1.2475954294204712	14372406.80749912
1.2519049644470215	14777858.357511796
1.256216049194336	15862924.27534629
1.2605286836624146	17207578.762451116
1.2648425102233887	17042931.853926707
1.2691574096679688	15839712.764839087
1.2734732627868652	14363577.747389017
1.2777899503707886	12902527.828098992
1.2821072340011597	11274113.038745966
1.2864248752593994	9392498.646030227
1.2907428741455078	8043757.260293475
1.2950609922409058	7536344.864187944
1.2993791103363037	7108233.852754897
1.303696870803833	6381594.946223211
1.3080145120620728	5619919.737982651
1.3123314380645752	4740585.45652943
1.3166478872299194	4072062.020245398
1.3209635019302368	3816163.6135193063
1.3252781629562378	3189059.0349448314
1.3295916318893433	1913522.3979787389
1.3339040279388428	740709.112440184
1.3382149934768677	220937.3303635568
1.3425244092941284	87038.1345949385
1.3468321561813354	38243.11672654807
1.3511382341384888	19457.105385218878
1.3554422855377197	10615.923764169282
1.3597444295883179	8149.8791388942445
1.3640443086624146	11148.756078996157
1.3683418035507202	14467.2214848069
1.3726370334625244	19973.074586488543
1.3769296407699585	28346.30572187587
1.381219506263733	27214.17650447493
1.3855066299438477	21113.592762394463
1.3897908926010132	21093.56560665439
1.3940720558166504	22014.02032087525
1.3983501195907593	21952.29493196629
1.4026249647140503	22998.29088057876
1.4068963527679443	23541.03518974219
1.4111642837524414	25581.94590820562
1.4154287576675415	29483.934844774973
1.419689416885376	30140.334742965624
1.4239463806152344	34604.89577239645
1.4281994104385376	53313.0282560897
1.4324485063552856	70184.69413085074
1.436693549156189	75633.22084476757
1.440934419631958	87211.66806621279
1.4451709985733032	116300.54581443348
1.449403166770935	172311.22250135048
1.453631043434143	232713.83798640143
1.4578542709350586	264543.11128242925
1.4620729684829712	258292.2562073222
1.4662868976593018	221441.937175511
1.4704961776733398	171772.48993320472
1.4747005701065063	148196.11526621418
1.4788999557495117	168023.41280454156
1.4830944538116455	192903.39200786324
1.4872838258743286	206250.6201707978
1.491468071937561	216564.32465380596
1.4956470727920532	248636.59924002815
1.4998208284378052	310298.53315036447
1.5039892196655273	342852.49069039244
1.5081522464752197	326525.2002957381
1.5123097896575928	301745.9886207991
1.5164618492126465	333484.4770516288
1.5206083059310913	462980.7942597955
1.5247491598129272	615828.2153914596
1.5288842916488647	758311.8620413598
1.5330137014389038	910947.9641539684
1.5371372699737549	1036445.6820564845
1.541254997253418	1152792.9811809713
1.545366883277893	1317577.1772462327
1.5494728088378906	1493924.8525275725
1.5535727739334106	1682853.428299288
1.5576666593551636	2026139.0042994404
1.561754584312439	2644010.797053802
1.5658363103866577	3364615.2856075014
1.5699119567871094	3763286.7536354624
1.5739814043045044	3892544.411164059
1.5780447721481323	4142628.8754267544
1.582101821899414	4412000.763883573
1.5861525535583496	4431666.8848346155
1.5901970863342285	4186943.912318434
1.5942351818084717	3822195.413827847
1.5982669591903687	3394234.3630117276
1.6022924184799194	2835495.3675925797
1.606311559677124	2270341.1054755985
1.6103241443634033	1836445.9034733598
1.6143304109573364	1389608.522912078
1.6183301210403442	976088.6806491928
1.6223233938217163	822462.5378792095
1.6263102293014526	854572.4017032252
1.6302905082702637	938131.6224139294
1.634264349937439	1110326.065430526
1.638231635093689	1363322.9573132594
1.6421923637390137	1412815.8610197227
1.646146535873413	1144018.2388803908
1.6500942707061768	1071379.9544662593
1.6540353298187256	1139479.2998597857
1.6579699516296387	1052954.6101366656
1.661897897720337	1019998.45553332
1.6658192873001099	685637.0291956034
1.6697341203689575	255907.90778563355
1.6736423969268799	269044.0885835939
1.677544116973877	381348.5569810893
1.6814392805099487	357552.72269849025
1.6853278875350952	309538.0407114731
1.6892099380493164	257335.67404017865
1.6930854320526123	185154.58151353762
1.696954369544983	131436.70741724473
1.7008168697357178	103863.09941003621
1.7046726942062378	113631.65746374048
1.708522081375122	174689.99100255512
1.712364912033081	249414.78696285002
1.7162011861801147	334423.73637988325
1.7200311422348022	399990.7308502636
1.723854422569275	372340.4663945635
1.7276713848114014	329326.96561755193
1.731481909751892	322636.4718551917
1.7352858781814575	340714.1222826666
1.7390835285186768	411377.944922371
1.7428747415542603	499666.3069754342
1.7466596364974976	561139.8662941715
1.7504380941390991	564870.7506341891
1.7542102336883545	480090.1372496163
1.7579760551452637	380032.0989262217
1.7617355585098267	338190.6597883812
1.7654887437820435	320651.0735320994
1.7692357301712036	285416.0291347573
1.7729763984680176	246190.59398067743
1.776710867881775	256304.6641606393
1.7804391384124756	290905.1029098346
1.7841613292694092	267257.31581729924
1.7878772020339966	217999.48571753356
1.7915871143341064	170151.88224956483
1.7952908277511597	150033.80133683325
1.7989884614944458	168254.0303063086
1.8026801347732544	143829.67195084234
1.806365728378296	117851.02462239972
1.8100452423095703	126182.07763140011
1.8137187957763672	129158.98865482047
1.817386507987976	116609.11446069111
1.8210482597351074	134715.04298789098
1.8247040510177612	171007.07925184447
1.828354001045227	135235.8580020793
1.8319982290267944	81347.23394324843
1.8356364965438843	62188.14077100785
1.8392690420150757	64821.77126598314
1.8428958654403687	101581.54538172386
1.8465168476104736	120809.71454145387
1.8501322269439697	113706.37599147056
1.8537418842315674	111057.40475986766
1.8573459386825562	93979.1710659135
1.860944390296936	71578.21915975907
1.864537239074707	56205.246527070594
1.8681244850158691	42040.508110329654
1.871706247329712	41412.14520396814
1.8752825260162354	77823.03699155677
1.8788533210754395	153240.43096413589
1.8824186325073242	204908.01467818115
1.8859784603118896	198791.1026452398
1.8895330429077148	183978.09424696048
1.8930821418762207	211904.3646282506
1.8966259956359863	230263.39087414392
1.9001644849777222	168403.98931159958
1.9036977291107178	115063.06902956666
1.9072256088256836	119848.21587172452
1.9107483625411987	111707.66954602755
1.9142658710479736	90110.59850800848
1.9177782535552979	91320.45032955124
1.9212853908538818	90578.02759389572
1.9247875213623047	76095.65492796531
1.9282845258712769	60816.709909576355
1.9317764043807983	50756.630587989166
1.9352631568908691	45763.53733432297
1.9387450218200684	41952.437183626585
1.942221760749817	49199.58410107658
1.9456936120986938	59690.48477909841
1.9491604566574097	59620.36753116527
1.952622413635254	56565.57901066276
1.956079363822937	63838.986627490944
1.959531545639038	80746.35922816668
1.962978720664978	90118.03113824941
1.966421127319336	94477.38144067882
1.9698586463928223	96582.21747903938
1.9732913970947266	102741.55017879148
1.9767193794250488	125024.6233348366
1.9801424741744995	131934.59506551817
1.9835609197616577	133695.91367251988
1.9869745969772339	158450.02034483038
1.990383505821228	186613.1706954671
1.9937876462936401	233632.50257860404
1.9971871376037598	294070.4578700112
2.000581979751587	329180.5198617789
2.003972291946411	329830.01164366223
2.007357597351074	332328.84592281363
2.0107386112213135	346473.5824012131
2.0141148567199707	327820.56167153356
2.017486572265625	285159.4412829561
2.0208535194396973	303143.4740957727
2.0242159366607666	381865.2010796244
2.027573823928833	429112.28748809855
2.0309269428253174	470165.0072639424
2.034275770187378	532345.4950441647
2.0376198291778564	561045.6630394994
2.040959596633911	574879.7628186145
2.044294595718384	658885.601243092
2.0476250648498535	772225.362154927
2.0509510040283203	815029.1230279233
2.054272413253784	853419.4229844402
2.057589530944824	949506.4223990901
2.0609018802642822	1022405.9162618265
2.0642096996307373	1073836.4060198178
2.0675129890441895	1144309.3423012965
2.0708119869232178	1205738.4590578945
2.074106216430664	1259967.6519976768
2.0773961544036865	1297813.9391763075
2.080681324005127	1329784.6498957458
2.0839622020721436	1371821.7989885567
2.087238311767578	1410304.352831281
2.090510129928589	1451070.5276089916
2.0937774181365967	1458063.5295860877
2.0970399379730225	1425337.6035339746
2.1002981662750244	1379216.5452558647
2.1035518646240234	1347496.1208388454
2.1068007946014404	1319435.4976672798
2.1100454330444336	1270219.6394881762
2.1132853031158447	1242038.7615664806
2.116520881652832	1194986.6328356224
2.1197516918182373	1132156.5468447665
2.1229779720306396	1099570.9265758577
2.12619948387146	1067375.990605858
2.1294167041778564	1034072.3436608112
2.132629156112671	1014492.8171449783
2.1358368396759033	984903.751784067
2.139039993286133	910867.8334745216
2.1422386169433594	777550.9583997356
2.145432472229004	649561.7096703426
2.1486217975616455	604418.8286314441
2.151806354522705	588077.0146361799
2.1549863815307617	547407.4011660246
2.1581614017486572	496267.62754442164
2.16133189201355	435216.3116348328
2.1644976139068604	384183.39155222493
2.167658567428589	344035.99889659235
2.1708147525787354	321220.47898049984
2.173966407775879	318876.124100992
2.1771130561828613	302821.5054501326
2.1802549362182617	277980.7309718744
2.183391809463501	250214.31841237584
2.1865241527557373	223184.90953005129
2.1896514892578125	184985.78997430115
2.1927738189697266	124423.62772611724
2.1958916187286377	69400.98903140519
2.1990041732788086	33976.51878050429
2.2021119594573975	17779.50789844537
2.2052149772644043	19746.53962575537
2.208312749862671	31409.291566646127
2.2114057540893555	43941.76413555676
2.214493751525879	52820.379099865
2.217576742172241	58052.32720467328
2.2206547260284424	56394.90732493164
2.2237277030944824	49847.332179000485
2.2267956733703613	42807.07670171168
2.2298583984375	35069.52728851295
2.2329163551330566	31758.109167213188
2.235969066619873	31108.201316779912
2.2390167713165283	26066.53523032542
2.2420592308044434	21486.765611987426
2.2450966835021973	18782.45661448001
2.248128890991211	15134.289121489062
2.2511560916900635	12867.968300842385
2.254178285598755	11873.183261662038
2.257194995880127	11549.472589655707
2.260206699371338	12169.389829085207
2.2632133960723877	12783.813940578675
2.266214609146118	13609.281156273128
2.2692108154296875	14598.420487608566
2.2722020149230957	15441.59685017687
2.2751877307891846	15115.561130833921
2.278168201446533	14761.737183837404
2.2811436653137207	14247.7154138234
2.284113883972168	11402.608803613099
2.287078857421875	9274.776814541437
2.290038824081421	8577.856470751904
2.2929933071136475	7877.135778672393
2.295942783355713	8189.750893634468
2.298887014389038	9754.790457966032
2.301826238632202	11648.886204113793
2.304760217666626	15543.303924729084
2.3076889514923096	26736.132362486478
2.310612440109253	44778.06721636517
2.3135311603546143	49724.93303802717
2.3164443969726562	29146.516507305794
2.319352865219116	9021.933675986098
2.322256088256836	5650.555654892511
2.3251543045043945	6979.27476684469
2.328047275543213	7472.9169748148415
2.330935478210449	8471.165513956232
2.3338186740875244	9995.078509854378
2.3366971015930176	11142.113135525897
2.3395702838897705	11720.184793145352
2.3424389362335205	11928.448837320011
2.3453025817871094	10799.880909721533
2.348161458969116	10040.503290135584
2.351015567779541	11400.405631938573
2.353865146636963	13359.139556988826
2.3567099571228027	16022.050542952773
2.3595502376556396	20913.232382774164
2.3623859882354736	26034.09066379127
2.3652172088623047	27090.61658397523
2.368043899536133	21916.678334796805
2.370866537094116	12813.074635939967
2.3736846446990967	8535.528115527799
2.3764986991882324	11257.800736556634
2.3793084621429443	13542.31218026133
2.3821144104003906	13066.236623130913
2.384916305541992	15585.337608620945
2.387714147567749	22087.615197367682
2.3905084133148193	24955.567096325718
2.393299102783203	23480.195155327572
2.3960859775543213	23610.110990746092
2.398869514465332	28609.188550798328
2.4016497135162354	36458.307221622206
2.4044265747070312	43078.79957477533
2.407200336456299	46245.74392991247
2.409970998764038	54757.71166894745
2.4127390384674072	65833.32683035199
2.415503978729248	60894.39025145164
2.418266534805298	49638.42185610274
2.4210267066955566	45795.20524792664
2.4237842559814453	40493.17984156134
2.426539897918701	38804.38502812072
2.429293394088745	50929.28193127236
2.4320452213287354	61327.34249453829
2.4347951412200928	61315.22980178963
2.4375438690185547	72857.76626473083
2.440291166305542	93397.83535963696
2.443037271499634	97126.3695736084
2.445782423019409	89347.75377523026
2.4485268592834473	87056.63704767366
2.451270818710327	90814.41731534207
2.454014539718628	99829.26347625809
2.4567582607269287	114907.3499299416
2.4595019817352295	127883.04552590066
2.4622461795806885	144068.26924107302
2.4649908542633057	163671.6750982884
2.4677364826202393	156763.25266633066
2.4704833030700684	136035.14159278868
2.473231554031372	129053.46403670254
2.4759814739227295	136475.7476481421
2.4787333011627197	143191.9345807632
