#wavelength (micron)	surface_flux (erg / (cm2 micron s))
0.7	1148295.408298867
0.7008749999999999	1728789.1405558083
0.70175109375	2070116.9041525486
0.7026282826171873	2142331.4353279155
0.7035065679704589	2196975.161085827
0.7043859511804219	2245878.6235540546
0.7052664336193974	2284064.744833013
0.7061480166614217	2318871.3401033184
0.7070307016822485	2354425.28250689
0.7079144900593511	2383082.2509685
0.7087993831719255	2398108.6198859406
0.7096853824008903	2416195.1416344102
0.7105724891288914	2458841.766955886
0.7114607047403024	2508001.312403318
0.7123500306212278	2541140.2174496707
0.7132404681595043	2559379.5621511303
0.7141320187447037	2582124.366465877
0.7150246837681346	2613317.422622114
0.7159184646228446	2628783.1410279926
0.7168133627036232	2626141.6175369173
0.7177093794070027	2635534.770748291
0.7186065161312616	2656369.064251134
0.7195047742764256	2654841.4006601074
0.7204041552442711	2631864.0332894744
0.7213046604383263	2616149.8564147335
0.7222062912638743	2612389.6071086247
0.723109049127954	2605769.4447043063
0.7240129354393641	2591069.7409180794
0.7249179516086632	2573148.0876320032
0.725824099048174	2554308.649714961
0.7267313791719842	2532918.2927999217
0.7276397933959492	2511181.157855753
0.728549343137694	2491562.7738046157
0.7294600298166162	2465403.640319121
0.730371854853887	2426428.2873657565
0.7312848196724542	2382406.821511967
0.7321989256970448	2337103.6672832393
0.7331141743541661	2292018.169775383
0.7340305670721088	2251964.33606395
0.7349481052809489	2218604.288557355
0.7358667904125501	2187531.6829711315
0.7367866239005658	2160723.3361586793
0.7377076071804415	2138042.9355095536
0.738629741689417	2101873.7922084117
0.7395530288665286	2037445.1662557784
0.7404774701526119	1963533.829316456
0.7414030669903027	1909957.302401837
0.7423298208240404	1883990.6597794476
0.7432577331000705	1877229.9517170165
0.7441868052664457	1861564.9107884956
0.7451170387730286	1815679.9578397092
0.7460484350714948	1763568.3823803705
0.7469809956153342	1743026.5959881162
0.7479147218598534	1732504.1060320681
0.7488496152621781	1670207.090107878
0.7497856772812559	1568833.3563725264
0.7507229093778575	1509738.8054059676
0.7516613130145797	1497084.611820204
0.7526008896558479	1444424.9063435148
0.7535416407679177	1359313.2193517708
0.7544835678188776	1326628.8441007438
0.7554266722786511	1287367.5899027335
0.7563709556189995	1199772.6183940207
0.7573164193135232	1145589.60512436
0.758263064837665	1089854.0299629795
0.7592108936687122	1009363.9322728756
0.760159907285798	938742.6305209643
0.7611101071699052	862273.7567594517
0.7620614948038675	765809.2822128509
0.7630140716723723	621634.8359343009
0.7639678392619629	422391.4663268764
0.7649227990610402	221891.99785469248
0.7658789525598665	93832.3420697547
0.7668363012505663	53137.47579256516
0.7677948466271296	63739.946285601916
0.7687545901854135	75621.83630855342
0.7697155334231451	68422.19781501984
0.7706776778399241	81494.15677787917
0.771641024937224	159781.24765463316
0.7726055762183955	310963.67753684183
0.7735713331886686	513265.1490016336
0.7745382973551542	731174.3969815754
0.7755064702268482	937432.0040602341
0.7764758533146318	1125003.3092396362
0.7774464481312751	1278895.0499637348
0.7784182561914391	1325449.241535849
0.7793912790116784	1160411.2472893693
0.780365518110443	1032168.8896695232
0.781340975008081	1320216.6814229628
0.782317651226841	1766529.0845292758
0.7832955482908746	2049944.6692312162
0.7842746677262382	2239959.33279737
0.7852550110608959	2409527.8036073786
0.7862365798247221	2576750.467758674
0.7872193755495029	2736115.758553817
0.7882033997689398	2902470.184796665
0.7891886540186509	3082144.7044761204
0.7901751398361742	3254005.7818701286
0.7911628587609694	3405874.3858923875
0.7921518123344207	3524077.1454246435
0.7931420020998386	3454461.682805723
0.7941334296024635	2913402.7341943
0.7951260963894664	2494421.2596251266
0.7961200040099533	3139753.5998520586
0.7971151540149657	4159526.5585039016
0.7981115479574844	4745394.256526333
0.7991091873924312	5117121.895140332
0.8001080738766717	5423684.17210383
0.8011082089690176	5684758.889943878
0.8021095942302288	5929208.097580477
0.8031122312230166	6192503.880823693
0.8041161215120453	6475747.284769638
0.8051212666639354	6766286.603027037
0.8061276682472652	7065560.293083207
0.8071353278325744	7369882.144019779
0.808144246992365	7669927.084950182
0.8091544273011054	7963040.4469251465
0.8101658703352317	8259616.918006039
0.8111785776731507	8583886.874593483
0.8121925508952421	8954765.715957627
0.8132077915838613	9378488.806274349
0.8142243013233411	9829214.60456209
0.8152420816999951	10263518.260137884
0.8162611343021202	10657336.009905754
0.8172814607199979	10933471.96922176
0.8183030625458978	11000149.567498362
0.8193259413740802	11109184.194349116
0.8203500988007977	11740961.255959433
0.8213755364242987	12690104.82947041
0.8224022558448291	13370686.14278142
0.8234302586646352	13877318.838493614
0.8244595464879658	14500939.381028455
0.8254901209210758	15114793.985901032
0.8265219835722272	15645546.752235256
0.8275551360516924	16246957.380739704
0.8285895799717569	16893752.536537413
0.8296253169467216	17516380.265471835
0.830662348592905	18148196.80516685
0.8317006765286461	18797899.211902503
0.8327403023743069	19496693.215581745
0.8337812277522748	20233833.268758826
0.834823454286965	20947384.71759414
0.8358669836048238	21615505.57140169
0.8369118173343297	22299361.29659652
0.8379579571059977	23006364.58150792
0.8390054045523802	23693825.73065671
0.8400541613080706	24458027.265807893
0.8411042290097056	25376740.360868096
0.8421556092959678	26283078.783031184
0.8432083038075878	26968327.14425478
0.8442623141873472	27532569.696774814
0.8453176420800813	28147199.369915858
0.8463742891326813	28856210.787368514
0.8474322569940972	29635545.57602472
0.8484915473153398	30176878.882516757
0.8495521617494839	30111959.743675616
0.8506141019516709	27862537.00993645
0.8516773695791103	21886395.813808445
0.8527419662910842	18430750.804963842
0.853807893748948	22324621.072575655
0.8548751536161342	27578541.562218256
0.8559437475581545	30702184.03545477
0.857013677242602	32650529.063574083
0.8580849443391553	32543242.02494638
0.8591575505195791	30789252.4733288
0.8602314974577286	29056774.431140907
0.8613067868295508	26599730.604603168
0.8623834203130877	23931178.462008897
0.8634613995884791	23067570.982996706
0.8645407263379646	23770701.07073653
0.8656214022458871	25316676.547764957
0.8667034289986943	26787170.592604585
0.8677868082849427	27475966.6526715
0.8688715417952989	27997217.025779724
0.869957631222543	28320039.209826916
0.8710450782615712	28416842.03170013
0.872133884609398	29021339.66155493
0.8732240519651597	30091283.044663057
0.8743155820301162	31206816.094539367
0.8754084765076539	32421048.562456455
0.8765027371032884	33889892.34911759
0.8775983655246675	35313531.68479079
0.8786953634815732	36595670.911908776
0.8797937326859253	38173086.10707966
0.8808934748517826	39496658.5484039
0.8819945916953473	40539177.37694343
0.8830970849349664	42552564.80625198
0.8842009562911352	45394200.3003261
0.8853062074864991	47982796.1516048
0.8864128402458572	50763908.35846455
0.8875208562961645	53807536.42363043
0.8886302573665347	56485489.51441871
0.8897410451882428	58603553.716931224
0.8908532214947281	59978239.08024241
0.8919667880215966	59463421.867952354
0.8930817465066233	54286472.626122236
0.8941980986897567	44404604.59602259
0.8953158463131189	45158151.57593511
0.8964349911210102	59195323.74514734
0.8975555348599115	69275781.93694013
0.8986774792784863	74551661.29251131
0.8998008261275845	79031616.7946879
0.9009255771602438	82298822.92631137
0.9020517341316941	84031070.98931968
0.9031792987993587	85536065.63228019
0.9043082729228579	88492301.16530189
0.9054386582640114	89928735.97661047
0.9065704565868414	90067146.17081
0.907703669657575	92972519.4855642
0.908838299244647	97563426.51978104
0.9099743471187027	101420353.81373991
0.9111118150526011	106080135.85013747
0.9122507048214169	110465619.47653756
0.9133910182024435	110903028.81006017
0.9145327569751966	112798062.1348378
0.9156759229214156	120362997.52254242
0.9168205178250673	126255807.85192193
0.9179665434723485	129204096.21037823
0.919114001651689	133351635.33731948
0.9202628941537536	134634581.59272194
0.9214132227714458	131903519.80175672
0.92256498929991	131564971.73719166
0.9237181955365349	136676760.69805768
0.9248728432809555	141235513.62939763
0.9260289343350568	137584103.95912558
0.9271864705029755	123281751.80917847
0.9283454535911042	107579917.02547517
0.9295058854080931	104446254.40413962
0.9306677677648533	111953994.98291275
0.9318311024745591	118293816.97034629
0.9329958913526524	117776603.21968645
0.9341621362168431	117277703.70537141
0.9353298388871142	125003806.92399742
0.936499001185723	137437810.21266994
0.9376696249372052	147872409.33564037
0.9388417119683766	155898461.5700885
0.9400152641083371	161703553.11061513
0.9411902831884725	167116784.47981927
0.942366771042458	174783824.66022733
0.9435447295062611	178338000.92915395
0.9447241604181439	176623928.28559342
0.9459050656186665	175744231.61789644
0.9470874469506899	176388054.7444903
0.9482713062593783	183283280.40149808
0.9494566453922024	187138987.4377834
0.9506434661989427	185542177.62489402
0.9518317705316914	194055630.01593986
0.9530215602448558	205432083.58909068
0.9542128371951619	204263364.1410163
0.9554056032416559	193659077.6507221
0.9565998602457079	196101515.76072395
0.957795610071015	215607518.63093224
0.9589928545836038	221770293.39868748
0.9601915956518332	210519391.39722115
0.961391835146398	204879483.96031308
0.9625935749403309	208577786.2244189
0.9637968169090064	212567099.4252903
0.9650015629301427	217000301.09739414
0.9662078148838052	224396972.40286258
0.9674155746524099	233377886.1566813
0.9686248441207255	241447177.99238065
0.9698356251758764	249980051.5137391
0.9710479197073462	254507722.47800943
0.9722617296069803	250248019.42039126
0.9734770567689891	253932388.5424764
0.9746939030899503	266140938.97156656
0.9759122704688127	276962684.74803364
0.9771321608068987	282451137.1606627
0.9783535760079072	281651859.1362236
0.9795765179779171	286243182.3843689
0.9808009886253894	295548931.67762476
0.9820269898611712	299188238.54810923
0.9832545235984976	307699605.1219238
0.9844835917529957	327502215.1138388
0.985714196242687	341221852.2603576
0.9869463389879902	338569631.69897944
0.9881800219117253	318662612.95326644
0.989415246939115	256697555.55031803
0.9906520159977886	166571596.82580808
0.9918903310177859	118314465.22836871
0.9931301939315581	121371406.09592688
0.9943716066739725	138349390.37237355
0.995614571182315	148902465.74535227
0.996859089396293	141685221.64374128
0.9981051632580382	121566620.27392489
0.9993527947121108	110033921.62360743
1.0006019857055009	111294194.5710496
1.0018527381876328	112212462.59758514
1.0031050541103672	114135498.73194732
1.0043589354280051	120541126.50712752
1.0056143840972902	124516391.79192413
1.0068714020774117	131220668.72464432
1.0081299913300084	140795534.40165898
1.009390153819171	145751629.81228155
1.0106518915114449	147556877.57262656
1.011915206375834	148525717.55272973
1.013180100383804	152601146.0429419
1.0144465755092837	158627623.4590535
1.0157146337286702	161442620.46801296
1.016984277020831	161633571.09212273
1.0182555073671071	163126715.0969969
1.0195283267513158	167098864.52657396
1.020802737159755	172645767.86094522
1.0220787405812046	176491514.27027455
1.0233563390069311	186006117.59949794
1.0246355344306899	191920335.614578
1.025916328848728	177883314.99549615
1.027198724259789	166656778.09474668
1.0284827226651139	169900772.98535526
1.0297683260684452	178883418.304925
1.0310555364760305	188272609.17404452
1.0323443558966257	192270413.46682805
1.0336347863414963	195581880.9158597
1.0349268298244232	203472330.1819222
1.0362204883617037	218086016.42851725
1.0375157639721557	224876330.74747568
1.0388126586771211	218647886.16778484
1.0401111745004674	228645617.64279494
1.041411313468593	233738068.650857
1.0427130776104288	219788036.7440521
1.0440164689574416	230349972.22785977
1.0453214895436385	253957212.9770758
1.046628141405568	248238968.03578997
1.0479364265823248	235968677.06379765
1.0492463471155529	242490804.7463337
1.0505579050494471	238843376.64365515
1.051871102430759	232517883.14301226
1.0531859413087974	247874969.29033065
1.0545024237354332	252077221.8280211
1.0558205517651027	236931814.2283193
1.0571403274548088	235988146.7901856
1.0584617528641274	254421364.31508365
1.0597848300552075	267683945.93817723
1.0611095610927765	264959200.68907976
1.0624359480441425	264834658.90874973
1.0637639929791975	275967096.3912621
1.0650936979704217	278445863.1574496
1.0664250650928846	271293341.2096759
1.0677580964242506	274253509.0125405
1.069092794044781	282581285.2041272
1.0704291600373368	288921437.59036094
1.0717671964873836	299444850.7906439
1.0731069054829927	306027164.40346164
1.0744482891148466	308693036.08385855
1.0757913494762399	314312497.9519848
1.0771360886630854	325610466.80655897
1.078482508773914	337187103.06367815
1.0798306119098815	329641099.85713583
1.081180400174769	327790344.9568742
1.0825318756749873	363341377.3122557
1.0838850405195808	387477898.0864982
1.0852398968202304	359206734.60070896
1.0865964466912557	346252290.5851986
1.0879546922496197	373442060.7369067
1.0893146356149317	384955890.0877163
1.0906762789094504	366163986.94798326
1.0920396242580872	352048299.73577386
1.0934046737884098	361778218.7988735
1.0947714296306452	362767441.2923072
1.0961398939176834	339247767.2459948
1.0975100687850805	315556699.99632114
1.098881956371062	310087822.07710266
1.1002555588165257	301515012.83042884
1.1016308782650464	286116512.49234354
1.1030079168628775	289134938.4132149
1.104386676758956	295151406.4414104
1.1057671601049048	296806647.7807793
1.1071493690550358	301855482.0091087
1.1085333057663547	289531706.2321463
1.1099189723985625	256987073.84324834
1.1113063711140607	237375697.39821023
1.1126955040779534	238641868.2193801
1.1140863734580506	240732730.92105082
1.1154789814248731	237709895.5115035
1.1168733301516542	236155944.6354747
1.1182694218143439	252953399.13273114
1.1196672585916116	258450165.3346254
1.1210668426648513	253180383.8656519
1.122468176218182	267050955.59053314
1.123871261438455	286062649.18570447
1.125276100515253	292001948.2788394
1.126682695640897	289015150.84908247
1.128091049010448	283551059.65214336
1.129501162821711	271709356.89709747
1.1309130392752382	262849975.41977078
1.1323266805743324	242184816.9336094
1.13374208892505	193223761.87476116
1.1351592665362065	163407996.75187778
1.1365782156193767	176519311.2347364
1.1379989383889009	188287712.7174418
1.139421437061887	188923017.42978317
1.1408457138582142	193258413.14210448
1.142271771000537	216307748.02858624
1.1436996107142876	246844464.5621791
1.1451292352276803	277118938.2404155
1.146560646771715	300290093.2330724
1.1479938475801796	311481525.7164681
1.1494288398896548	321855443.1013613
1.150865625939517	306576542.8237833
1.1523042079719412	258438872.15945095
1.1537445882319062	226102566.70001382
1.155186768967196	224740812.5088159
1.156630752428405	236035716.33730403
1.1580765408689404	262014615.0395398
1.1595241365450264	277541589.7873911
1.1609735417157079	255700765.11648136
1.1624247586428524	226063334.70220846
1.163877789591156	215452791.14247316
1.165332636828145	196891685.4282654
1.16678930262418	167305450.6854825
1.1682477892524603	137596092.30235237
1.1697080989890258	127106057.39604044
1.1711702341127619	160661868.29169035
1.1726341969054028	188536111.81631377
1.1740999896515347	180176334.5764123
1.1755676146385992	146985944.51333317
1.1770370741568972	109051527.09892014
1.1785083704995933	115418622.89722472
1.1799815059627177	167505980.17721218
1.1814564828451712	219793840.1153933
1.1829333034487275	252665179.0815243
1.1844119700780384	267976176.46138227
1.185892485040636	285581284.1233484
1.1873748506469368	309835353.7526945
1.1888590692102454	328540607.9327029
1.1903451430467582	344158451.6271158
1.1918330744755665	364351815.9345366
1.193322865818661	365897760.41392726
1.1948145194009343	348150689.45731264
1.1963080375501856	339947054.8672716
1.197803422597123	331669612.6051872
1.1993006768753696	326225068.4245474
1.2007998027214637	337492365.33855844
1.2023008024748656	352505675.697393
1.203803678477959	366909088.1583471
1.2053084330760564	396127470.5187122
1.2068150686174015	416412998.7840576
1.2083235874531733	413235710.43330395
1.2098339919374896	399766654.52377754
1.2113462844274117	397380420.030758
1.2128604672829457	428297545.39046305
1.2143765428670494	475444261.81528604
1.2158945135456332	508808594.78716874
1.2174143816875653	520456022.8407645
1.2189361496646747	506335636.7696053
1.2204598198517553	472259641.7086319
1.2219853946265702	450787148.928008
1.2235128763698533	452514865.73813474
1.2250422674653156	486868070.5609637
1.2265735702996472	526059849.6406733
1.2281067872625218	543982464.3164042
1.2296419207465998	552314615.9154108
1.231178973147533	541958534.0638603
1.2327179468639673	524858702.9456499
1.2342588442975473	515096395.36720717
1.2358016678529193	508591973.3018544
1.2373464199377353	498898619.26033413
1.2388931029626575	465928366.6594588
1.2404417193413606	411530084.20084417
1.2419922714905374	351327891.5584217
1.2435447618299005	308753801.24493
1.245099192782188	345876484.63881147
1.2466555667731656	420170533.94432557
1.248213886231632	439745377.1877606
1.2497741535894216	407693187.0267634
1.2513363712814083	334832872.7572559
1.25290054174551	289897992.4773595
1.2544666674226919	349443322.6392122
1.2560347507569702	431282315.876893
1.2576047941954165	468608316.24202865
1.2591768001881607	492572261.2002722
1.2607507711883958	516245898.72385585
1.2623267096523811	526203404.70432174
1.2639046180394466	515599222.4373664
1.265484498811996	520478539.3937987
1.267066354435511	554892688.8387609
1.2686501873785552	577970575.997395
1.2702360001127784	581366289.3559273
1.2718237951129194	593396303.5429893
1.2734135748568105	583818223.5517355
1.2750053418253815	554613950.3254633
1.2765990985026632	552308497.6250186
1.2781948473757916	557492092.3244807
1.2797925909350112	555736866.2194594
1.28139233167368	560752067.7437764
1.282994072088272	564426754.562376
1.2845978146783823	544362710.1797161
1.2862035619467302	515879753.06617445
1.2878113163991636	510079276.1141762
1.2894210805446624	515357444.5904279
1.2910328568953433	509394264.4303378
1.2926466479664624	500771475.4225539
1.2942624562764204	504888777.12016183
1.295880284346766	528415117.6806947
1.2975001347021995	552297642.1089457
1.2991220098705771	548458225.21957
1.3007459123829153	545645200.3907142
1.3023718447733938	557378037.3694057
1.3039998095793606	550932217.57638
1.3056298093413348	536028167.6444041
1.3072618466030115	525364835.1453592
1.3088959239112652	519309098.3566485
1.3105320438161543	524715069.15445113
1.3121702088709244	509900943.0057327
1.313810421632013	491550160.5013694
1.315452684659053	516832123.00367886
1.3170970005148768	540228468.7416507
1.3187433717655204	533137602.44725525
1.3203918009802271	514145391.2207097
1.3220422907314524	490728071.90599924
1.3236948435948666	461665847.3277413
1.3253494621493602	421641984.4952794
1.327006148977047	387572201.564888
1.3286649066632683	340037515.4049269
1.3303257377965971	243581694.02706563
1.331988644968843	156697042.38323122
1.333653630775054	126038034.41021247
1.3353206978135228	98782358.57320383
1.3369898486857896	60142382.60967321
1.3386610859966468	43832014.80232675
1.3403344123541427	45617007.40145883
1.342009830369585	45396085.04809601
1.3436873426575473	41183838.12662422
1.345366951835869	37676813.7975692
1.347048660525664	32589900.09870346
1.348732471351321	28482156.025490545
1.35041838694051	26162222.483013347
1.3521064099241855	23563757.92808303
1.3537965429365908	21701040.966621626
1.3554887886152616	22636496.20657147
1.3571831496010305	25785693.253825083
1.3588796285380318	29282426.17820517
1.3605782280737042	30850314.0613746
1.3622789508587965	33409002.993652504
1.36398179954737	42189989.69377905
