#wavelength	surface flux
0.6450077295303345	1076.3234684927306
0.6472567915916443	1668.2940713869775
0.6494921445846558	2122.5149043682422
0.6517150402069092	2371.5916557797723
0.6539263725280762	2614.3568032422218
0.6561272740364075	2862.87898676451
0.6583186388015747	3129.2023076216783
0.6605015397071838	3421.8439526022507
0.6626768708229065	3735.5436641210117
0.6648455858230591	4060.1209053749326
0.6670085787773132	4340.480921467282
0.6691668033599854	4468.200553838197
0.6713210344314575	4691.3188716542045
0.6734722256660461	5266.716279864712
0.6756211519241333	5866.641723603322
0.6777685880661011	6313.016991585056
0.6799154281616211	6734.775319607368
0.6820623278617859	7162.142971174518
0.6842101216316223	7594.994207714651
0.6863595843315125	8029.297043417699
0.688511312007904	8437.293842963774
0.6906660795211792	8732.680811077711
0.6928245425224304	8992.98029639392
0.6949873566627502	9465.043394819322
0.6971551775932312	10026.290522860541
0.6993286609649658	10433.12562663738
0.7015084028244019	10739.891072623659
0.7036949396133423	11098.594427623528
0.7058889269828796	11498.229381521964
0.7080909013748169	11803.522242615996
0.710301399230957	12046.559121663251
0.712520956993103	12240.97900955949
0.7147500514984131	12192.636310318721
0.7169892191886902	11922.880404659805
0.7192389369010925	11821.090585094664
0.7214996814727783	11795.339625076096
0.723771870136261	11470.518690827828
0.7260559797286987	11011.945707150688
0.7283523678779602	10620.890394476224
0.7306615710258484	10320.288056824085
0.7329838871955872	10111.780942883393
0.7353196740150452	9804.163715437582
0.7376693487167358	9339.51514591929
0.7400332689285278	8791.688668120956
0.7424117922782898	8142.83923170397
0.7448052167892456	7459.107341703207
0.7472138404846191	6755.11451125831
0.7496379613876343	5991.425170742373
0.7520779371261597	5180.186963202311
0.7545340061187744	4333.30779969057
0.7570064663887024	3465.9571885919067
0.7594954967498779	2589.342641817672
0.7620013952255249	1710.8898764179044
0.7645244002342224	912.7893250257148
0.7670646905899048	425.0477805204095
0.7696225643157959	453.79876062541825
0.7721980810165405	1132.5447568971135
0.7747915983200073	2350.4729804878016
0.7774031162261963	3711.3902718050863
0.7800329327583313	5195.74920991534
0.7826811671257019	7194.875065733628
0.7853479981422424	9608.768323732462
0.7880334854125977	12062.340947186525
0.7907378077507019	13631.349792439196
0.7934610247612	13693.53864248681
0.7962033748626709	16386.09131640481
0.7989648580551147	22982.77539403995
0.801745593547821	28941.069019474344
0.8045456409454346	33601.419959499624
0.8073651194572449	37956.63603991368
0.8102040886878967	41514.75638441193
0.8130625486373901	45622.35189161228
0.8159406185150146	52312.12281544548
0.8188382983207703	59955.403579219346
0.8217556476593018	66425.07157358027
0.8246926665306091	73156.49426523983
0.8276493549346924	80349.23499061525
0.8306257724761963	87013.33740384657
0.8336219191551208	94212.40350009302
0.8366377949714661	101986.66412112214
0.8396733403205872	112251.19967460143
0.8427285552024841	126394.61333319767
0.8458034992218018	139922.98975085386
0.8488980531692505	147332.53674074757
0.8520121574401855	153053.6480619942
0.8551458716392517	169730.7195936914
0.8582990765571594	191578.43595631048
0.8614717125892639	207563.24743763742
0.8646637797355652	221538.32309339548
0.8678751587867737	237272.81956194702
0.8711057901382446	254479.7390365198
0.8743556141853333	271052.2272847233
0.87762451171875	284501.64295886375
0.8809124231338501	291794.6250318434
0.8842192888259888	294877.3904081374
0.8875449895858765	296031.1150602406
0.8908893465995789	285522.05985608103
0.894252359867096	272339.9269181642
0.8976338505744934	297644.9362265166
0.9010337591171265	356042.4054996209
0.9044519662857056	401415.72238695686
0.9078882932662964	426626.9263422385
0.9113426208496094	444587.2618012781
0.914814829826355	448569.11110698973
0.9183048605918884	454285.6896852095
0.9218124747276306	461639.5700900691
0.925337553024292	389332.67760495306
0.9288799166679382	252041.9605629224
0.9324395060539246	178554.02058857036
0.9360161423683167	200694.11047376768
0.9396095871925354	255961.63906629448
0.943219780921936	251278.69265680233
0.9468464851379395	211274.71870908348
0.9504896402359009	229945.85342186462
0.9541489481925964	286834.65832778893
0.9578243494033813	302387.38961597317
0.9615156054496765	255060.84840507607
0.9652225375175476	234464.89797332606
0.9689450263977051	309890.24017836346
0.9726828336715698	442642.79710807325
0.9764357805252075	536267.032977387
0.9802037477493286	591230.1383403231
0.983986496925354	655358.4411666591
0.9877838492393494	738111.2222748498
0.9915955662727356	837546.6498763645
0.9954215884208679	922774.7649442969
0.9992615580558777	986495.950815421
1.0031154155731201	1040707.4651601298
1.0069829225540161	1099823.7239960693
1.0108637809753418	1168387.7189755286
1.0147579908370972	1237960.3400629216
1.018665075302124	1293218.5660504221
1.022585153579712	1325534.0176373972
1.0265177488327026	1349445.061372246
1.0304628610610962	1389155.2702403953
1.0344202518463135	1446335.7695151116
1.0383895635604858	1496834.5034469613
1.0423706769943237	1532010.8096219746
1.0463634729385376	1558849.080234167
1.0503677129745483	1585365.6650393414
1.0543830394744873	1618594.5735883957
1.058409333229065	1653050.4050728579
1.0624464750289917	1679541.0911889595
1.0664942264556885	1695685.8645921284
1.0705522298812866	1707312.838478976
1.0746204853057861	1730197.2589113673
1.0786986351013184	1760100.2916253337
1.0827864408493042	1779982.2535440999
1.086883783340454	1756122.8027910101
1.0909905433654785	1663617.6015929189
1.0951062440872192	1501768.3639912072
1.0992310047149658	1154875.544089587
1.10336434841156	709175.3563044989
1.1075061559677124	509101.6677253896
1.1116561889648438	442945.08730433026
1.115814208984375	306764.3488979016
1.1199802160263062	212937.20509085976
1.124153733253479	205756.64871477275
1.1283347606658936	239261.89491371848
1.1325229406356812	267229.8106731937
1.1367181539535522	354414.9906815916
1.1409201622009277	467816.9120968237
1.145128846168518	522271.09421346465
1.1493438482284546	427359.66943708016
1.1535650491714478	205149.5516242268
1.1577922105789185	106534.30425071923
1.1620250940322876	186455.72708960564
1.1662636995315552	338507.324966736
1.170507550239563	492818.0823055277
1.174756646156311	754681.3232978907
1.1790107488632202	1144814.892773406
1.1832695007324219	1493131.258669954
1.1875330209732056	1737570.5333249697
1.191800832748413	1993056.535644238
1.1960728168487549	2294275.384020345
1.2003488540649414	2513781.957168158
1.2046287059783936	2643295.9969299976
1.2089121341705322	2727035.127466251
1.2131990194320679	2811178.559075865
1.2174891233444214	2948082.142916738
1.2217823266983032	3108908.4325987715
1.2260783910751343	3258262.4413694497
1.230377197265625	3369724.757147861
1.2346785068511963	3455297.096666911
1.238982081413269	3566206.293973394
1.2432878017425537	3680225.5651200972
1.2475954294204712	3774802.8964344556
1.2519049644470215	3865545.7313902047
1.256216049194336	3954007.273710442
1.2605286836624146	4011838.3390552145
1.2648425102233887	4039800.4569940097
1.2691574096679688	4062184.245175851
1.2734732627868652	4085670.2908828664
1.2777899503707886	4083335.0043242415
1.2821072340011597	4033820.787888222
1.2864248752593994	3905278.295659373
1.2907428741455078	3687828.3949925336
1.2950609922409058	3581785.5947505585
1.2993791103363037	3516193.597166837
1.303696870803833	3302692.5861465083
1.3080145120620728	3111432.770157189
1.3123314380645752	3094166.6535468856
1.3166478872299194	3284679.0391642856
1.3209635019302368	3142531.7609250783
1.3252781629562378	2409612.6812655493
1.3295916318893433	1526000.2157549746
1.3339040279388428	723926.9143233892
1.3382149934768677	225326.40828643038
1.3425244092941284	59479.41856818948
1.3468321561813354	30357.771719710767
1.3511382341384888	19858.478448097732
1.3554422855377197	9052.857394294015
1.3597444295883179	6301.73609742529
1.3640443086624146	5096.701187843596
1.3683418035507202	8384.384481341216
1.3726370334625244	27095.46317366398
1.3769296407699585	49735.22591020743
1.381219506263733	39121.21586058992
1.3855066299438477	12206.96059133171
1.3897908926010132	3153.8648660648955
1.3940720558166504	4643.676541000902
1.3983501195907593	11456.803714910064
1.4026249647140503	25056.83867511108
1.4068963527679443	32387.877423194557
1.4111642837524414	22779.004928264414
1.4154287576675415	14971.306477454036
1.419689416885376	13812.048294657687
1.4239463806152344	11723.599650025266
1.4281994104385376	18324.556551735262
1.4324485063552856	35402.525885018695
1.436693549156189	49223.919210757806
1.440934419631958	61965.11229593873
1.4451709985733032	124092.80795439563
1.449403166770935	263495.47203931236
1.453631043434143	374251.4642747905
1.4578542709350586	430719.5253001961
1.4620729684829712	499723.79631815053
1.4662868976593018	478037.4966007453
1.4704961776733398	327874.6180453221
1.4747005701065063	206303.9816274237
1.4788999557495117	191968.73090488432
1.4830944538116455	278447.27851913887
1.4872838258743286	361707.56489279086
1.491468071937561	305434.9443337912
1.4956470727920532	224121.44509631986
1.4998208284378052	307880.9475558933
1.5039892196655273	448973.1595428401
1.5081522464752197	462918.02078720287
1.5123097896575928	461813.3000303948
1.5164618492126465	564214.0955878651
1.5206083059310913	772718.3779102496
1.5247491598129272	1142194.656257884
1.5288842916488647	1559203.6752577908
1.5330137014389038	1747217.385073946
1.5371372699737549	2009884.1651684786
1.541254997253418	2576516.1077668886
1.545366883277893	2962708.374801595
1.5494728088378906	3145986.8036133363
1.5535727739334106	3517640.1264387844
1.5576666593551636	4046983.346572372
1.561754584312439	4670649.7763928715
1.5658363103866577	5255752.5513944775
1.5699119567871094	5464512.963763884
1.5739814043045044	5363479.544458743
1.5780447721481323	5244883.018426837
1.582101821899414	5380634.010982583
1.5861525535583496	5670041.474215052
1.5901970863342285	5709731.339171454
1.5942351818084717	5460607.259788151
1.5982669591903687	5145415.535492066
1.6022924184799194	4844468.29794116
1.606311559677124	4569035.244160194
1.6103241443634033	4362683.12507965
1.6143304109573364	4023042.736659389
1.6183301210403442	3435594.929186815
1.6223233938217163	2751829.3313426385
1.6263102293014526	2089199.2629606838
1.6302905082702637	1628518.7767438851
1.634264349937439	1942409.719132386
1.638231635093689	3040051.545398599
1.6421923637390137	3567385.048478601
1.646146535873413	2839417.453241221
1.6500942707061768	2053414.4838356404
1.6540353298187256	2257142.3084903145
1.6579699516296387	2721596.2311959555
1.661897897720337	2489175.259440774
1.6658192873001099	1634137.0172059264
1.6697341203689575	1162483.8254954831
1.6736423969268799	1539800.6939545127
1.677544116973877	1722232.6054713703
1.6814392805099487	1469237.1746674117
1.6853278875350952	1285816.5193380346
1.6892099380493164	1104586.0416144948
1.6930854320526123	856678.8733108978
1.696954369544983	598243.037597996
1.7008168697357178	500817.87302573316
1.7046726942062378	607005.3724285568
1.708522081375122	808240.1252017413
1.712364912033081	1043004.9144360591
1.7162011861801147	1302013.3651835115
1.7200311422348022	1535137.1196798556
1.723854422569275	1552757.778257227
1.7276713848114014	1401404.599417458
1.731481909751892	1260586.5977635977
1.7352858781814575	1172882.080053886
1.7390835285186768	1184806.3507787867
1.7428747415542603	1209074.4645645488
1.7466596364974976	1136889.6797008943
1.7504380941390991	1004355.2629648392
1.7542102336883545	916076.5013215108
1.7579760551452637	1013121.3935522515
1.7617355585098267	1085697.5050145267
1.7654887437820435	923252.2213933425
1.7692357301712036	676579.6014287382
1.7729763984680176	424876.75079199055
1.776710867881775	223306.0541873563
1.7804391384124756	150739.18945352026
1.7841613292694092	147839.72629613234
1.7878772020339966	124969.38621809194
1.7915871143341064	134404.5366104814
1.7952908277511597	230735.16040282074
1.7989884614944458	289952.1642337197
1.8026801347732544	181578.62672382468
1.806365728378296	52665.80356692287
1.8100452423095703	35419.925526111656
1.8137187957763672	45849.807891353455
1.817386507987976	37618.82334992189
1.8210482597351074	46669.50607688943
1.8247040510177612	51149.06235314885
1.828354001045227	23987.461232136182
1.8319982290267944	13046.543631725011
1.8356364965438843	32240.89933391934
1.8392690420150757	53909.590027722654
1.8428958654403687	56097.756108162015
1.8465168476104736	71146.785028659
1.8501322269439697	113740.7106113397
1.8537418842315674	106594.65061007149
1.8573459386825562	67376.44866838801
1.860944390296936	49539.23766946968
1.864537239074707	25147.086031680188
1.8681244850158691	10785.368468080875
1.871706247329712	24852.618014619966
1.8752825260162354	78035.28610673752
1.8788533210754395	226230.68822608938
1.8824186325073242	362883.7229428302
1.8859784603118896	324516.7411838148
1.8895330429077148	243223.54892635945
1.8930821418762207	286955.63173676655
1.8966259956359863	284310.3290913652
1.9001644849777222	124864.91630226409
1.9036977291107178	15365.356980473756
1.9072256088256836	6817.109306890383
1.9107483625411987	6802.659163871407
1.9142658710479736	3550.235735777494
1.9177782535552979	5310.186285299269
1.9212853908538818	10450.392169218338
1.9247875213623047	10659.959221457953
1.9282845258712769	9317.181366846144
1.9317764043807983	11019.06039986311
1.9352631568908691	11818.098089114232
1.9387450218200684	12769.736790260915
1.942221760749817	18499.37068990833
1.9456936120986938	31610.787233822302
1.9491604566574097	47879.139929902965
1.952622413635254	46606.6912456326
1.956079363822937	29073.457541258525
1.959531545639038	28900.15622409301
1.962978720664978	56471.65299562601
1.966421127319336	86031.20124966725
1.9698586463928223	97832.60765773602
1.9732913970947266	97028.20161007052
1.9767193794250488	81591.35972025593
1.9801424741744995	77736.00026365064
1.9835609197616577	137201.36549199442
1.9869745969772339	205868.2296770097
1.990383505821228	237007.73861634897
1.9937876462936401	294911.68618288636
1.9971871376037598	323900.17985134234
2.000581979751587	337915.40852754033
2.003972291946411	397485.7085832432
2.007357597351074	456293.61507928703
2.0107386112213135	564294.669543607
2.0141148567199707	569181.8834217301
2.017486572265625	399752.4871484943
2.0208535194396973	289511.91391940333
2.0242159366607666	252897.16946395714
2.027573823928833	294381.65779915295
2.0309269428253174	386475.3012847812
2.034275770187378	439726.3285104493
2.0376198291778564	595638.7414147111
2.040959596633911	819893.9976612058
2.044294595718384	1012811.6166246787
2.0476250648498535	1254493.5460355973
2.0509510040283203	1353045.0713989178
2.054272413253784	1228650.1899358272
2.057589530944824	1245912.6158776216
2.0609018802642822	1440903.1382277927
2.0642096996307373	1547288.3311636609
2.0675129890441895	1556818.6356129402
2.0708119869232178	1546542.0237966427
2.074106216430664	1541728.0726810847
2.0773961544036865	1574946.9649727691
2.080681324005127	1613756.507517394
2.0839622020721436	1618869.088034803
2.087238311767578	1613480.2577050426
2.090510129928589	1608594.6260798785
2.0937774181365967	1590939.8878157719
2.0970399379730225	1569311.9272457936
2.1002981662750244	1544279.610184103
2.1035518646240234	1505432.9244051029
2.1068007946014404	1454911.8350619313
2.1100454330444336	1427653.9380449587
2.1132853031158447	1417842.5751641938
2.116520881652832	1379351.6207453154
2.1197516918182373	1330658.6855437052
2.1229779720306396	1302464.8144259932
2.12619948387146	1293750.08465813
2.1294167041778564	1283475.2281451912
2.132629156112671	1261869.3267660092
2.1358368396759033	1210817.6074497262
2.139039993286133	1144316.3358074764
2.1422386169433594	1085578.7119089311
2.145432472229004	1026320.108471033
2.1486217975616455	964193.9784854684
2.151806354522705	876486.7986804926
2.1549863815307617	844421.562669
2.1581614017486572	864557.8628206253
2.16133189201355	816027.6918316296
2.1644976139068604	753418.4547475739
2.167658567428589	736686.298536687
2.1708147525787354	776485.8873135521
2.173966407775879	841939.287549876
2.1771130561828613	826472.8580450028
2.1802549362182617	707456.1850317776
2.183391809463501	587620.3357246857
2.1865241527557373	518554.77559711656
2.1896514892578125	437375.9361463348
2.1927738189697266	322363.4311444843
2.1958916187286377	210515.72877057604
2.1990041732788086	131744.3291518831
2.2021119594573975	97711.10342379638
2.2052149772644043	91311.29506497014
2.208312749862671	83621.24751878453
2.2114057540893555	85704.13669629747
2.214493751525879	104359.54450657814
2.217576742172241	112404.9001651677
2.2206547260284424	107621.86878052917
2.2237277030944824	102743.53309655834
2.2267956733703613	92470.32098771792
2.2298583984375	75953.45985494251
2.2329163551330566	63772.749300773474
2.235969066619873	57906.03357851989
2.2390167713165283	50342.36323499476
2.2420592308044434	34799.26164002704
2.2450966835021973	17101.814619569323
2.248128890991211	11867.864770122158
2.2511560916900635	19049.999180598497
2.254178285598755	26459.978127194707
2.257194995880127	37070.38402845472
2.260206699371338	46636.66848019449
2.2632133960723877	43168.8273367501
2.266214609146118	35152.8320899398
2.2692108154296875	32262.87891591911
2.2722020149230957	37104.483946382476
2.2751877307891846	44709.336093568105
2.278168201446533	44350.68212295293
2.2811436653137207	36265.32589730004
2.284113883972168	30114.831862919684
2.287078857421875	27395.359683649942
2.290038824081421	25789.555747924187
2.2929933071136475	28053.173260911608
2.295942783355713	31100.86617868532
2.298887014389038	27508.046471588565
2.301826238632202	22365.217179332558
2.304760217666626	34510.80135088658
2.3076889514923096	62101.540942781954
2.310612440109253	83440.93055023823
2.3135311603546143	80291.8423328132
2.3164443969726562	48187.15905034785
2.319352865219116	22102.507266610904
2.322256088256836	23157.59680482366
2.3251543045043945	29974.951566921907
2.328047275543213	29860.309535618926
2.330935478210449	27313.910077743007
2.3338186740875244	24979.99387898784
2.3366971015930176	21468.358262770467
2.3395702838897705	18846.01160936264
2.3424389362335205	16194.9300852343
2.3453025817871094	12457.211847417644
2.348161458969116	11461.130346823866
2.351015567779541	17291.403096387225
2.353865146636963	28605.782841640572
2.3567099571228027	38197.74708450119
2.3595502376556396	45591.002561540394
2.3623859882354736	53009.147253163166
2.3652172088623047	48982.38084376331
2.368043899536133	29691.949366977096
2.370866537094116	13243.539745273134
2.3736846446990967	11020.550371675026
2.3764986991882324	16828.789132544684
2.3793084621429443	25006.09613404983
2.3821144104003906	34359.573413330945
2.384916305541992	45470.66272321477
2.387714147567749	51209.56766654353
2.3905084133148193	44622.66781614964
2.393299102783203	38736.921235837515
2.3960859775543213	42924.56144026616
2.398869514465332	51508.92110728848
2.4016497135162354	53829.25837114978
2.4044265747070312	53236.83226667266
2.407200336456299	71833.36272650883
2.409970998764038	109635.03809094703
2.4127390384674072	133908.65787373148
2.415503978729248	133586.20638677548
2.418266534805298	138843.4459694046
2.4210267066955566	152596.4453386625
2.4237842559814453	143840.1423712535
2.426539897918701	137476.14101436024
2.429293394088745	188962.08860095748
2.4320452213287354	260821.18879521597
2.4347951412200928	274612.9037564832
2.4375438690185547	260382.74216574235
2.440291166305542	286060.6270561705
2.443037271499634	307609.31698422215
2.445782423019409	260103.53141751792
2.4485268592834473	187335.878152325
2.451270818710327	178625.48490506865
2.454014539718628	241131.4990073027
2.4567582607269287	295973.65126519173
2.4595019817352295	323816.7451739184
2.4622461795806885	369506.8318801001
2.4649908542633057	372828.08727259317
2.4677364826202393	281304.1743997239
2.4704833030700684	184133.1150503335
2.473231554031372	141899.27977863516
2.4759814739227295	126116.87352921252
