#wavelength	surface flux
0.6450077295303345	305760.76196750265
0.6472567915916443	458973.9750410127
0.6494921445846558	549662.9315920264
0.6517150402069092	570955.1508406819
0.6539263725280762	587401.5658425556
0.6561272740364075	603211.4918570496
0.6583186388015747	620076.2412170699
0.6605015397071838	637980.20257697
0.6626768708229065	654630.6135884392
0.6648455858230591	671885.4071936337
0.6670085787773132	685057.3340767445
0.6691668033599854	678938.6103482635
0.6713210344314575	681337.218002067
0.6734722256660461	722157.9331101349
0.6756211519241333	765147.4230418588
0.6777685880661011	789091.0311265107
0.6799154281616211	806330.5031911411
0.6820623278617859	826136.8309746396
0.6842101216316223	851301.4215020409
0.6863595843315125	875041.9839791923
0.688511312007904	894708.3833711286
0.6906660795211792	910973.0202406184
0.6928245425224304	931459.3327033431
0.6949873566627502	960635.1805102137
0.6971551775932312	989414.24622378
0.6993286609649658	1014136.4321229552
0.7015084028244019	1038126.8867043623
0.7036949396133423	1062710.8035510136
0.7058889269828796	1088137.248850717
0.7080909013748169	1113724.6921203553
0.710301399230957	1139591.2690171688
0.712520956993103	1165955.051537372
0.7147500514984131	1191602.8377430406
0.7169892191886902	1216727.8030297493
0.7192389369010925	1243803.1764916414
0.7214996814727783	1272267.5005157327
0.723771870136261	1300445.7851622235
0.7260559797286987	1329019.8237722632
0.7283523678779602	1358041.138153535
0.7306615710258484	1387771.2400853971
0.7329838871955872	1418725.4123096778
0.7353196740150452	1449721.4130702955
0.7376693487167358	1480806.2793559628
0.7400332689285278	1512172.2605266084
0.7424117922782898	1542322.6758387168
0.7448052167892456	1571362.1715032659
0.7472138404846191	1598873.424044029
0.7496379613876343	1622419.820189516
0.7520779371261597	1638313.7125140883
0.7545340061187744	1639916.8605325108
0.7570064663887024	1612581.4055478713
0.7594954967498779	1517173.8590315282
0.7620013952255249	1257483.8266818225
0.7645244002342224	787090.722674517
0.7670646905899048	367316.25635810255
0.7696225643157959	360880.8004791034
0.7721980810165405	836886.9101927759
0.7747915983200073	1437702.3868577385
0.7774031162261963	1797060.883697993
0.7800329327583313	1962855.3563955424
0.7826811671257019	2087857.4867372354
0.7853479981422424	2197059.000320713
0.7880334854125977	2277940.436040112
0.7907378077507019	2297949.4204807705
0.7934610247612	2210332.8282403653
0.7962033748626709	2228344.035997222
0.7989648580551147	2439676.3992001778
0.801745593547821	2596133.110632345
0.8045456409454346	2662181.99436909
0.8073651194572449	2719543.5780267427
0.8102040886878967	2773489.4440463674
0.8130625486373901	2832153.6344440146
0.8159406185150146	2898931.8855338753
0.8188382983207703	2966105.5965243364
0.8217556476593018	3033569.6963292467
0.8246926665306091	3104331.4139323514
0.8276493549346924	3174368.0581956613
0.8306257724761963	3243241.5363822617
0.8336219191551208	3313520.1036576973
0.8366377949714661	3383053.492905121
0.8396733403205872	3456005.7093193755
0.8427285552024841	3536956.44740688
0.8458034992218018	3618832.338925466
0.8488980531692505	3697881.5460200375
0.8520121574401855	3777672.563410961
0.8551458716392517	3861392.9268011735
0.8582990765571594	3935941.2133589378
0.8614717125892639	3981642.4706381573
0.8646637797355652	4037589.3166145654
0.8678751587867737	4133077.9200795563
0.8711057901382446	4230931.804329222
0.8743556141853333	4322472.4434208255
0.87762451171875	4413570.505485378
0.8809124231338501	4503213.584108873
0.8842192888259888	4601927.218447622
0.8875449895858765	4695477.01201884
0.8908893465995789	4770591.862097368
0.894252359867096	4858560.814101501
0.8976338505744934	4976682.3033024
0.9010337591171265	5100548.601930658
0.9044519662857056	5217710.5718868235
0.9078882932662964	5330078.627926731
0.9113426208496094	5434375.892302413
0.914814829826355	5525688.086914643
0.9183048605918884	5620227.355834805
0.9218124747276306	5710799.266642073
0.925337553024292	5706912.190678303
0.9288799166679382	5626309.169067197
0.9324395060539246	5660983.130459662
0.9360161423683167	5838809.376922853
0.9396095871925354	6028345.567550638
0.943219780921936	6136299.650659385
0.9468464851379395	6206960.4164530905
0.9504896402359009	6334323.805569552
0.9541489481925964	6490656.741639669
0.9578243494033813	6585551.653312449
0.9615156054496765	6605953.749560761
0.9652225375175476	6666308.091064392
0.9689450263977051	6841577.539835965
0.9726828336715698	7106683.562442665
0.9764357805252075	7340195.060397193
0.9802037477493286	7506326.658568053
0.983986496925354	7663252.586542956
0.9877838492393494	7813814.89804398
0.9915955662727356	7963821.756995151
0.9954215884208679	8125617.708315153
0.9992615580558777	8277236.698840894
1.0031154155731201	8411965.802181138
1.0069829225540161	8572129.867403895
1.0108637809753418	8757924.928632392
1.0147579908370972	8947230.609519495
1.018665075302124	9125711.140400762
1.022585153579712	9266915.2378026
1.0265177488327026	9392839.470097411
1.0304628610610962	9557454.514266694
1.0344202518463135	9759339.095574794
1.0383895635604858	9949431.563308373
1.0423706769943237	10113616.31124648
1.0463634729385376	10272328.601007774
1.0503677129745483	10431393.982053341
1.0543830394744873	10599062.960583087
1.058409333229065	10769974.690755833
1.0624464750289917	10933266.330760648
1.0664942264556885	11095013.697851604
1.0705522298812866	11257781.427053185
1.0746204853057861	11423584.879212892
1.0786986351013184	11592237.701265229
1.0827864408493042	11755842.875686157
1.086883783340454	11891083.21893711
1.0909905433654785	11981873.86156661
1.0951062440872192	12018804.708442315
1.0992310047149658	11846672.534752388
1.10336434841156	11509540.81992726
1.1075061559677124	11442073.3950541
1.1116561889648438	11557162.380688662
1.115814208984375	11581301.530956103
1.1199802160263062	11669420.844621234
1.124153733253479	11938073.65173761
1.1283347606658936	12125919.165158818
1.1325229406356812	11962927.133473348
1.1367181539535522	12115453.096917989
1.1409201622009277	12754983.465582076
1.145128846168518	13179008.929839121
1.1493438482284546	13042751.550563352
1.1535650491714478	12585434.556621213
1.1577922105789185	12501115.622768098
1.1620250940322876	12903701.112562845
1.1662636995315552	13451781.230529314
1.170507550239563	13834122.695043946
1.174756646156311	14209108.088783195
1.1790107488632202	14762181.92913476
1.1832695007324219	15228879.032841947
1.1875330209732056	15527846.879286233
1.191800832748413	15808305.027598796
1.1960728168487549	16129871.4527981
1.2003488540649414	16387686.006676313
1.2046287059783936	16578046.198263383
1.2089121341705322	16762637.086238874
1.2131990194320679	16981956.20217665
1.2174891233444214	17238117.408168666
1.2217823266983032	17485671.817697033
1.2260783910751343	17706627.253050067
1.230377197265625	17910588.275253404
1.2346785068511963	18107272.319093827
1.238982081413269	18308753.911439624
1.2432878017425537	18503867.19400361
1.2475954294204712	18664104.23549568
1.2519049644470215	18802500.048288755
1.256216049194336	19002599.643169343
1.2605286836624146	19220432.46067026
1.2648425102233887	19386193.79543726
1.2691574096679688	19543452.102322727
1.2734732627868652	19710625.572970584
1.2777899503707886	19877052.746167652
1.2821072340011597	20029752.6574066
1.2864248752593994	20156085.230686616
1.2907428741455078	20253630.796446733
1.2950609922409058	20387870.556638464
1.2993791103363037	20531975.982004445
1.303696870803833	20623782.82231163
1.3080145120620728	20751763.262592096
1.3123314380645752	20946567.017215285
1.3166478872299194	21128671.89335457
1.3209635019302368	21113791.095869895
1.3252781629562378	20748382.449240796
1.3295916318893433	19611209.30251258
1.3339040279388428	16936997.940019976
1.3382149934768677	13237502.796401393
1.3425244092941284	11366552.36760747
1.3468321561813354	11968919.129525436
1.3511382341384888	11658640.927526604
1.3554422855377197	10385767.939406034
1.3597444295883179	10149688.155165412
1.3640443086624146	10831071.870758453
1.3683418035507202	12174915.225763034
1.3726370334625244	14210639.115384493
1.3769296407699585	15625835.082916573
1.381219506263733	13855181.06305651
1.3855066299438477	10913125.39806639
1.3897908926010132	9936437.872998009
1.3940720558166504	9992138.168760108
1.3983501195907593	10440159.838343546
1.4026249647140503	12291669.49705643
1.4068963527679443	13854628.765603073
1.4111642837524414	12544223.87948654
1.4154287576675415	11580038.54280663
1.419689416885376	12112334.597746914
1.4239463806152344	12078493.570990358
1.4281994104385376	12638797.273314117
1.4324485063552856	12886400.019880993
1.436693549156189	12635582.082335334
1.440934419631958	13716291.543608679
1.4451709985733032	15774990.515912775
1.449403166770935	17812295.955816597
1.453631043434143	18947363.270651277
1.4578542709350586	19498249.83661132
1.4620729684829712	20082154.223548576
1.4662868976593018	20268155.8128488
1.4704961776733398	20098164.845643718
1.4747005701065063	20233213.774578024
1.4788999557495117	20718924.02285317
1.4830944538116455	21505856.281574618
1.4872838258743286	22269928.419326648
1.491468071937561	22537498.508572016
1.4956470727920532	22713579.13889666
1.4998208284378052	23338386.916062854
1.5039892196655273	24034148.903981645
1.5081522464752197	24226063.806814216
1.5123097896575928	24375388.83902956
1.5164618492126465	24921643.45396393
1.5206083059310913	25727827.143468067
1.5247491598129272	26303489.10313312
1.5288842916488647	26432207.030217085
1.5330137014389038	26657604.928901263
1.5371372699737549	27042620.78040706
1.541254997253418	27278013.712365948
1.545366883277893	27546819.245895438
1.5494728088378906	27894997.12674089
1.5535727739334106	28099333.822157223
1.5576666593551636	28149364.828034643
1.561754584312439	28332754.19098858
1.5658363103866577	28732734.211988915
1.5699119567871094	29032718.88583973
1.5739814043045044	29077734.42605342
1.5780447721481323	29049255.04684039
1.582101821899414	29271695.083484944
1.5861525535583496	29677190.661552697
1.5901970863342285	29924268.942815684
1.5942351818084717	30020270.140592325
1.5982669591903687	30102186.273812838
1.6022924184799194	30253593.124112226
1.606311559677124	30440097.63333096
1.6103241443634033	30572787.483705703
1.6143304109573364	30686847.402041696
1.6183301210403442	30817919.717128005
1.6223233938217163	30993008.286054455
1.6263102293014526	31202625.974982418
1.6302905082702637	31345650.778897885
1.634264349937439	31458391.56834004
1.638231635093689	31612986.70064433
1.6421923637390137	31758644.226960506
1.646146535873413	31874574.664673995
1.6500942707061768	31944053.02454172
1.6540353298187256	31991209.133757733
1.6579699516296387	32029738.80458948
1.661897897720337	32045089.25966488
1.6658192873001099	32063654.875585545
1.6697341203689575	32125390.842687603
1.6736423969268799	32340950.40123063
1.677544116973877	32592674.047416363
1.6814392805099487	32727195.520345937
1.6853278875350952	32804598.1053374
1.6892099380493164	32764005.777127244
1.6930854320526123	32560773.108446885
1.696954369544983	32450366.541838948
1.7008168697357178	32597740.52703583
1.7046726942062378	32698253.27764447
1.708522081375122	32571403.687533177
1.712364912033081	32393474.31640131
1.7162011861801147	32360770.80149539
1.7200311422348022	32448605.43070415
1.723854422569275	32442933.43512633
1.7276713848114014	32230281.917781606
1.731481909751892	31757485.407950547
1.7352858781814575	31186831.87474296
1.7390835285186768	30746293.565118786
1.7428747415542603	30206503.168820992
1.7466596364974976	29434967.25366034
1.7504380941390991	28492449.615581278
1.7542102336883545	27864545.858379845
1.7579760551452637	28838924.244684733
1.7617355585098267	30282122.993449498
1.7654887437820435	29749945.52019585
1.7692357301712036	27576181.82740522
1.7729763984680176	24744314.248124417
1.776710867881775	21641469.108737808
1.7804391384124756	20351931.62733768
1.7841613292694092	20503663.004489183
1.7878772020339966	19789354.141156103
1.7915871143341064	19917816.63138518
1.7952908277511597	20806487.717979807
1.7989884614944458	19777191.638420895
1.8026801347732544	16679635.543161925
1.806365728378296	13477235.703717351
1.8100452423095703	13528543.228801902
1.8137187957763672	15354776.961714305
1.817386507987976	14958696.66203349
1.8210482597351074	15850675.95374218
1.8247040510177612	16736960.222532216
1.828354001045227	14392028.138801591
1.8319982290267944	14357209.180981329
1.8356364965438843	17243984.93541031
1.8392690420150757	19572878.195898447
1.8428958654403687	20090078.324461516
1.8465168476104736	19701212.87220623
1.8501322269439697	18706572.03812906
1.8537418842315674	15671442.793391356
1.8573459386825562	13765220.56052853
1.860944390296936	13586097.794649582
1.864537239074707	13107202.72659433
1.8681244850158691	14818091.668346165
1.871706247329712	18153356.130858563
1.8752825260162354	20389055.93012636
1.8788533210754395	22000471.34863336
1.8824186325073242	22934833.45798817
1.8859784603118896	22398634.628458254
1.8895330429077148	22200503.040531173
1.8930821418762207	23612725.75007163
1.8966259956359863	23427005.802859306
1.9001644849777222	19467556.19820847
1.9036977291107178	15959689.08540581
1.9072256088256836	16445244.853265023
1.9107483625411987	16425785.602231057
1.9142658710479736	13721506.268004118
1.9177782535552979	13450837.46247805
1.9212853908538818	15340282.289882086
1.9247875213623047	15387368.62745483
1.9282845258712769	15564586.41643217
1.9317764043807983	17433361.9816547
1.9352631568908691	18108389.574932363
1.9387450218200684	17111239.38910918
1.942221760749817	16814411.29178312
1.9456936120986938	17189594.73189124
1.9491604566574097	17411550.918782543
1.952622413635254	16814093.675917607
1.956079363822937	15819464.548830204
1.959531545639038	16308112.892633429
1.962978720664978	17180335.122243237
1.966421127319336	18466782.22928706
1.9698586463928223	20653629.130467992
1.9732913970947266	21587361.2465777
1.9767193794250488	21949516.502217613
1.9801424741744995	23374201.57711711
1.9835609197616577	24775356.69514857
1.9869745969772339	24816678.849986658
1.990383505821228	23470309.216757014
1.9937876462936401	22873739.273122214
1.9971871376037598	23017882.27691176
2.000581979751587	23663005.40944232
2.003972291946411	25561593.901234843
2.007357597351074	26927889.449021097
2.0107386112213135	27948478.781477693
2.0141148567199707	28526553.003750496
2.017486572265625	27770426.29441676
2.0208535194396973	27882770.492681313
2.0242159366607666	29272996.091477986
2.027573823928833	30232252.777315494
2.0309269428253174	30788668.023417685
2.034275770187378	31416957.6624222
2.0376198291778564	31890194.997029554
2.040959596633911	32318113.51726996
2.044294595718384	32885129.50320413
2.0476250648498535	33493619.166617498
2.0509510040283203	33716599.4882076
2.054272413253784	33439808.10654281
2.057589530944824	33495272.20116662
2.0609018802642822	33992191.88163577
2.0642096996307373	34441398.742695786
2.0675129890441895	34761451.62889465
2.0708119869232178	34891053.97710587
2.074106216430664	34812055.609725654
2.0773961544036865	34780571.82941068
2.080681324005127	34937325.94779734
2.0839622020721436	35150439.27842095
2.087238311767578	35327731.302472
2.090510129928589	35351150.48794621
2.0937774181365967	35265846.20496531
2.0970399379730225	35302026.823400445
2.1002981662750244	35387051.12443108
2.1035518646240234	35362208.54302617
2.1068007946014404	35333110.49429444
2.1100454330444336	35555822.87343374
2.1132853031158447	35860088.20669512
2.116520881652832	35899394.71726906
2.1197516918182373	35886882.47360136
2.1229779720306396	36006691.85384133
2.12619948387146	36109930.153875396
2.1294167041778564	36145182.039523214
2.132629156112671	36202218.86495595
2.1358368396759033	36224870.054313354
2.139039993286133	36163364.78535685
2.1422386169433594	36153732.41988503
2.145432472229004	36200483.951839924
2.1486217975616455	36186831.04338584
2.151806354522705	36129188.21384902
2.1549863815307617	36125892.13567654
2.1581614017486572	36199509.17740109
2.16133189201355	36265131.51404639
2.1644976139068604	36278369.938754454
2.167658567428589	36244248.170779765
2.1708147525787354	36153805.11009833
2.173966407775879	36023745.90172945
2.1771130561828613	35969298.152268395
2.1802549362182617	36066857.29373794
2.183391809463501	36186424.55686861
2.1865241527557373	36235680.0268716
2.1896514892578125	36250966.37563362
2.1927738189697266	36175113.43670274
2.1958916187286377	35948500.18567728
2.1990041732788086	35761419.360918745
2.2021119594573975	35768912.20880844
2.2052149772644043	35852493.23044866
2.208312749862671	35932329.18899088
2.2114057540893555	35981688.403001025
2.214493751525879	35937309.58337391
2.217576742172241	35838667.22333353
2.2206547260284424	35811842.952735834
2.2237277030944824	35837640.13333404
2.2267956733703613	35782012.312005416
2.2298583984375	35685349.600731544
2.2329163551330566	35656417.81838361
2.235969066619873	35711285.11865343
2.2390167713165283	35719842.4088282
2.2420592308044434	35465299.98211683
2.2450966835021973	35049686.5902674
2.248128890991211	34849888.92314515
2.2511560916900635	34985971.09122901
2.254178285598755	35216977.234251074
2.257194995880127	35338288.44736379
2.260206699371338	35279801.79422632
2.2632133960723877	34905617.94998066
2.266214609146118	34368862.56934213
2.2692108154296875	34109159.3857387
2.2722020149230957	34261885.716947645
2.2751877307891846	34544116.91728473
2.278168201446533	34506367.43397958
2.2811436653137207	34156348.036785334
2.284113883972168	34045411.69980973
2.287078857421875	34208687.52176946
2.290038824081421	33739858.43151398
2.2929933071136475	31784351.12529147
2.295942783355713	28677401.60974846
2.298887014389038	25546946.524923023
2.301826238632202	23090759.350791086
2.304760217666626	21245528.149676748
2.3076889514923096	19977236.016698916
2.310612440109253	19939129.62469543
2.3135311603546143	20792535.54759068
2.3164443969726562	21060828.05128229
2.319352865219116	20604620.328610927
2.322256088256836	20161535.874505464
2.3251543045043945	20034482.487917714
2.328047275543213	20211484.747676533
2.330935478210449	20702692.88246917
2.3338186740875244	21512067.72556301
2.3366971015930176	22488499.322283275
2.3395702838897705	23576645.64602638
2.3424389362335205	24917302.49103245
2.3453025817871094	26578680.536370605
2.348161458969116	27562629.87191619
2.351015567779541	26919561.672315985
2.353865146636963	25475559.46469641
2.3567099571228027	24348340.69054629
2.3595502376556396	24243111.766319077
2.3623859882354736	25345135.996391363
2.3652172088623047	25747952.4434969
2.368043899536133	24396956.516376067
2.370866537094116	24264929.555445515
2.3736846446990967	25972174.971602842
2.3764986991882324	25295644.092292227
2.3793084621429443	22314362.10438856
2.3821144104003906	21094513.237844586
2.384916305541992	22773732.299265213
2.387714147567749	25869952.984315738
2.3905084133148193	28263674.333305784
2.393299102783203	28464085.843050886
2.3960859775543213	26251845.897312175
2.398869514465332	23492108.721640043
2.4016497135162354	22030689.389251623
2.4044265747070312	21831252.440674435
2.407200336456299	22342726.131562676
2.409970998764038	22891387.68075868
2.4127390384674072	23092868.561591502
2.415503978729248	23370606.788032427
2.418266534805298	24075694.72075905
2.4210267066955566	24706026.7892064
2.4237842559814453	24739520.7555743
2.426539897918701	24291737.94376648
2.429293394088745	23605568.63358201
2.4320452213287354	23123695.72063861
2.4347951412200928	23267389.402207933
2.4375438690185547	23499396.231471397
2.440291166305542	23012615.42123495
2.443037271499634	21887328.110280864
2.445782423019409	20788412.601109497
2.4485268592834473	19923472.528695837
2.451270818710327	19501120.175859377
2.454014539718628	20685599.605107572
2.4567582607269287	22416887.320470516
2.4595019817352295	22136869.017796174
2.4622461795806885	21805586.496384915
2.4649908542633057	21861959.149835028
2.4677364826202393	19828216.590934627
2.4704833030700684	16683568.683456382
2.473231554031372	13837023.863270182
2.4759814739227295	11672104.302916396
