#wavelength	surface flux
0.6450077295303345	196693.55851281938
0.6472567915916443	297550.72460091184
0.6494921445846558	360916.9837505516
0.6517150402069092	380318.40564389277
0.6539263725280762	396910.9870483854
0.6561272740364075	413209.0493375266
0.6583186388015747	429680.91137369093
0.6605015397071838	446409.6819282197
0.6626768708229065	462825.984882051
0.6648455858230591	478151.8428859799
0.6670085787773132	480263.39563220844
0.6691668033599854	446778.51644952
0.6713210344314575	431656.92019397934
0.6734722256660461	491324.83289874985
0.6756211519241333	556836.075366517
0.6777685880661011	586583.9928307001
0.6799154281616211	606687.4343197573
0.6820623278617859	626164.349582232
0.6842101216316223	646400.393678696
0.6863595843315125	666350.5276703286
0.688511312007904	685036.8509009738
0.6906660795211792	701358.0568427776
0.6928245425224304	718567.1218397793
0.6949873566627502	741276.1438138117
0.6971551775932312	765358.6458280775
0.6993286609649658	786651.9330115117
0.7015084028244019	806727.8922501464
0.7036949396133423	827745.6347509567
0.7058889269828796	849759.6974972672
0.7080909013748169	870977.1090594367
0.710301399230957	891917.5001030945
0.712520956993103	912835.3781264409
0.7147500514984131	930560.6996605321
0.7169892191886902	945585.1292065812
0.7192389369010925	963865.0467762866
0.7214996814727783	983633.4419220081
0.723771870136261	1000149.4311649483
0.7260559797286987	1014956.7722125327
0.7283523678779602	1028618.4969760601
0.7306615710258484	1041800.513627738
0.7329838871955872	1055281.6721741946
0.7353196740150452	1065320.50533913
0.7376693487167358	1070285.426619353
0.7400332689285278	1069081.990946667
0.7424117922782898	1057511.339653677
0.7448052167892456	1034367.325394142
0.7472138404846191	996255.4781349875
0.7496379613876343	936554.8265925719
0.7520779371261597	849100.8326648608
0.7545340061187744	728227.7691498472
0.7570064663887024	572740.1179211965
0.7594954967498779	392554.6773297697
0.7620013952255249	214949.41087795983
0.7645244002342224	82098.73057219727
0.7670646905899048	20546.998329261332
0.7696225643157959	23814.942013040392
0.7721980810165405	103415.09907744548
0.7747915983200073	275841.8076949843
0.7774031162261963	486688.8051482535
0.7800329327583313	701181.4059538909
0.7826811671257019	961659.8257308424
0.7853479981422424	1225278.685143516
0.7880334854125977	1420991.0278722965
0.7907378077507019	1472605.9838227204
0.7934610247612	1331244.6077996383
0.7962033748626709	1405719.1943874378
0.7989648580551147	1797117.4399957375
0.801745593547821	2062824.7920780513
0.8045456409454346	2170876.9669559663
0.8073651194572449	2255148.746157409
0.8102040886878967	2323200.922601586
0.8130625486373901	2395304.088599322
0.8159406185150146	2486651.300915383
0.8188382983207703	2578237.4690352003
0.8217556476593018	2662070.187703435
0.8246926665306091	2748737.311219868
0.8276493549346924	2832554.9895890523
0.8306257724761963	2909230.0755028785
0.8336219191551208	2986783.025368938
0.8366377949714661	3063139.078642811
0.8396733403205872	3149442.5854509645
0.8427285552024841	3255174.9872182
0.8458034992218018	3357354.382626408
0.8488980531692505	3436652.8237355812
0.8520121574401855	3510920.858264352
0.8551458716392517	3617857.8542499156
0.8582990765571594	3724213.226098381
0.8614717125892639	3776568.692309256
0.8646637797355652	3833393.156725001
0.8678751587867737	3942764.6582447663
0.8711057901382446	4059277.5059191664
0.8743556141853333	4159881.75848184
0.87762451171875	4248508.005157111
0.8809124231338501	4334022.3381886035
0.8842192888259888	4432847.190497992
0.8875449895858765	4517788.479334532
0.8908893465995789	4550906.059703508
0.894252359867096	4594465.524715012
0.8976338505744934	4741353.340143006
0.9010337591171265	4942118.134245159
0.9044519662857056	5112431.7115305355
0.9078882932662964	5249953.33165173
0.9113426208496094	5362752.379591747
0.914814829826355	5435872.657940158
0.9183048605918884	5514763.026524669
0.9218124747276306	5585181.298700389
0.925337553024292	5383507.853718956
0.9288799166679382	4943536.707906959
0.9324395060539246	4800986.56978828
0.9360161423683167	5073820.049408311
0.9396095871925354	5409459.807755706
0.943219780921936	5482596.643171639
0.9468464851379395	5430009.143767791
0.9504896402359009	5576769.9863420585
0.9541489481925964	5828642.152683821
0.9578243494033813	5902010.0699913865
0.9615156054496765	5752350.634230377
0.9652225375175476	5723349.971275079
0.9689450263977051	6040087.4391317675
0.9726828336715698	6592767.084688105
0.9764357805252075	7022351.205933446
0.9802037477493286	7264067.2892223215
0.983986496925354	7497515.28380429
0.9877838492393494	7752210.334587287
0.9915955662727356	8026491.239879232
0.9954215884208679	8269670.019431696
0.9992615580558777	8463253.260397162
1.0031154155731201	8641793.44907464
1.0069829225540161	8860248.423406003
1.0108637809753418	9115946.328573296
1.0147579908370972	9372420.453028075
1.018665075302124	9589179.949098488
1.022585153579712	9728028.346565848
1.0265177488327026	9825490.980566408
1.0304628610610962	9991844.893003134
1.0344202518463135	10275848.796410145
1.0383895635604858	10554147.727382364
1.0423706769943237	10760151.197587956
1.0463634729385376	10935151.51548186
1.0503677129745483	11100566.111210845
1.0543830394744873	11300173.90047382
1.058409333229065	11518486.97036152
1.0624464750289917	11714176.759791365
1.0664942264556885	11890910.785694625
1.0705522298812866	12063164.36986595
1.0746204853057861	12253076.256805055
1.0786986351013184	12454189.857089363
1.0827864408493042	12638211.047934014
1.086883783340454	12745685.726235837
1.0909905433654785	12734997.94606251
1.0951062440872192	12552397.156817893
1.0992310047149658	11720797.80444277
1.10336434841156	10408587.872680841
1.1075061559677124	9901148.291977042
1.1116561889648438	9851118.91257003
1.115814208984375	9427153.193479596
1.1199802160263062	9153880.002257403
1.124153733253479	9458884.818626646
1.1283347606658936	9760411.846189113
1.1325229406356812	9293990.661794677
1.1367181539535522	9563283.071813833
1.1409201622009277	10957839.83561402
1.145128846168518	11781317.46652985
1.1493438482284546	10954265.977964818
1.1535650491714478	9097733.990138605
1.1577922105789185	8450930.734361988
1.1620250940322876	9397965.564622303
1.1662636995315552	10829471.317575198
1.170507550239563	11812944.42026509
1.174756646156311	12800124.460031971
1.1790107488632202	14239803.333423603
1.1832695007324219	15365571.579962421
1.1875330209732056	15995192.352782698
1.191800832748413	16561997.65898343
1.1960728168487549	17230975.907461874
1.2003488540649414	17688869.46672359
1.2046287059783936	17934670.343339115
1.2089121341705322	18193242.249175485
1.2131990194320679	18536974.69313519
1.2174891233444214	18941526.86049251
1.2217823266983032	19331039.50526585
1.2260783910751343	19665242.283834945
1.230377197265625	19948212.940723017
1.2346785068511963	20202564.33938876
1.238982081413269	20475161.23166111
1.2432878017425537	20727675.411576044
1.2475954294204712	20881111.812167976
1.2519049644470215	20987028.391945112
1.256216049194336	21263810.97589608
1.2605286836624146	21577790.969748475
1.2648425102233887	21745450.675079174
1.2691574096679688	21884628.154352933
1.2734732627868652	22053583.759417057
1.2777899503707886	22222044.261618245
1.2821072340011597	22335206.75784366
1.2864248752593994	22338407.46688172
1.2907428741455078	22234399.493124075
1.2950609922409058	22274030.36284664
1.2993791103363037	22351372.282652546
1.303696870803833	22240466.078813054
1.3080145120620728	22240366.09447946
1.3123314380645752	22487734.169940867
1.3166478872299194	22813944.78091787
1.3209635019302368	22513307.245428782
1.3252781629562378	21083181.71015639
1.3295916318893433	17957962.242810458
1.3339040279388428	12505611.510708546
1.3382149934768677	6693499.980805865
1.3425244092941284	3888591.956262124
1.3468321561813354	3852517.5517927227
1.3511382341384888	3369807.070264916
1.3554422855377197	2412804.4402582888
1.3597444295883179	2201592.090311338
1.3640443086624146	2449936.6830429784
1.3683418035507202	3159461.1844027103
1.3726370334625244	5059336.315523753
1.3769296407699585	6952482.010767786
1.381219506263733	5539822.385166165
1.3855066299438477	2657793.5953989425
1.3897908926010132	1707451.6974065783
1.3940720558166504	1916886.068077731
1.3983501195907593	2409869.3871278833
1.4026249647140503	3807637.398144366
1.4068963527679443	4938638.728085272
1.4111642837524414	3934667.3722985224
1.4154287576675415	3009353.7074063937
1.419689416885376	3048117.475015584
1.4239463806152344	2972253.7370438897
1.4281994104385376	3582714.6417455296
1.4324485063552856	4105659.995093455
1.436693549156189	4154691.6266202694
1.440934419631958	4909264.318078523
1.4451709985733032	6832602.482107139
1.449403166770935	9572785.477666022
1.453631043434143	11394500.448518082
1.4578542709350586	12243932.923739243
1.4620729684829712	13225780.88109159
1.4662868976593018	13379292.16923814
1.4704961776733398	12647334.868643232
1.4747005701065063	12432597.495017752
1.4788999557495117	13153437.742263628
1.4830944538116455	15023415.57298713
1.4872838258743286	17012915.810187936
1.491468071937561	17575845.254784998
1.4956470727920532	17532773.73882009
1.4998208284378052	18630936.99696721
1.5039892196655273	20144446.410531256
1.5081522464752197	20486458.77293791
1.5123097896575928	20909932.532828465
1.5164618492126465	22445813.78051567
1.5206083059310913	24625362.23425445
1.5247491598129272	26158442.380082063
1.5288842916488647	26412878.057546154
1.5330137014389038	26912693.540558144
1.5371372699737549	27841150.296293918
1.541254997253418	28248849.21693049
1.545366883277893	28711972.43995803
1.5494728088378906	29497581.489357702
1.5535727739334106	29939373.944314808
1.5576666593551636	29871830.511106312
1.561754584312439	30194770.80870898
1.5658363103866577	31232776.614282645
1.5699119567871094	31877031.974201385
1.5739814043045044	31478910.919095747
1.5780447721481323	30767677.27493222
1.582101821899414	31283816.78461478
1.5861525535583496	32728749.933547623
1.5901970863342285	33369977.148656573
1.5942351818084717	33136976.775972106
1.5982669591903687	32737331.103855323
1.6022924184799194	32645718.991956685
1.606311559677124	32859460.00495517
1.6103241443634033	32851766.05368686
1.6143304109573364	32512983.80821646
1.6183301210403442	32067717.233843703
1.6223233938217163	31606085.12593772
1.6263102293014526	31080528.587479457
1.6302905082702637	30487489.010318518
1.634264349937439	31115808.513439666
1.638231635093689	33180075.48077481
1.6421923637390137	34287327.77575174
1.646146535873413	33457003.928371448
1.6500942707061768	32455804.087534618
1.6540353298187256	32905429.829250604
1.6579699516296387	33623390.42818712
1.661897897720337	32448796.049209602
1.6658192873001099	29043333.40804923
1.6697341203689575	27704330.290874496
1.6736423969268799	30501817.022248082
1.677544116973877	32501970.787565544
1.6814392805099487	32364110.588139508
1.6853278875350952	32015542.687833134
1.6892099380493164	31178752.392056193
1.6930854320526123	29223861.484690666
1.696954369544983	27188407.625946507
1.7008168697357178	26881755.33439659
1.7046726942062378	27682605.191055134
1.708522081375122	28516810.3577104
1.712364912033081	29220474.982184924
1.7162011861801147	30059390.00499418
1.7200311422348022	31013082.28235141
1.723854422569275	31146710.701612145
1.7276713848114014	30381879.230117004
1.731481909751892	28960046.390116926
1.7352858781814575	27373702.35865369
1.7390835285186768	26343759.717901852
1.7428747415542603	25244124.46914853
1.7466596364974976	23469261.16421534
1.7504380941390991	21300764.27564728
1.7542102336883545	20023475.495808937
1.7579760551452637	22291727.256607443
1.7617355585098267	25183259.902364373
1.7654887437820435	23508126.11498311
1.7692357301712036	18713534.175542682
1.7729763984680176	13583861.946587006
1.776710867881775	9097731.31188148
1.7804391384124756	7371950.909812767
1.7841613292694092	7576921.094962069
1.7878772020339966	6884504.079950139
1.7915871143341064	7189299.278721313
1.7952908277511597	9269913.174213424
1.7989884614944458	9739983.583165871
1.8026801347732544	6799710.246087618
1.806365728378296	3550721.7546703927
1.8100452423095703	3649195.6557098036
1.8137187957763672	4722675.578300898
1.817386507987976	4058405.3934475235
1.8210482597351074	4687362.523556546
1.8247040510177612	5223019.831274502
1.828354001045227	3200659.0820546667
1.8319982290267944	2582163.5952124614
1.8356364965438843	4396920.843792188
1.8392690420150757	6194880.56319198
1.8428958654403687	6339385.853711475
1.8465168476104736	6118947.579691254
1.8501322269439697	6326538.504287196
1.8537418842315674	4964227.0832529785
1.8573459386825562	3424062.8503372055
1.860944390296936	2922675.4866237487
1.864537239074707	2263691.5020136093
1.8681244850158691	2554737.401901623
1.871706247329712	4329617.72625395
1.8752825260162354	6462405.261294321
1.8788533210754395	9140230.926182177
1.8824186325073242	11070544.332668532
1.8859784603118896	10338760.750700835
1.8895330429077148	9647816.926754216
1.8930821418762207	11572722.904224772
1.8966259956359863	11386392.179300515
1.9001644849777222	6442276.326106966
1.9036977291107178	2966649.910939376
1.9072256088256836	3292618.604516626
1.9107483625411987	3260287.076818794
1.9142658710479736	1942822.332747312
1.9177782535552979	1778386.9097808718
1.9212853908538818	2549508.3687718282
1.9247875213623047	2611825.9304822003
1.9282845258712769	2709670.047404834
1.9317764043807983	3583165.55953298
1.9352631568908691	4003375.9460444273
1.9387450218200684	3787858.3280492458
1.942221760749817	4132650.0660924255
1.9456936120986938	4775707.403427486
1.9491604566574097	5448149.137716562
1.952622413635254	5261919.815052925
1.956079363822937	4156676.031604078
1.959531545639038	4017542.0616756706
1.962978720664978	4486992.233531863
1.966421127319336	5761658.9508604575
1.9698586463928223	8072892.071323354
1.9732913970947266	9247170.203544108
1.9767193794250488	9907746.351575043
1.9801424741744995	11704750.155747423
1.9835609197616577	13548635.076121256
1.9869745969772339	13718422.439534064
1.990383505821228	11974144.111084491
1.9937876462936401	11318367.570869911
1.9971871376037598	11657284.690876473
2.000581979751587	12668189.51955166
2.003972291946411	15574510.353141751
2.007357597351074	17970111.800997857
2.0107386112213135	20046732.422481656
2.0141148567199707	20840755.14293678
2.017486572265625	19187570.41056454
2.0208535194396973	19703550.025685497
2.0242159366607666	22666217.047509696
2.027573823928833	24539477.618276436
2.0309269428253174	25756871.13822541
2.034275770187378	27335709.96813725
2.0376198291778564	28615749.35989443
2.040959596633911	29783229.83505379
2.044294595718384	31368408.829294365
2.0476250648498535	33012077.406360395
2.0509510040283203	33357554.648674347
2.054272413253784	32475073.997111093
2.057589530944824	32705525.92189438
2.0609018802642822	34040697.010788746
2.0642096996307373	35151833.21696657
2.0675129890441895	35889648.0365928
2.0708119869232178	36190618.095270656
2.074106216430664	35974154.62056315
2.0773961544036865	35793773.69255756
2.080681324005127	36113669.17889817
2.0839622020721436	36547294.15258087
2.087238311767578	36842858.0713992
2.090510129928589	36808370.10798269
2.0937774181365967	36466812.10892767
2.0970399379730225	36372332.090598345
2.1002981662750244	36400346.02118856
2.1035518646240234	36126144.379744746
2.1068007946014404	35756755.222910956
2.1100454330444336	35992660.32824312
2.1132853031158447	36459644.679997705
2.116520881652832	36199748.94498641
2.1197516918182373	35829051.79579321
2.1229779720306396	35960588.22794996
2.12619948387146	36207882.64389958
2.1294167041778564	36273568.678740576
2.132629156112671	36271817.87196494
2.1358368396759033	35933388.63543503
2.139039993286133	35204715.37536482
2.1422386169433594	34500821.324303344
2.145432472229004	33915284.539840035
2.1486217975616455	33466347.008688517
2.151806354522705	32949074.20193706
2.1549863815307617	32852073.165894277
2.1581614017486572	32954398.54663447
2.16133189201355	32404098.20196433
2.1644976139068604	31876802.229278803
2.167658567428589	31728218.934582673
2.1708147525787354	31708473.514080606
2.173966407775879	31550145.033881523
2.1771130561828613	31158603.523793947
2.1802549362182617	30640155.52204533
2.183391809463501	29869897.053835824
2.1865241527557373	28860676.845918342
2.1896514892578125	27505113.75234894
2.1927738189697266	24914727.414866365
2.1958916187286377	20870865.5522501
2.1990041732788086	17109073.05185171
2.2021119594573975	15040801.37769265
2.2052149772644043	14275110.219599063
2.208312749862671	14498257.482677018
2.2114057540893555	15771057.634508302
2.214493751525879	17062145.700522687
2.217576742172241	17152331.438707817
2.2206547260284424	16712187.54999972
2.2237277030944824	16303601.019503877
2.2267956733703613	14920596.156098196
2.2298583984375	12934951.430989718
2.2329163551330566	11708546.836983155
2.235969066619873	11383021.680749882
2.2390167713165283	11038336.482250785
2.2420592308044434	9885564.815232458
2.2450966835021973	8612133.164549062
2.248128890991211	8795040.747613098
2.2511560916900635	10012554.174345456
2.254178285598755	10722865.006719833
2.257194995880127	11184097.597772302
2.260206699371338	11240599.358177813
2.2632133960723877	10029231.760592004
2.266214609146118	8482061.206689434
2.2692108154296875	7955552.7138173
2.2722020149230957	8647565.184923144
2.2751877307891846	9525382.475861968
2.278168201446533	9455518.566598285
2.2811436653137207	8721433.360818528
2.284113883972168	8114554.400201884
2.287078857421875	7602539.703833979
2.290038824081421	7084744.394253537
2.2929933071136475	6817778.112566529
2.295942783355713	6757863.598666124
2.298887014389038	6725749.756705759
2.301826238632202	6846110.304747489
2.304760217666626	7414554.691652767
2.3076889514923096	8455729.219668126
2.310612440109253	9465333.134620829
2.3135311603546143	9189394.00152247
2.3164443969726562	7028382.5958717065
2.319352865219116	4882935.628489038
2.322256088256836	4247870.606091872
2.3251543045043945	4221689.93552735
2.328047275543213	4135388.3219073247
2.330935478210449	4190015.606185744
2.3338186740875244	4301383.024625387
2.3366971015930176	4331725.572969875
2.3395702838897705	4334297.442635691
2.3424389362335205	4212741.036213488
2.3453025817871094	3974387.3230925696
2.348161458969116	3909151.417797164
2.351015567779541	4364394.091945857
2.353865146636963	5288214.871330079
2.3567099571228027	6099686.709290629
2.3595502376556396	6712934.391626366
2.3623859882354736	7357529.860228094
2.3652172088623047	7198758.88328749
2.368043899536133	5539029.7136205165
2.370866537094116	3707644.9270698964
2.3736846446990967	3277958.7322222074
2.3764986991882324	3612410.0496917292
2.3793084621429443	3738590.160966107
2.3821144104003906	4004309.7949190233
2.384916305541992	4830237.816743967
2.387714147567749	5702502.743965266
2.3905084133148193	5922828.91144982
2.393299102783203	5790673.962554221
2.3960859775543213	5701044.263125673
2.398869514465332	5708753.651282421
2.4016497135162354	5602535.033150123
2.4044265747070312	5440024.889734646
2.407200336456299	5913345.553611214
2.409970998764038	6917393.214536231
2.4127390384674072	7554969.281572104
2.415503978729248	7844510.151365668
2.418266534805298	8528045.596234277
2.4210267066955566	9116780.046757398
2.4237842559814453	8516039.090131765
2.426539897918701	7515602.866385735
2.429293394088745	7664036.938460987
2.4320452213287354	8605381.902249482
2.4347951412200928	9075178.658891384
2.4375438690185547	8940899.97560295
2.440291166305542	8668643.084519159
2.443037271499634	8154482.631469912
2.445782423019409	7214602.393353384
2.4485268592834473	6206856.317869191
2.451270818710327	5910226.206705386
2.454014539718628	6931250.440703019
2.4567582607269287	8051394.590562164
2.4595019817352295	7887313.711260047
2.4622461795806885	7975259.929701031
2.4649908542633057	8093644.322379311
2.4677364826202393	6606498.895097654
2.4704833030700684	4735488.269515425
2.473231554031372	3486354.591697448
2.4759814739227295	2708846.2117476957
2.4787333011627197	2442030.5690075774
2.481487512588501	2821033.9057660024
