#wavelength	surface flux
0.6450077295303345	737961.1624747813
0.6472567915916443	1153576.798126629
0.6494921445846558	1484592.8011178293
0.6517150402069092	1675863.437548712
0.6539263725280762	1867464.9867861883
0.6561272740364075	2067338.7272959743
0.6583186388015747	2271792.5434831018
0.6605015397071838	2472782.0812241645
0.6626768708229065	2652745.7044535005
0.6648455858230591	2762233.0486519085
0.6670085787773132	2606485.831740064
0.6691668033599854	2020580.1902064264
0.6713210344314575	1714784.1691588797
0.6734722256660461	2444742.597686366
0.6756211519241333	3515345.3410194498
0.6777685880661011	4192766.576355029
0.6799154281616211	4605517.361785682
0.6820623278617859	4930643.545169235
0.6842101216316223	5221503.1190715
0.6863595843315125	5483606.570790478
0.688511312007904	5704618.022324962
0.6906660795211792	5892985.535866584
0.6928245425224304	6097373.285760967
0.6949873566627502	6357220.554459162
0.6971551775932312	6644477.757706246
0.6993286609649658	6872557.529496448
0.7015084028244019	7014657.001152967
0.7036949396133423	7101218.375063954
0.7058889269828796	7143607.473047696
0.7080909013748169	7143179.950031292
0.710301399230957	7101079.354712872
0.712520956993103	7015297.394996576
0.7147500514984131	6877197.302078225
0.7169892191886902	6686310.882810214
0.7192389369010925	6451405.755686113
0.7214996814727783	6174164.512050851
0.723771870136261	5854371.254515398
0.7260559797286987	5499100.575631219
0.7283523678779602	5113487.815830075
0.7306615710258484	4721168.354109675
0.7329838871955872	4334261.049983835
0.7353196740150452	3914309.721494132
0.7376693487167358	3459693.6729188305
0.7400332689285278	3003163.675358857
0.7424117922782898	2554290.4901220235
0.7448052167892456	2121699.8785984204
0.7472138404846191	1710293.3109245952
0.7496379613876343	1324776.8225019155
0.7520779371261597	975659.3471281041
0.7545340061187744	671711.2804742676
0.7570064663887024	420781.7510216705
0.7594954967498779	230125.16610608684
0.7620013952255249	102721.27244512939
0.7645244002342224	33778.21910527813
0.7670646905899048	8290.096747048887
0.7696225643157959	9275.851946655557
0.7721980810165405	42294.56669684091
0.7747915983200073	131973.4804534902
0.7774031162261963	276250.78039814543
0.7800329327583313	500702.4372279292
0.7826811671257019	903608.9366535036
0.7853479981422424	1465715.11705212
0.7880334854125977	2079705.633281859
0.7907378077507019	2478111.9315226586
0.7934610247612	2488396.334092624
0.7962033748626709	3225772.3061587745
0.7989648580551147	5083016.21226058
0.801745593547821	6847694.178928438
0.8045456409454346	8282992.154557316
0.8073651194572449	9736378.001781717
0.8102040886878967	11259377.688046448
0.8130625486373901	12873772.852531962
0.8159406185150146	14265525.730288763
0.8188382983207703	15660399.053077713
0.8217556476593018	18182203.89125956
0.8246926665306091	21333958.020587597
0.8276493549346924	24080209.728095584
0.8306257724761963	26818557.6078189
0.8336219191551208	29864987.659882315
0.8366377949714661	32996901.66795084
0.8396733403205872	36164032.22119586
0.8427285552024841	39523320.40399917
0.8458034992218018	42349539.023298666
0.8488980531692505	41524883.65351384
0.8520121574401855	39565166.285279885
0.8551458716392517	45918403.419923216
0.8582990765571594	53204446.20264755
0.8614717125892639	48225081.58142514
0.8646637797355652	41541118.02586904
0.8678751587867737	43371809.33039478
0.8711057901382446	46969688.34648254
0.8743556141853333	50154632.22216635
0.87762451171875	55136241.44748574
0.8809124231338501	59701881.02034926
0.8842192888259888	63713263.25372463
0.8875449895858765	66280373.3202449
0.8908893465995789	64703173.963606216
0.894252359867096	65670280.15723036
0.8976338505744934	77380036.8026524
0.9010337591171265	93840624.9747871
0.9044519662857056	106376213.9830265
0.9078882932662964	115661076.53635912
0.9113426208496094	124366650.7890896
0.914814829826355	130943829.3865855
0.9183048605918884	136356439.60689095
0.9218124747276306	138801342.82308576
0.925337553024292	132149698.31643811
0.9288799166679382	125505950.10127157
0.9324395060539246	128825853.57484151
0.9360161423683167	137678964.82666117
0.9396095871925354	144646853.6538911
0.943219780921936	146064910.33393955
0.9468464851379395	144274825.8112989
0.9504896402359009	152467757.58990848
0.9541489481925964	173192405.19139054
0.9578243494033813	183632475.27540785
0.9615156054496765	172074524.39091042
0.9652225375175476	157751461.19610894
0.9689450263977051	169944086.51658937
0.9726828336715698	201401546.83705595
0.9764357805252075	217733635.51906866
0.9802037477493286	219906609.6583471
0.983986496925354	223059113.4717323
0.9877838492393494	210003949.0722562
0.9915955662727356	179093674.29961574
0.9954215884208679	156419141.7256168
0.9992615580558777	139645224.04906654
1.0031154155731201	128426245.51421615
1.0069829225540161	133690081.54441577
1.0108637809753418	149462197.336878
1.0147579908370972	167329735.50912872
1.018665075302124	179955350.91795987
1.022585153579712	182775661.3663227
1.0265177488327026	184366252.50145
1.0304628610610962	197340866.040226
1.0344202518463135	216926101.8419514
1.0383895635604858	231009972.92892173
1.0423706769943237	239157117.0847047
1.0463634729385376	248587289.4108447
1.0503677129745483	258496580.02738166
1.0543830394744873	269005697.1322155
1.058409333229065	280360569.0877999
1.0624464750289917	289469127.9379859
1.0664942264556885	298013676.52535576
1.0705522298812866	308103484.6142519
1.0746204853057861	320011554.48064584
1.0786986351013184	330256838.8735495
1.0827864408493042	336928320.38138825
1.086883783340454	332958679.8855264
1.0909905433654785	312847572.1228441
1.0951062440872192	288382104.4734768
1.0992310047149658	245922425.6199398
1.10336434841156	183984778.83577156
1.1075061559677124	149580451.77939853
1.1116561889648438	137609706.68822652
1.115814208984375	129388881.68771918
1.1199802160263062	136843730.53981507
1.124153733253479	146516729.13799083
1.1283347606658936	132266057.87246224
1.1325229406356812	102075765.98802926
1.1367181539535522	101476092.65348144
1.1409201622009277	138277247.91132492
1.145128846168518	175773258.9693956
1.1493438482284546	177602883.75129974
1.1535650491714478	154932820.12514102
1.1577922105789185	144030994.23247695
1.1620250940322876	138708031.30755576
1.1662636995315552	133889476.48989415
1.170507550239563	130966130.25724436
1.174756646156311	131241169.43722574
1.1790107488632202	151638987.00820518
1.1832695007324219	185574466.06877074
1.1875330209732056	206450328.33700565
1.191800832748413	236711709.80551544
1.1960728168487549	279234147.75906724
1.2003488540649414	298621650.1428278
1.2046287059783936	308507093.212524
1.2089121341705322	316974841.3836919
1.2131990194320679	327655129.9921543
1.2174891233444214	350378563.27947825
1.2217823266983032	369193564.3874288
1.2260783910751343	379457064.1913985
1.230377197265625	386671367.38793665
1.2346785068511963	382473183.85419106
1.238982081413269	351883345.06408376
1.2432878017425537	313134124.4042518
1.2475954294204712	296276491.99527574
1.2519049644470215	292845294.4539764
1.256216049194336	333520461.8887165
1.2605286836624146	396068535.61886233
1.2648425102233887	420935545.5429456
1.2691574096679688	437595752.1331936
1.2734732627868652	457030356.2309582
1.2777899503707886	459319230.24062145
1.2821072340011597	448553098.9173931
1.2864248752593994	442023685.2269415
1.2907428741455078	439954373.90436625
1.2950609922409058	434421346.4433872
1.2993791103363037	413851024.6870386
1.303696870803833	396862280.83354354
1.3080145120620728	398061051.79475254
1.3123314380645752	399939465.2021755
1.3166478872299194	393856094.24606067
1.3209635019302368	360877082.77456087
1.3252781629562378	306266351.9416566
1.3295916318893433	227272949.1832085
1.3339040279388428	118783403.73738211
1.3382149934768677	44152895.14671591
1.3425244092941284	24352017.175561182
1.3468321561813354	22615783.318416674
1.3511382341384888	21717451.14112512
1.3554422855377197	18195621.662926294
1.3597444295883179	21983102.90856241
1.3640443086624146	30841338.800348602
1.3683418035507202	29556978.959941305
1.3726370334625244	26540780.056917015
1.3769296407699585	29959802.68576624
1.381219506263733	24966234.04085983
1.3855066299438477	15648839.03474903
1.3897908926010132	15312126.244191911
1.3940720558166504	18922877.6118514
1.3983501195907593	18929138.66988125
1.4026249647140503	20000200.063622963
1.4068963527679443	23639722.21345754
1.4111642837524414	25430332.719622605
1.4154287576675415	26173874.833815686
1.419689416885376	24575975.354150493
1.4239463806152344	22531948.65983386
1.4281994104385376	20089158.90171568
1.4324485063552856	16875897.33908386
1.436693549156189	18724654.427204628
1.440934419631958	24906629.19880387
1.4451709985733032	34671633.84488071
1.449403166770935	45974665.62766073
1.453631043434143	46620981.30609447
1.4578542709350586	42916735.84519548
1.4620729684829712	49562584.19435889
1.4662868976593018	56169514.89623471
1.4704961776733398	46686175.769878216
1.4747005701065063	35497099.887328684
1.4788999557495117	41483476.23098008
1.4830944538116455	58879573.41782351
1.4872838258743286	66607552.24802043
1.491468071937561	59153223.06466662
1.4956470727920532	58516280.73024729
1.4998208284378052	70529791.06366135
1.5039892196655273	76202875.59825125
1.5081522464752197	69980415.7326963
1.5123097896575928	73576537.73614411
1.5164618492126465	96138642.05057366
1.5206083059310913	118759310.21619932
1.5247491598129272	123544232.12537438
1.5288842916488647	121362662.11524738
1.5330137014389038	128193091.23374596
1.5371372699737549	133213881.8834461
1.541254997253418	130695171.48486838
1.545366883277893	134703738.86285472
1.5494728088378906	141391630.79122514
1.5535727739334106	144494916.17556703
1.5576666593551636	150738882.08684918
1.561754584312439	160116160.46685365
1.5658363103866577	168958811.35193074
1.5699119567871094	172418274.22316664
1.5739814043045044	172038977.75143227
1.5780447721481323	175821904.28938356
1.582101821899414	183741914.17571574
1.5861525535583496	188969835.57925537
1.5901970863342285	187066578.91229513
1.5942351818084717	182040416.93932256
1.5982669591903687	182658728.64590016
1.6022924184799194	184045242.94711766
1.606311559677124	179696670.22656384
1.6103241443634033	177724924.06874418
1.6143304109573364	176273377.9143243
1.6183301210403442	169982757.78978407
1.6223233938217163	165676223.0761584
1.6263102293014526	164229084.35288212
1.6302905082702637	163616158.71557727
1.634264349937439	165410785.77142155
1.638231635093689	169323230.32495597
1.6421923637390137	171079348.961247
1.646146535873413	165769952.31089836
1.6500942707061768	158756139.99102232
1.6540353298187256	156431785.954616
1.6579699516296387	154461759.93905145
1.661897897720337	146454065.92239246
1.6658192873001099	126784142.42156601
1.6697341203689575	114843711.84435132
1.6736423969268799	126395511.69033422
1.677544116973877	137749946.24203277
1.6814392805099487	137036000.81587383
1.6853278875350952	130805431.50297503
1.6892099380493164	121239618.13520455
1.6930854320526123	110856559.49771667
1.696954369544983	105396752.860001
1.7008168697357178	105321212.74961567
1.7046726942062378	105095660.86836056
1.708522081375122	104023511.84521922
1.712364912033081	100777492.59847386
1.7162011861801147	96947657.36459912
1.7200311422348022	96600992.2393245
1.723854422569275	95501062.44545269
1.7276713848114014	88537364.9624098
1.731481909751892	77291848.26648986
1.7352858781814575	71067352.85741408
1.7390835285186768	72301823.02421874
1.7428747415542603	70942888.41760539
1.7466596364974976	61274484.10340666
1.7504380941390991	52568065.15597546
1.7542102336883545	52558505.38105228
1.7579760551452637	59578203.724529855
1.7617355585098267	70639835.94201942
1.7654887437820435	73102154.10265373
1.7692357301712036	59416652.61107082
1.7729763984680176	43179833.918895885
1.776710867881775	31504997.672981877
1.7804391384124756	26922356.02717488
1.7841613292694092	27201825.817545608
1.7878772020339966	26399924.722450476
1.7915871143341064	32612536.98525304
1.7952908277511597	40576077.74478922
1.7989884614944458	38027682.80219049
1.8026801347732544	28163025.98703682
1.806365728378296	20172666.735648815
1.8100452423095703	18342685.18361334
1.8137187957763672	17673714.829799723
1.817386507987976	15256000.419726202
1.8210482597351074	21517313.416232426
1.8247040510177612	32907867.584256668
1.828354001045227	31071901.43441434
1.8319982290267944	21718323.47020196
1.8356364965438843	22255101.688537333
1.8392690420150757	28990758.332803473
1.8428958654403687	30031923.286948685
1.8465168476104736	26950626.62361142
1.8501322269439697	24966789.264130052
1.8537418842315674	21900522.302474767
1.8573459386825562	19461635.996530738
1.860944390296936	16374157.536306031
1.864537239074707	11316626.070824774
1.8681244850158691	10032269.327396847
1.871706247329712	14838130.50483456
1.8752825260162354	21053222.460157804
1.8788533210754395	21882430.06183541
1.8824186325073242	21024266.987496242
1.8859784603118896	26280134.589702394
1.8895330429077148	33238492.948823154
1.8930821418762207	30963519.747734297
1.8966259956359863	24763199.243894055
1.9001644849777222	21510244.61742686
1.9036977291107178	18011011.817608733
1.9072256088256836	22158454.245553605
1.9107483625411987	27079282.54997729
1.9142658710479736	21312993.94003464
1.9177782535552979	19282977.273954265
1.9212853908538818	18210674.51598734
1.9247875213623047	10444583.092501644
1.9282845258712769	8194560.432241298
1.9317764043807983	15394391.872414198
1.9352631568908691	25756128.437265042
1.9387450218200684	27022243.191845953
1.942221760749817	18795494.880877737
1.9456936120986938	13281393.366169902
1.9491604566574097	12489170.582068702
1.952622413635254	15297880.694032623
1.956079363822937	23973171.356843024
1.959531545639038	31721096.971927762
1.962978720664978	27657980.264992088
1.966421127319336	21827698.69452299
1.9698586463928223	24590496.855884444
1.9732913970947266	26611441.332631774
1.9767193794250488	26175801.881967835
1.9801424741744995	27210511.251118347
1.9835609197616577	27545586.08808976
1.9869745969772339	30241667.898994714
1.990383505821228	32721476.302916348
1.9937876462936401	31485629.127943028
1.9971871376037598	27729548.884806644
2.000581979751587	24702989.68460179
2.003972291946411	29100786.984336995
2.007357597351074	34667222.464628965
2.0107386112213135	36452835.538186654
2.0141148567199707	35525814.177836634
2.017486572265625	31982716.835306432
2.0208535194396973	32928564.85133037
2.0242159366607666	37630645.448035255
2.027573823928833	38195231.95893007
2.0309269428253174	37042587.884921774
2.034275770187378	39793211.7056769
2.0376198291778564	45536383.763779365
2.040959596633911	50487643.15021166
2.044294595718384	52189152.69501896
2.0476250648498535	52535344.15340589
2.0509510040283203	51208386.55570915
2.054272413253784	47848728.08439348
2.057589530944824	48290077.40167345
2.0609018802642822	53096230.89987448
2.0642096996307373	56507098.11442269
2.0675129890441895	57399677.28078177
2.0708119869232178	57383920.87439799
2.074106216430664	56915404.2736279
2.0773961544036865	57764209.08538447
2.080681324005127	59325873.799937
2.0839622020721436	59528723.65553344
2.087238311767578	58672436.17205254
2.090510129928589	57869811.08850151
2.0937774181365967	58122298.66974291
2.0970399379730225	58605272.44912443
2.1002981662750244	57509925.92203602
2.1035518646240234	56301417.91802851
2.1068007946014404	56602662.00245125
2.1100454330444336	57069243.113037415
2.1132853031158447	56718898.54296295
2.116520881652832	55629001.65579172
2.1197516918182373	54647656.86297003
2.1229779720306396	54322686.45891524
2.12619948387146	53856079.53084944
2.1294167041778564	53322652.58280921
2.132629156112671	53346239.20833169
2.1358368396759033	52761411.03938053
2.139039993286133	51525324.17402978
2.1422386169433594	50662088.9313925
2.145432472229004	49982028.76812443
2.1486217975616455	49258522.812214695
2.151806354522705	48332386.75869784
2.1549863815307617	48159187.801329926
2.1581614017486572	48842885.43712501
2.16133189201355	49162386.240670055
2.1644976139068604	48836115.80614636
2.167658567428589	47433428.248041235
2.1708147525787354	45513404.30837368
2.173966407775879	44532515.28156132
2.1771130561828613	44360672.7690039
2.1802549362182617	43715880.32635602
2.183391809463501	42195360.22845023
2.1865241527557373	40593430.12383044
2.1896514892578125	39245032.4035861
2.1927738189697266	37023743.502468355
2.1958916187286377	32747696.52020316
2.1990041732788086	27804462.737304393
2.2021119594573975	24835416.144065958
2.2052149772644043	23632102.32337905
2.208312749862671	23154844.216721136
2.2114057540893555	24564164.78872358
2.214493751525879	26878524.55026988
2.217576742172241	27076360.645662382
2.2206547260284424	26179803.52416808
2.2237277030944824	24981461.529951088
2.2267956733703613	22396776.27057562
2.2298583984375	20199030.122175235
2.2329163551330566	19811882.100581314
2.235969066619873	20582990.472863875
2.2390167713165283	20739058.677880175
2.2420592308044434	19490331.28486029
2.2450966835021973	18173483.74189931
2.248128890991211	17825445.418863337
2.2511560916900635	18404569.031099238
2.254178285598755	19968404.524576865
2.257194995880127	22119048.13690726
2.260206699371338	21196645.09636171
2.2632133960723877	16582746.417110056
2.266214609146118	14550745.307230918
2.2692108154296875	17487765.34693846
2.2722020149230957	20467550.04910038
2.2751877307891846	20357305.869571775
2.278168201446533	19422586.707828432
2.2811436653137207	19118212.063498206
2.284113883972168	18061468.832568284
2.287078857421875	16192846.317887861
2.290038824081421	15271951.111583607
2.2929933071136475	15529479.070681043
2.295942783355713	15759850.918488583
2.298887014389038	16189684.343338754
2.301826238632202	17505833.357143193
2.304760217666626	19177186.48323019
2.3076889514923096	21201447.573565345
2.310612440109253	24129171.487569075
2.3135311603546143	26252505.767300714
2.3164443969726562	23642899.348971214
2.319352865219116	16852934.604700033
2.322256088256836	12058331.744337637
2.3251543045043945	10464485.025962507
2.328047275543213	9851982.936055182
2.330935478210449	10106340.603650566
2.3338186740875244	10151545.00186289
2.3366971015930176	9560075.473348998
2.3395702838897705	9120036.561973356
2.3424389362335205	9060891.132496897
2.3453025817871094	9121899.183208786
2.348161458969116	9161884.151932688
2.351015567779541	10451220.29773781
2.353865146636963	14208301.853715846
2.3567099571228027	18674020.539421655
2.3595502376556396	21101890.74490225
2.3623859882354736	20399854.928788085
2.3652172088623047	16822764.394836497
2.368043899536133	12193586.47734765
2.370866537094116	9257058.91491162
2.3736846446990967	9293815.721744556
2.3764986991882324	10214630.333913578
2.3793084621429443	9980286.17827531
2.3821144104003906	9498911.814729331
2.384916305541992	10366516.100345064
2.387714147567749	12260852.454798685
2.3905084133148193	13224238.298941644
2.393299102783203	12802456.737198276
2.3960859775543213	11922379.670194283
2.398869514465332	11809838.244060462
2.4016497135162354	13204513.619037189
2.4044265747070312	15432753.35001884
2.407200336456299	16876238.380429745
2.409970998764038	16681350.665826393
2.4127390384674072	15811389.551075773
2.415503978729248	15207736.286080807
2.418266534805298	14832211.740112856
2.4210267066955566	14520445.40877127
2.4237842559814453	14178900.365444904
2.426539897918701	14430612.477610743
2.429293394088745	15943430.91770085
2.4320452213287354	17296697.28145068
2.4347951412200928	16619246.652746934
2.4375438690185547	14756071.02745901
2.440291166305542	13727280.681466889
2.443037271499634	13929901.587345151
2.445782423019409	15329631.441940483
2.4485268592834473	17039808.55514616
2.451270818710327	16803873.15412634
2.454014539718628	15364569.102809653
2.4567582607269287	14808416.081231086
2.4595019817352295	14675579.238766493
2.4622461795806885	15968932.323575083
2.4649908542633057	17775255.050508253
2.4677364826202393	16339463.362973627
2.4704833030700684	12198026.458436409
2.473231554031372	8355054.358801039
2.4759814739227295	6228694.877523745
2.4787333011627197	5584299.189690497
