#wavelength	surface flux
0.6450077295303345	750782.1104189624
0.6472567915916443	1173143.0609653331
0.6494921445846558	1508697.919631946
0.6517150402069092	1701706.3625952704
0.6539263725280762	1894863.1315481996
0.6561272740364075	2096257.2620373238
0.6583186388015747	2302157.660079169
0.6605015397071838	2504431.2524148836
0.6626768708229065	2685309.027657127
0.6648455858230591	2794824.3049304797
0.6670085787773132	2636225.941932139
0.6691668033599854	2043197.4840853617
0.6713210344314575	1733409.8861565865
0.6734722256660461	2469862.1142382273
0.6756211519241333	3550354.225683918
0.6777685880661011	4233644.58707597
0.6799154281616211	4649433.924536509
0.6820623278617859	4976654.028378137
0.6842101216316223	5269277.148775416
0.6863595843315125	5532864.859408154
0.688511312007904	5754925.822548416
0.6906660795211792	5943987.879671276
0.6928245425224304	6149352.898327045
0.6949873566627502	6411055.557682288
0.6971551775932312	6700680.433277806
0.6993286609649658	6930647.547705558
0.7015084028244019	7073986.619875542
0.7036949396133423	7161468.410153598
0.7058889269828796	7204531.184101393
0.7080909013748169	7204587.392022725
0.710301399230957	7162883.978934346
0.712520956993103	7077412.954134433
0.7147500514984131	6939359.293116622
0.7169892191886902	6748230.3584005395
0.7192389369010925	6512919.317359036
0.7214996814727783	6235105.590730422
0.723771870136261	5914481.690536309
0.7260559797286987	5558176.820825111
0.7283523678779602	5171454.894776912
0.7306615710258484	4778462.627736252
0.7329838871955872	4391430.578008536
0.7353196740150452	3970755.3492588988
0.7376693487167358	3514520.291215935
0.7400332689285278	3056048.889363006
0.7424117922782898	2605028.44287319
0.7448052167892456	2170090.884336878
0.7472138404846191	1755888.5137264943
0.7496379613876343	1366887.9565890948
0.7520779371261597	1013490.7438051867
0.7545340061187744	704262.5757203054
0.7570064663887024	446848.36251934536
0.7594954967498779	248492.35773194092
0.7620013952255249	112982.87714993769
0.7645244002342224	37669.318976734794
0.7670646905899048	9206.197605025576
0.7696225643157959	10294.018624088238
0.7721980810165405	46978.391602786294
0.7747915983200073	144764.91749117456
0.7774031162261963	298801.51106546866
0.7800329327583313	532495.4257291227
0.7826811671257019	946226.4616053017
0.7853479981422424	1519679.1950734523
0.7880334854125977	2142682.7126279655
0.7907378077507019	2544945.174339243
0.7934610247612	2551870.0881488067
0.7962033748626709	3293584.3846305604
0.7989648580551147	5167831.6566428915
0.801745593547821	6945688.24997321
0.8045456409454346	8387825.078621125
0.8073651194572449	9846551.803308655
0.8102040886878967	11373988.868498351
0.8130625486373901	12992852.079605225
0.8159406185150146	14386389.03971067
0.8188382983207703	15781913.956116417
0.8217556476593018	18312953.822316073
0.8246926665306091	21477233.922641836
0.8276493549346924	24229797.094762076
0.8306257724761963	26973514.784581646
0.8336219191551208	30028223.98089574
0.8366377949714661	33167025.578863136
0.8396733403205872	36338689.39936229
0.8427285552024841	39703831.26318025
0.8458034992218018	42534628.32745569
0.8488980531692505	41703860.99637309
0.8520121574401855	39735193.11920737
0.8551458716392517	46099852.08969498
0.8582990765571594	53390610.35678955
0.8614717125892639	48366181.43593864
0.8646637797355652	41634468.76600097
0.8678751587867737	43459244.17283881
0.8711057901382446	47060591.234663114
0.8743556141853333	50248789.44509947
0.87762451171875	55241120.84154129
0.8809124231338501	59809736.2732184
0.8842192888259888	63814495.71402891
0.8875449895858765	66371011.83617967
0.8908893465995789	64789902.132054456
0.894252359867096	65769106.50872861
0.8976338505744934	77490447.97550349
0.9010337591171265	93969016.09507318
0.9044519662857056	106533193.23878646
0.9078882932662964	115836964.66568226
0.9113426208496094	124548723.78553274
0.914814829826355	131117532.67370851
0.9183048605918884	136520566.84416515
0.9218124747276306	138936459.54265797
0.925337553024292	132219108.54630531
0.9288799166679382	125547728.55146852
0.9324395060539246	128872334.24230711
0.9360161423683167	137707357.69786108
0.9396095871925354	144643484.7420601
0.943219780921936	146043909.25384146
0.9468464851379395	144234892.03808975
0.9504896402359009	152433663.03457725
0.9541489481925964	173219538.21804634
0.9578243494033813	183659565.83985892
0.9615156054496765	172004681.08500606
0.9652225375175476	157592091.57628232
0.9689450263977051	169824122.0183575
0.9726828336715698	201403049.7970166
0.9764357805252075	217774031.94423407
0.9802037477493286	219941452.25319177
0.983986496925354	223139130.53959116
0.9877838492393494	210104687.26594678
0.9915955662727356	179149274.12493548
0.9954215884208679	156435670.69924542
0.9992615580558777	139628887.03252003
1.0031154155731201	128374806.48999831
1.0069829225540161	133637976.65269656
1.0108637809753418	149442565.9371862
1.0147579908370972	167351639.62501302
1.018665075302124	179999187.1995869
1.022585153579712	182810369.6058967
1.0265177488327026	184392993.0529322
1.0304628610610962	197392678.80805922
1.0344202518463135	217016659.2143639
1.0383895635604858	231123337.48611405
1.0423706769943237	239277858.84312633
1.0463634729385376	248722282.59292847
1.0503677129745483	258649542.04705217
1.0543830394744873	269170471.4272999
1.058409333229065	280536288.3704631
1.0624464750289917	289653022.183026
1.0664942264556885	298204879.6547562
1.0705522298812866	308306029.55410296
1.0746204853057861	320224838.6292833
1.0786986351013184	330477382.333005
1.0827864408493042	337161562.2816257
1.086883783340454	333158737.9933119
1.0909905433654785	312941295.63828886
1.0951062440872192	288387890.4134302
1.0992310047149658	245799711.17074588
1.10336434841156	183657814.54819414
1.1075061559677124	149190692.01103812
1.1116561889648438	137247077.42663854
1.115814208984375	128963454.70733874
1.1199802160263062	136367784.82018495
1.124153733253479	146025945.5786379
1.1283347606658936	131714824.96184137
1.1325229406356812	101529536.25144856
1.1367181539535522	101061816.40222879
1.1409201622009277	138001886.73219043
1.145128846168518	175509707.90458068
1.1493438482284546	177210707.02707464
1.1535650491714478	154446739.02152637
1.1577922105789185	143506209.65968335
1.1620250940322876	138146423.62478137
1.1662636995315552	133427778.04418406
1.170507550239563	130656501.17190658
1.174756646156311	131023804.27159485
1.1790107488632202	151497229.2107809
1.1832695007324219	185392052.81783435
1.1875330209732056	206140053.45339257
1.191800832748413	236434749.33072883
1.1960728168487549	279124337.01563317
1.2003488540649414	298603015.8511744
1.2046287059783936	308518734.2146804
1.2089121341705322	316993513.20220315
1.2131990194320679	327685668.75360143
1.2174891233444214	350465374.01662827
1.2217823266983032	369322174.3288207
1.2260783910751343	379600499.5866866
1.230377197265625	386834116.7239693
1.2346785068511963	382639092.8975413
1.238982081413269	352016090.54937893
1.2432878017425537	313228136.0172232
1.2475954294204712	296361482.21650624
1.2519049644470215	292933270.587254
1.256216049194336	333660576.38298064
1.2605286836624146	396250061.4426744
1.2648425102233887	421087689.2087007
1.2691574096679688	437766247.11356795
1.2734732627868652	457253143.6322777
1.2777899503707886	459502289.0281612
1.2821072340011597	448643755.0517183
1.2864248752593994	442100156.1759267
1.2907428741455078	440052080.13176847
1.2950609922409058	434486122.8795953
1.2993791103363037	413772585.77782303
1.303696870803833	396661492.3706952
1.3080145120620728	397864089.8937582
1.3123314380645752	399783852.1139359
1.3166478872299194	393741517.38011086
1.3209635019302368	360696886.73484516
1.3252781629562378	305976834.126108
1.3295916318893433	226950223.57440463
1.3339040279388428	118478177.70890984
1.3382149934768677	43924251.16056663
1.3425244092941284	24193059.12291107
1.3468321561813354	22469647.16747232
1.3511382341384888	21582847.31512151
1.3554422855377197	18067030.73304412
1.3597444295883179	21837427.970230382
1.3640443086624146	30672276.923743453
1.3683418035507202	29342652.211103156
1.3726370334625244	26249957.388012853
1.3769296407699585	29639142.773457382
1.381219506263733	24723874.40573918
1.3855066299438477	15479629.625145346
1.3897908926010132	15166342.955172783
1.3940720558166504	18814792.97970882
1.3983501195907593	18797368.47455214
1.4026249647140503	19794360.622643907
1.4068963527679443	23421902.308798708
1.4111642837524414	25266665.161298152
1.4154287576675415	26043850.56742699
1.419689416885376	24438908.39354699
1.4239463806152344	22397669.456631552
1.4281994104385376	19924907.74325393
1.4324485063552856	16686396.611384591
1.436693549156189	18549724.80608447
1.440934419631958	24736406.85530952
1.4451709985733032	34485419.26107575
1.449403166770935	45755708.12954909
1.453631043434143	46353466.785281196
1.4578542709350586	42600823.41266752
1.4620729684829712	49251038.54256011
1.4662868976593018	55902709.828629196
1.4704961776733398	46398805.1807903
1.4747005701065063	35139438.16699437
1.4788999557495117	41111811.049328
1.4830944538116455	58516681.090409145
1.4872838258743286	66217801.43352791
1.491468071937561	58720049.6150707
1.4956470727920532	58068087.450206906
1.4998208284378052	70111320.38002318
1.5039892196655273	75789816.0253772
1.5081522464752197	69519032.40312162
1.5123097896575928	73085629.86098933
1.5164618492126465	95694243.255411
1.5206083059310913	118399086.22788721
1.5247491598129272	123223189.31993265
1.5288842916488647	121049807.36477484
1.5330137014389038	127902359.07759883
1.5371372699737549	132949319.8623107
1.541254997253418	130459491.91225772
1.545366883277893	134505495.9122039
1.5494728088378906	141211913.04153016
1.5535727739334106	144362921.15475497
1.5576666593551636	150705116.116809
1.561754584312439	160153865.3253235
1.5658363103866577	169010208.20315728
1.5699119567871094	172461347.78073907
1.5739814043045044	172077522.5316985
1.5780447721481323	175859954.72708046
1.582101821899414	183810162.64258966
1.5861525535583496	189088392.08933204
1.5901970863342285	187194201.70584625
1.5942351818084717	182157483.32108834
1.5982669591903687	182795547.73187688
1.6022924184799194	184153082.74269685
1.606311559677124	179737315.3062526
1.6103241443634033	177745065.68431225
1.6143304109573364	176221229.63383538
1.6183301210403442	169791784.18686593
1.6223233938217163	165391857.4444023
1.6263102293014526	163895647.186027
1.6302905082702637	163304161.41147077
1.634264349937439	165231321.60692543
1.638231635093689	169292247.00231013
1.6421923637390137	171065969.74378762
1.646146535873413	165566028.56802332
1.6500942707061768	158419148.18618357
1.6540353298187256	156205137.93250626
1.6579699516296387	154325819.06372353
1.661897897720337	146182180.35728145
1.6658192873001099	126072576.71080078
1.6697341203689575	113859923.83218105
1.6736423969268799	125639990.81760111
1.677544116973877	137219593.6879919
1.6814392805099487	136548448.13469854
1.6853278875350952	130279860.42427894
1.6892099380493164	120649652.26934674
1.6930854320526123	110238940.19827057
1.696954369544983	104733089.9854154
1.7008168697357178	104610608.87721688
1.7046726942062378	104408902.62926948
1.708522081375122	103470490.99603409
1.712364912033081	100321936.39664991
1.7162011861801147	96471220.61484094
1.7200311422348022	96168585.64317736
1.723854422569275	95147785.81686816
1.7276713848114014	88173321.96617208
1.731481909751892	76908359.4271177
1.7352858781814575	70720646.57161716
1.7390835285186768	72019487.06255463
1.7428747415542603	70703049.31981295
1.7466596364974976	61027061.13061075
1.7504380941390991	52310077.3062917
1.7542102336883545	52342532.418808915
1.7579760551452637	59433506.07376345
1.7617355585098267	70589767.8162205
1.7654887437820435	73104946.53058979
1.7692357301712036	59372067.39705533
1.7729763984680176	43090713.014793485
1.776710867881775	31386523.9814706
1.7804391384124756	26771044.603800252
1.7841613292694092	27057418.774230406
1.7878772020339966	26266570.759819463
1.7915871143341064	32507834.21584451
1.7952908277511597	40528874.630326495
1.7989884614944458	38009001.50976798
1.8026801347732544	28145604.447730422
1.806365728378296	20145470.288138133
1.8100452423095703	18317553.87532662
1.8137187957763672	17658617.942295257
1.817386507987976	15223190.326385075
1.8210482597351074	21540092.668559793
1.8247040510177612	33046492.98302966
1.828354001045227	31168060.44472499
1.8319982290267944	21678528.954717617
1.8356364965438843	22206968.53257246
1.8392690420150757	28987596.203225352
1.8428958654403687	29987823.697238825
1.8465168476104736	26860803.430823307
1.8501322269439697	24908036.168033056
1.8537418842315674	21868638.315564115
1.8573459386825562	19421326.364507113
1.860944390296936	16317970.844318727
1.864537239074707	11240611.50446133
1.8681244850158691	9955581.985229991
1.871706247329712	14789299.84223477
1.8752825260162354	21017309.318828482
1.8788533210754395	21803719.710181784
1.8824186325073242	20923575.7688459
1.8859784603118896	26265041.07141064
1.8895330429077148	33305326.908797994
1.8930821418762207	30983539.473727737
1.8966259956359863	24744196.052020416
1.9001644849777222	21540236.57521522
1.9036977291107178	18063958.1596452
1.9072256088256836	22224613.82234138
1.9107483625411987	27149577.81152869
1.9142658710479736	21340000.79935197
1.9177782535552979	19301692.51443644
1.9212853908538818	18239735.1150471
1.9247875213623047	10440647.51925769
1.9282845258712769	8148414.508686551
1.9317764043807983	15372394.33580754
1.9352631568908691	25837260.606256746
1.9387450218200684	27115269.15351242
1.942221760749817	18775751.110735904
1.9456936120986938	13204405.211039089
1.9491604566574097	12437407.172494406
1.952622413635254	15310400.773294957
1.956079363822937	24105680.05897708
1.959531545639038	31930281.351492163
1.962978720664978	27777765.883834895
1.966421127319336	21819757.798106596
1.9698586463928223	24554807.77902235
1.9732913970947266	26576531.56796292
1.9767193794250488	26147513.64277039
1.9801424741744995	27198336.97074707
1.9835609197616577	27528635.804879375
1.9869745969772339	30285458.440635815
1.990383505821228	32845974.174801696
1.9937876462936401	31590323.793398466
1.9971871376037598	27762937.180192422
2.000581979751587	24695551.339760456
2.003972291946411	29120230.2921142
2.007357597351074	34727346.148847535
2.0107386112213135	36541660.1146656
2.0141148567199707	35607079.14580406
2.017486572265625	32001597.838625025
2.0208535194396973	32939638.215919442
2.0242159366607666	37694826.85808155
2.027573823928833	38274188.04165115
2.0309269428253174	37126959.87369695
2.034275770187378	39957367.36272891
2.0376198291778564	45852197.28175515
2.040959596633911	50940611.57904776
2.044294595718384	52687447.0807375
2.0476250648498535	53039369.499047786
2.0509510040283203	51674392.165666945
2.054272413253784	48222879.65078158
2.057589530944824	48685062.91619739
2.0609018802642822	53646287.39843051
2.0642096996307373	57173988.83552234
2.0675129890441895	58105344.60173343
2.0708119869232178	58097457.63435624
2.074106216430664	57620631.468712196
2.0773961544036865	58505981.54851645
2.080681324005127	60127621.616943255
2.0839622020721436	60341206.17738598
2.087238311767578	59457698.48186833
2.090510129928589	58630174.55976666
2.0937774181365967	58890589.9936069
2.0970399379730225	59385249.487093635
2.1002981662750244	58258628.47080166
2.1035518646240234	57023778.846382275
2.1068007946014404	57344525.317172825
2.1100454330444336	57832119.281511076
2.1132853031158447	57457673.846630655
2.116520881652832	56298607.2240352
2.1197516918182373	55263134.7333202
2.1229779720306396	54926808.601282604
2.12619948387146	54448620.67736951
2.1294167041778564	53909475.85382114
2.132629156112671	53953228.75907276
2.1358368396759033	53345453.71700213
2.139039993286133	52052800.28426281
2.1422386169433594	51147679.09906486
2.145432472229004	50425060.691457435
2.1486217975616455	49668609.88784506
2.151806354522705	48709279.37628839
2.1549863815307617	48539086.98252934
2.1581614017486572	49269168.970710896
2.16133189201355	49612604.15617689
2.1644976139068604	49270356.37935814
2.167658567428589	47796879.83818654
2.1708147525787354	45797047.8279901
2.173966407775879	44802666.33505411
2.1771130561828613	44649331.76565151
2.1802549362182617	43968401.40973986
2.183391809463501	42355692.84225037
2.1865241527557373	40670414.312259
2.1896514892578125	39258787.958282225
2.1927738189697266	36944030.04209228
2.1958916187286377	32512382.02590201
2.1990041732788086	27401102.203226127
2.2021119594573975	24332100.46043298
2.2052149772644043	23100199.30529971
2.208312749862671	22627604.006674904
2.2114057540893555	24086478.206486672
2.214493751525879	26469495.118865278
2.217576742172241	26673511.853084363
2.2206547260284424	25749083.180505373
2.2237277030944824	24526166.955372497
2.2267956733703613	21898075.320796996
2.2298583984375	19666834.84710856
2.2329163551330566	19272000.343980342
2.235969066619873	20048076.00338641
2.2390167713165283	20204586.86397023
2.2420592308044434	18944054.93586416
2.2450966835021973	17618943.87616284
2.248128890991211	17273817.766718384
2.2511560916900635	17862470.82691262
2.254178285598755	19454152.47586535
2.257194995880127	21658535.32479427
2.260206699371338	20756954.97821276
2.2632133960723877	16114265.710415091
2.266214609146118	14072421.909396391
2.2692108154296875	17026135.407160968
2.2722020149230957	20007533.600794107
2.2751877307891846	19873058.085571192
2.278168201446533	18920112.188971713
2.2811436653137207	18617520.173288397
2.284113883972168	17560412.061488405
2.287078857421875	15684163.549893383
2.290038824081421	14759178.443477388
2.2929933071136475	15031557.6973307
2.295942783355713	15314646.913487118
2.298887014389038	15800206.779132782
2.301826238632202	17196281.481017165
2.304760217666626	19188735.844894238
2.3076889514923096	21580998.042198796
2.310612440109253	24430230.01079133
2.3135311603546143	26247223.298457142
2.3164443969726562	23453459.234589644
2.319352865219116	16548639.39700694
2.322256088256836	11788694.318915451
2.3251543045043945	10418739.794010963
2.328047275543213	9910745.932134336
2.330935478210449	9978823.94911588
2.3338186740875244	9825825.264927274
2.3366971015930176	9211813.576834396
2.3395702838897705	8818665.84278774
2.3424389362335205	8763078.297224179
2.3453025817871094	8779943.045574943
2.348161458969116	8788084.057507286
2.351015567779541	10062355.267345887
2.353865146636963	13813382.377422472
2.3567099571228027	18301967.61081301
2.3595502376556396	20777700.49655521
2.3623859882354736	20108454.080107555
2.3652172088623047	16516182.86046226
2.368043899536133	11877529.035107836
2.370866537094116	8958865.447219575
2.3736846446990967	8957655.033260487
2.3764986991882324	9816274.50338978
2.3793084621429443	9609415.405279534
2.3821144104003906	9256339.23593159
2.384916305541992	10184135.126782915
2.387714147567749	11964646.900245134
2.3905084133148193	12809377.585542334
2.393299102783203	12365677.383294161
2.3960859775543213	11510910.130654138
2.398869514465332	11437415.84952796
2.4016497135162354	12863509.486977693
2.4044265747070312	15101200.224260908
2.407200336456299	16586235.612075536
2.409970998764038	16580374.335704444
2.4127390384674072	15982920.562575577
2.415503978729248	15511090.750587622
2.418266534805298	15090349.211886715
2.4210267066955566	14650821.33686703
2.4237842559814453	14129228.41175236
2.426539897918701	14256013.235470027
2.429293394088745	15829733.598837456
2.4320452213287354	17302482.37417551
2.4347951412200928	16608306.253696842
2.4375438690185547	14651212.712309573
2.440291166305542	13570202.184019176
2.443037271499634	13756353.098676747
2.445782423019409	15142653.59367802
2.4485268592834473	16846366.171781547
2.451270818710327	16631986.91957249
2.454014539718628	15217288.959175033
2.4567582607269287	14658009.857502237
2.4595019817352295	14529690.8386133
2.4622461795806885	15838005.085746095
2.4649908542633057	17653195.810350817
2.4677364826202393	16241083.877670193
2.4704833030700684	12133687.851190217
2.473231554031372	8316574.5563826645
2.4759814739227295	6204141.300661509
2.4787333011627197	5563953.387041005
