#wavelength	surface flux
0.6450077295303345	89661.22534113997
0.6472567915916443	141051.3241985502
0.6494921445846558	183771.01889289077
0.6517150402069092	210655.54676276108
0.6539263725280762	238140.1092347665
0.6561272740364075	267241.3780413782
0.6583186388015747	297888.4540884561
0.6605015397071838	329761.56791116874
0.6626768708229065	362155.1857172736
0.6648455858230591	391668.38663543115
0.6670085787773132	397193.41041578044
0.6691668033599854	348584.8714840718
0.6713210344314575	326653.41673690785
0.6734722256660461	427246.07437949977
0.6756211519241333	557412.6897456936
0.6777685880661011	635064.8059480949
0.6799154281616211	689520.2581279052
0.6820623278617859	738869.887408175
0.6842101216316223	786197.8408037829
0.6863595843315125	831860.2445205309
0.688511312007904	874694.054176318
0.6906660795211792	911813.1004908181
0.6928245425224304	945186.6580604402
0.6949873566627502	983533.2306523003
0.6971551775932312	1024049.8813775872
0.6993286609649658	1057956.99448705
0.7015084028244019	1086662.1994012524
0.7036949396133423	1110089.060336442
0.7058889269828796	1125772.663909135
0.7080909013748169	1134298.8247901355
0.710301399230957	1137335.1728801266
0.712520956993103	1133706.691901023
0.7147500514984131	1119400.8047418976
0.7169892191886902	1094047.7924522075
0.7192389369010925	1060246.2860905384
0.7214996814727783	1017749.488149282
0.723771870136261	966268.4277368512
0.7260559797286987	908320.8796081196
0.7283523678779602	844642.0828193794
0.7306615710258484	784497.2306599006
0.7329838871955872	732040.8831233857
0.7353196740150452	668106.6774705723
0.7376693487167358	589395.6634765621
0.7400332689285278	508378.2536436246
0.7424117922782898	428426.154965085
0.7448052167892456	351979.41637128574
0.7472138404846191	279536.698857437
0.7496379613876343	211784.6556399916
0.7520779371261597	151608.02279464196
0.7545340061187744	101091.95337190264
0.7570064663887024	61600.66710893544
0.7594954967498779	33537.13757789035
0.7620013952255249	15742.942422681394
0.7645244002342224	5972.621611547823
0.7670646905899048	1960.83493316243
0.7696225643157959	2127.910955021435
0.7721980810165405	7465.483673384728
0.7747915983200073	20895.480595937614
0.7774031162261963	42466.30882671303
0.7800329327583313	78550.44049777628
0.7826811671257019	147321.79854567148
0.7853479981422424	248517.61406882817
0.7880334854125977	366154.8678908216
0.7907378077507019	448181.7879912348
0.7934610247612	460595.88859232195
0.7962033748626709	619855.3483889656
0.7989648580551147	1001277.4581215282
0.801745593547821	1367948.2478259478
0.8045456409454346	1673770.4047711194
0.8073651194572449	1980515.7696324657
0.8102040886878967	2293237.1470289244
0.8130625486373901	2650013.223665462
0.8159406185150146	3051063.093162549
0.8188382983207703	3486294.5490689604
0.8217556476593018	4017187.7166091325
0.8246926665306091	4587144.06499138
0.8276493549346924	5108545.854630044
0.8306257724761963	5680592.703729009
0.8336219191551208	6374989.471276901
0.8366377949714661	7074835.99146189
0.8396733403205872	7750522.765118065
0.8427285552024841	8495573.3905014
0.8458034992218018	9192489.244756816
0.8488980531692505	9208012.306868648
0.8520121574401855	8999378.699295895
0.8551458716392517	10458935.161050148
0.8582990765571594	12472624.097713366
0.8614717125892639	12796747.31916954
0.8646637797355652	12798196.207805026
0.8678751587867737	13825756.716515282
0.8711057901382446	15027896.89898189
0.8743556141853333	16130055.681828959
0.87762451171875	17438551.477690347
0.8809124231338501	18641862.745922823
0.8842192888259888	19669651.26602005
0.8875449895858765	20272009.4726981
0.8908893465995789	19487877.043175623
0.894252359867096	18656787.29314994
0.8976338505744934	21386494.15667162
0.9010337591171265	26900864.211227383
0.9044519662857056	31557913.939235285
0.9078882932662964	34736469.50874575
0.9113426208496094	36912947.17160503
0.914814829826355	38002809.13073025
0.9183048605918884	38956667.85857244
0.9218124747276306	38248112.573008925
0.925337553024292	32710604.96503904
0.9288799166679382	27707759.101510867
0.9324395060539246	27843505.232552025
0.9360161423683167	29837303.72509283
0.9396095871925354	31088115.13451438
0.943219780921936	30762820.99495853
0.9468464851379395	28520174.848893613
0.9504896402359009	30184187.766530097
0.9541489481925964	38220829.76280607
0.9578243494033813	41331170.856384195
0.9615156054496765	35072204.24125255
0.9652225375175476	28738671.847426936
0.9689450263977051	33457221.072234873
0.9726828336715698	46035245.643202126
0.9764357805252075	52333414.03993104
0.9802037477493286	54405623.878181234
0.983986496925354	61104817.16833069
0.9877838492393494	66558700.74943069
0.9915955662727356	65839568.775028035
0.9954215884208679	62307303.33238491
0.9992615580558777	55875897.117403746
1.0031154155731201	51062920.80113887
1.0069829225540161	53754968.64341197
1.0108637809753418	61847946.367066525
1.0147579908370972	71210615.36780277
1.018665075302124	77597053.85425225
1.022585153579712	79016475.33450395
1.0265177488327026	80640602.90732023
1.0304628610610962	87624454.5699796
1.0344202518463135	96278006.68156241
1.0383895635604858	102309996.94609143
1.0423706769943237	106499112.37821561
1.0463634729385376	110258968.97475508
1.0503677129745483	113799528.39367053
1.0543830394744873	119731879.06410347
1.058409333229065	127045337.87728335
1.0624464750289917	131936633.58550443
1.0664942264556885	134812721.3043495
1.0705522298812866	137556674.73726222
1.0746204853057861	141119717.44201744
1.0786986351013184	143916609.7931909
1.0827864408493042	145453196.00964454
1.086883783340454	138280928.40246782
1.0909905433654785	117004043.97759302
1.0951062440872192	96247702.14222708
1.0992310047149658	73450849.65607077
1.10336434841156	43411328.76209361
1.1075061559677124	28170311.363225847
1.1116561889648438	24841135.549438056
1.115814208984375	20177587.325379435
1.1199802160263062	19608808.63173996
1.124153733253479	21398111.81321498
1.1283347606658936	18285362.125247713
1.1325229406356812	13976969.58730446
1.1367181539535522	19765199.886451796
1.1409201622009277	33180539.046745945
1.145128846168518	40955275.665638745
1.1493438482284546	36022726.94760149
1.1535650491714478	25942494.670587946
1.1577922105789185	21815311.9262559
1.1620250940322876	22766891.077934876
1.1662636995315552	28064152.231735285
1.170507550239563	34425651.76076848
1.174756646156311	40929153.89250434
1.1790107488632202	52503317.62212299
1.1832695007324219	60435942.080053434
1.1875330209732056	58970518.09814886
1.191800832748413	69695711.63307935
1.1960728168487549	93490780.52843678
1.2003488540649414	106655578.89374334
1.2046287059783936	111302158.5461824
1.2089121341705322	113874021.59423888
1.2131990194320679	119059487.1465854
1.2174891233444214	131685686.54109603
1.2217823266983032	142221271.67357993
1.2260783910751343	148017574.395543
1.230377197265625	154495513.43624023
1.2346785068511963	157968911.67820954
1.238982081413269	151810778.32905588
1.2432878017425537	142808646.1177346
1.2475954294204712	139917036.58917704
1.2519049644470215	139730799.98815435
1.256216049194336	156284595.77688587
1.2605286836624146	176713492.45039347
1.2648425102233887	178210652.73793483
1.2691574096679688	182240800.637469
1.2734732627868652	193431208.75700873
1.2777899503707886	192480822.1289353
1.2821072340011597	180527610.37302274
1.2864248752593994	176121947.46150613
1.2907428741455078	176937093.66333124
1.2950609922409058	172478099.49497646
1.2993791103363037	152900459.85777783
1.303696870803833	134828611.16769418
1.3080145120620728	133688353.2924814
1.3123314380645752	136343056.67588148
1.3166478872299194	137364117.00617224
1.3209635019302368	122161546.66567194
1.3252781629562378	95621622.74388504
1.3295916318893433	67311171.3120063
1.3339040279388428	32793900.5649344
1.3382149934768677	9911728.818759078
1.3425244092941284	4485143.082408461
1.3468321561813354	3774410.7791359765
1.3511382341384888	3416884.246199056
1.3554422855377197	2631855.9070887915
1.3597444295883179	3067224.7108972976
1.3640443086624146	4490925.2913196115
1.3683418035507202	4130430.274737507
1.3726370334625244	3185959.6932720547
1.3769296407699585	3758522.5335193262
1.381219506263733	3430375.3252933677
1.3855066299438477	1977375.945190256
1.3897908926010132	2085320.3516106145
1.3940720558166504	3283343.8677127976
1.3983501195907593	3097180.4239155836
1.4026249647140503	2787822.5349519807
1.4068963527679443	3413802.172497098
1.4111642837524414	3633069.369443314
1.4154287576675415	3632655.402022581
1.419689416885376	3429196.411611188
1.4239463806152344	3242889.467728
1.4281994104385376	2628060.7491761255
1.4324485063552856	1957166.5770709834
1.436693549156189	2765552.6368478853
1.440934419631958	4766939.85791373
1.4451709985733032	7958099.530885135
1.449403166770935	11436829.165372653
1.453631043434143	11452804.231705487
1.4578542709350586	10159814.64167409
1.4620729684829712	12726939.392896969
1.4662868976593018	15585229.05776954
1.4704961776733398	11742512.487233825
1.4747005701065063	6513072.351464707
1.4788999557495117	8424229.036643518
1.4830944538116455	14697566.925589057
1.4872838258743286	16800180.883847326
1.491468071937561	13633238.866608458
1.4956470727920532	13581686.863359198
1.4998208284378052	18786061.217882156
1.5039892196655273	21108696.994021684
1.5081522464752197	17974591.58707151
1.5123097896575928	18900533.60088032
1.5164618492126465	28654181.534254447
1.5206083059310913	39229513.884978876
1.5247491598129272	41856081.29352817
1.5288842916488647	41196901.93206073
1.5330137014389038	44751884.05329923
1.5371372699737549	47791827.312046796
1.541254997253418	47254906.25375312
1.545366883277893	49849199.20574326
1.5494728088378906	53685096.46024118
1.5535727739334106	55307444.63538615
1.5576666593551636	58425338.8099273
1.561754584312439	63878277.823434636
1.5658363103866577	69676109.16265303
1.5699119567871094	72203039.11507587
1.5739814043045044	71603350.71255475
1.5780447721481323	73366863.98374759
1.582101821899414	78651808.3746092
1.5861525535583496	82856105.40239193
1.5901970863342285	81611507.55726835
1.5942351818084717	76860949.0025451
1.5982669591903687	75748581.9567596
1.6022924184799194	75856639.92321187
1.606311559677124	72482214.75752015
1.6103241443634033	71153438.66541462
1.6143304109573364	69367581.96631639
1.6183301210403442	63339388.47557508
1.6223233938217163	59155905.158041954
1.6263102293014526	57589072.65040212
1.6302905082702637	58371997.947173804
1.634264349937439	63040334.14887033
1.638231635093689	68853938.96995476
1.6421923637390137	70265070.98222426
1.646146535873413	62951827.36094567
1.6500942707061768	55693577.51507441
1.6540353298187256	56543028.57215318
1.6579699516296387	57962809.34362032
1.661897897720337	53809058.7742564
1.6658192873001099	40488329.68583206
1.6697341203689575	30381049.151227236
1.6736423969268799	36090913.38722247
1.677544116973877	42873520.38538526
1.6814392805099487	42881275.36438649
1.6853278875350952	39534979.37693548
1.6892099380493164	34199261.312626444
1.6930854320526123	29373409.54689302
1.696954369544983	26544428.416203134
1.7008168697357178	25960000.936179467
1.7046726942062378	26245600.580386017
1.708522081375122	27777909.660110343
1.712364912033081	28366814.015869703
1.7162011861801147	27578709.635560587
1.7200311422348022	28900662.605069224
1.723854422569275	29375945.408295374
1.7276713848114014	26348478.478136446
1.731481909751892	22532766.480070435
1.7352858781814575	21056948.88523998
1.7390835285186768	22076361.030775186
1.7428747415542603	22110922.13693063
1.7466596364974976	18378376.375175484
1.7504380941390991	14514200.837393625
1.7542102336883545	15150284.009313108
1.7579760551452637	18986351.00464155
1.7617355585098267	23264975.14413747
1.7654887437820435	23851703.39135419
1.7692357301712036	18414629.629348543
1.7729763984680176	12193768.742943758
1.776710867881775	8008334.324455747
1.7804391384124756	6247325.372578599
1.7841613292694092	6352334.3508667275
1.7878772020339966	6485975.391634504
1.7915871143341064	8873031.673305536
1.7952908277511597	11439889.987033924
1.7989884614944458	10510859.727154547
1.8026801347732544	7707621.09067666
1.806365728378296	5621438.517340676
1.8100452423095703	4963170.835959118
1.8137187957763672	4394550.554854746
1.817386507987976	3393919.4788767667
1.8210482597351074	5651965.891398648
1.8247040510177612	9844970.729857162
1.828354001045227	8960535.385492973
1.8319982290267944	5089324.41844152
1.8356364965438843	5097888.852092497
1.8392690420150757	7827620.804293792
1.8428958654403687	8642363.94885182
1.8465168476104736	7493475.861617573
1.8501322269439697	6326334.828135532
1.8537418842315674	5412410.835109113
1.8573459386825562	5219508.049530072
1.860944390296936	4205016.995336347
1.864537239074707	2129135.6834969386
1.8681244850158691	1393174.8955870597
1.871706247329712	2568325.4310456547
1.8752825260162354	4467342.096477549
1.8788533210754395	5135870.641326029
1.8824186325073242	5483523.416196952
1.8859784603118896	8283721.890498734
1.8895330429077148	11177315.903280001
1.8930821418762207	9422046.201367332
1.8966259956359863	6582769.773502913
1.9001644849777222	6022347.588981409
1.9036977291107178	5145972.597486859
1.9072256088256836	6305053.132157645
1.9107483625411987	7907431.242836937
1.9142658710479736	5788081.02018169
1.9177782535552979	4772740.212025936
1.9212853908538818	4568600.293301865
1.9247875213623047	2337074.0955577074
1.9282845258712769	1450367.0330226822
1.9317764043807983	3674917.216305043
1.9352631568908691	7532540.3700122675
1.9387450218200684	8070403.318269798
1.942221760749817	4792492.667524643
1.9456936120986938	2634376.75673043
1.9491604566574097	2389805.5185029204
1.952622413635254	3400996.5348698455
1.956079363822937	6565749.110013249
1.959531545639038	9668383.071149493
1.962978720664978	8433326.26679342
1.966421127319336	6068431.555455851
1.9698586463928223	6910447.529183522
1.9732913970947266	7911592.13527057
1.9767193794250488	8158812.447672916
1.9801424741744995	8835469.65930003
1.9835609197616577	9081869.800472416
1.9869745969772339	10472710.96834887
1.990383505821228	11900204.882292153
1.9937876462936401	11534446.2151446
1.9971871376037598	9803580.754175343
2.000581979751587	8091172.43392065
2.003972291946411	9725082.445008568
2.007357597351074	12412455.936356079
2.0107386112213135	13454046.45438661
2.0141148567199707	12921157.88277187
2.017486572265625	11179910.847734246
2.0208535194396973	11566231.616552055
2.0242159366607666	13603762.550673828
2.027573823928833	13910429.02350793
2.0309269428253174	13469788.618838215
2.034275770187378	15023003.732741632
2.0376198291778564	18697271.498596996
2.040959596633911	21948419.144966066
2.044294595718384	22977500.644371815
2.0476250648498535	22833277.091562584
2.0509510040283203	21506851.14851641
2.054272413253784	19586598.916916545
2.057589530944824	20198944.624648057
2.0609018802642822	23022079.21683878
2.0642096996307373	25056763.975355573
2.0675129890441895	25740238.397219203
2.0708119869232178	25720127.43355668
2.074106216430664	25275641.855942175
2.0773961544036865	25565600.09844682
2.080681324005127	26367007.49371515
2.0839622020721436	26366310.03805557
2.087238311767578	25697949.95565337
2.090510129928589	25200214.654102374
2.0937774181365967	25326417.879408844
2.0970399379730225	25330399.932868216
2.1002981662750244	24347389.164404526
2.1035518646240234	23533264.32874051
2.1068007946014404	23736289.692122616
2.1100454330444336	23979009.735299613
2.1132853031158447	23576536.51346285
2.116520881652832	22481787.018615197
2.1197516918182373	21413293.398717348
2.1229779720306396	20955843.16007489
2.12619948387146	20617701.273156196
2.1294167041778564	20444734.60138758
2.132629156112671	20631072.51968572
2.1358368396759033	20056806.55141582
2.139039993286133	18947011.98441081
2.1422386169433594	18104962.607923646
2.145432472229004	17336298.073946163
2.1486217975616455	16735187.498401279
2.151806354522705	15991593.606700812
2.1549863815307617	15865868.69605655
2.1581614017486572	16592841.935265904
2.16133189201355	16963405.451355193
2.1644976139068604	16688111.72337514
2.167658567428589	15597944.726754308
2.1708147525787354	14450728.290487703
2.173966407775879	14403778.810428647
2.1771130561828613	14922090.47085118
2.1802549362182617	14680854.45450007
2.183391809463501	13507782.700060481
2.1865241527557373	12373120.958752844
2.1896514892578125	11558823.899960272
2.1927738189697266	10223463.038217751
2.1958916187286377	7779394.33649549
2.1990041732788086	5161925.179757312
2.2021119594573975	3809471.2658865997
2.2052149772644043	3702591.295252126
2.208312749862671	4108349.415584724
2.2114057540893555	4989019.564240735
2.214493751525879	5809685.372365786
2.217576742172241	5518375.457071943
2.2206547260284424	4746793.076269132
2.2237277030944824	4204641.290225845
2.2267956733703613	3520531.9715365446
2.2298583984375	2944657.206964082
2.2329163551330566	2794863.3532289597
2.235969066619873	2960366.9266957953
2.2390167713165283	2989585.466184109
2.2420592308044434	2660123.3058090154
2.2450966835021973	2329084.335864156
2.248128890991211	2245550.315170911
2.2511560916900635	2386563.0514460863
2.254178285598755	2846036.399676172
2.257194995880127	3631045.172486713
2.260206699371338	3563696.281956581
2.2632133960723877	2331057.2069835025
2.266214609146118	1805332.6835915942
2.2692108154296875	2669348.8765675197
2.2722020149230957	3527162.7445124323
2.2751877307891846	3415235.304834697
2.278168201446533	2997808.911117839
2.2811436653137207	2921037.2929015104
2.284113883972168	2769866.067873704
2.287078857421875	2289686.926936914
2.290038824081421	1949619.977484022
2.2929933071136475	1974565.4029164438
2.295942783355713	2069300.9471094585
2.298887014389038	2218282.5057901293
2.301826238632202	2632764.1429967377
2.304760217666626	3409922.0937063484
2.3076889514923096	4457304.609071964
2.310612440109253	5508900.83205289
2.3135311603546143	6239691.35832242
2.3164443969726562	5551819.656436472
2.319352865219116	3315722.6357554137
2.322256088256836	1738642.3915014083
2.3251543045043945	1467673.2772891363
2.328047275543213	1432752.888414782
2.330935478210449	1375751.2247978002
2.3338186740875244	1258160.460554042
2.3366971015930176	1091274.3242023725
2.3395702838897705	986019.450544579
2.3424389362335205	949856.5175869125
2.3453025817871094	919347.6482725075
2.348161458969116	902257.182631582
2.351015567779541	1190790.6246958466
2.353865146636963	2079716.5441666716
2.3567099571228027	3222900.67772053
2.3595502376556396	3957441.624554731
2.3623859882354736	3864146.3892427934
2.3652172088623047	2878119.2213975703
2.368043899536133	1648928.0081972082
2.370866537094116	967770.5562547756
2.3736846446990967	912580.6820661554
2.3764986991882324	1025299.2942648774
2.3793084621429443	1072323.9685037741
2.3821144104003906	1234611.4819742101
2.384916305541992	1598183.1702407245
2.387714147567749	1876901.5213502834
2.3905084133148193	1821588.0309736237
2.393299102783203	1632906.3041806286
2.3960859775543213	1476535.6359832324
2.398869514465332	1490229.804529043
2.4016497135162354	1876313.6019957042
2.4044265747070312	2561400.4875471154
2.407200336456299	3075064.8664472424
2.409970998764038	3094136.9476410337
2.4127390384674072	2936559.4434934375
2.415503978729248	2948327.9962261342
2.418266534805298	3108937.891165804
2.4210267066955566	3187218.093259059
2.4237842559814453	3018507.4132804335
2.426539897918701	2992469.0820343927
2.429293394088745	3549622.341601767
2.4320452213287354	4104234.092706007
2.4347951412200928	3937328.4104985674
2.4375438690185547	3500959.9761977154
2.440291166305542	3397702.8144270326
2.443037271499634	3432035.591908669
2.445782423019409	3484326.227014636
2.4485268592834473	3697287.540919144
2.451270818710327	3870413.677209361
2.454014539718628	3905805.7518172744
2.4567582607269287	3911387.857931195
2.4595019817352295	3952751.5831359313
2.4622461795806885	4471752.619368032
2.4649908542633057	5142341.670891598
2.4677364826202393	4877344.93359673
2.4704833030700684	3693906.751308986
2.473231554031372	2456246.81072834
2.4759814739227295	1706283.2430045141
2.4787333011627197	1403787.3067314504
2.481487512588501	1365882.009075393
