#wavelength	surface flux
0.6450077295303345	2005.5907624811214
0.6472567915916443	3098.7538162675633
0.6494921445846558	3920.0912778634097
0.6517150402069092	4346.4921145449625
0.6539263725280762	4743.46916833238
0.6561272740364075	5132.742216991201
0.6583186388015747	5541.149646610183
0.6605015397071838	5986.522817364412
0.6626768708229065	6455.99213331323
0.6648455858230591	6925.509005710112
0.6670085787773132	7278.431375926172
0.6691668033599854	7292.824917453281
0.6713210344314575	7493.40226545376
0.6734722256660461	8420.29261448659
0.6756211519241333	9387.928714660915
0.6777685880661011	10018.1429468398
0.6799154281616211	10580.960354711491
0.6820623278617859	11144.890271739998
0.6842101216316223	11713.650909728814
0.6863595843315125	12283.643778506976
0.688511312007904	12808.069505061956
0.6906660795211792	13131.606619264252
0.6928245425224304	13408.918929716368
0.6949873566627502	14097.480655691876
0.6971551775932312	14955.165664940407
0.6993286609649658	15549.359083573745
0.7015084028244019	16000.096167877427
0.7036949396133423	16588.107538217588
0.7058889269828796	17299.92303525378
0.7080909013748169	17878.460817699302
0.710301399230957	18394.016136014205
0.712520956993103	18889.325527491597
0.7147500514984131	18986.510540959
0.7169892191886902	18733.203298545417
0.7192389369010925	18865.200966087414
0.7214996814727783	19153.78897882503
0.723771870136261	18925.642584672212
0.7260559797286987	18505.13717243972
0.7283523678779602	18212.46002854321
0.7306615710258484	18163.335236615352
0.7329838871955872	18362.918361472457
0.7353196740150452	18324.57363351443
0.7376693487167358	17921.130671481416
0.7400332689285278	17249.244427821246
0.7424117922782898	16170.878158934382
0.7448052167892456	14836.167434957986
0.7472138404846191	13288.034988344078
0.7496379613876343	11447.855124870479
0.7520779371261597	9417.249934372296
0.7545340061187744	7337.360871805141
0.7570064663887024	5365.528616107874
0.7594954967498779	3615.322575519778
0.7620013952255249	2138.5743567651434
0.7645244002342224	1016.1182410215504
0.7670646905899048	414.25235989223984
0.7696225643157959	446.2391901336563
0.7721980810165405	1283.1424176772641
0.7747915983200073	2954.498010849278
0.7774031162261963	5048.204748069786
0.7800329327583313	7682.18922683426
0.7826811671257019	11702.736581997342
0.7853479981422424	16794.875921633626
0.7880334854125977	21900.580629323922
0.7907378077507019	24663.989229241266
0.7934610247612	23716.53745119455
0.7962033748626709	28286.489762728586
0.7989648580551147	40566.035092639526
0.801745593547821	50293.20281783682
0.8045456409454346	56319.85437923116
0.8073651194572449	60931.74771172956
0.8102040886878967	63349.769693939976
0.8130625486373901	66335.38643355804
0.8159406185150146	73417.44862530881
0.8188382983207703	81245.084879977
0.8217556476593018	86230.52519265715
0.8246926665306091	91002.24259392158
0.8276493549346924	96005.69268395363
0.8306257724761963	99720.72344677745
0.8336219191551208	103777.98566008799
0.8366377949714661	108027.05857792469
0.8396733403205872	114799.55066919417
0.8427285552024841	126011.38993865623
0.8458034992218018	136460.2898545523
0.8488980531692505	142895.26140563673
0.8520121574401855	148138.72861284183
0.8551458716392517	156877.80210604402
0.8582990765571594	166764.7175357946
0.8614717125892639	173779.3644650501
0.8646637797355652	180212.17967962293
0.8678751587867737	188179.76649549734
0.8711057901382446	196949.0239851416
0.8743556141853333	204131.70133802076
0.87762451171875	207715.15401797465
0.8809124231338501	206781.16024574375
0.8842192888259888	203607.0452551537
0.8875449895858765	200592.02844439124
0.8908893465995789	193282.0972279518
0.894252359867096	185460.57288131153
0.8976338505744934	197991.42937939943
0.9010337591171265	228788.01772879326
0.9044519662857056	252981.35848831953
0.9078882932662964	266143.8460712946
0.9113426208496094	274757.01226743666
0.914814829826355	273235.8833716781
0.9183048605918884	272945.33796229016
0.9218124747276306	275547.40217109624
0.925337553024292	231445.96895625044
0.9288799166679382	151174.9386251591
0.9324395060539246	107352.6847172025
0.9360161423683167	114302.82249786942
0.9396095871925354	141776.37603278074
0.943219780921936	138566.91580297574
0.9468464851379395	117102.76903063503
0.9504896402359009	129806.03054227032
0.9541489481925964	162731.69482464643
0.9578243494033813	170335.51911712784
0.9615156054496765	140403.0772416297
0.9652225375175476	126480.53660698116
0.9689450263977051	168945.10683310727
0.9726828336715698	243245.22597860897
0.9764357805252075	293545.36148879933
0.9802037477493286	323299.0265070912
0.983986496925354	359562.6031965917
0.9877838492393494	404609.7005639608
0.9915955662727356	457988.14847199514
0.9954215884208679	503950.02926925546
0.9992615580558777	537848.5310216615
1.0031154155731201	564740.7798599554
1.0069829225540161	594160.8421270031
1.0108637809753418	630219.4284456586
1.0147579908370972	667153.2714024184
1.018665075302124	695172.8802644032
1.022585153579712	706444.8461983798
1.0265177488327026	708354.243669827
1.0304628610610962	724945.8670752167
1.0344202518463135	766746.873611397
1.0383895635604858	807136.8127043378
1.0423706769943237	831983.8463750767
1.0463634729385376	848365.5408440474
1.0503677129745483	862210.1875501013
1.0543830394744873	884965.8643890851
1.058409333229065	912632.8744124734
1.0624464750289917	934681.6870706538
1.0664942264556885	949446.7720580357
1.0705522298812866	960753.0512066089
1.0746204853057861	979604.8694311312
1.0786986351013184	1003792.7645315832
1.0827864408493042	1022426.6213813106
1.086883783340454	1018424.4161707405
1.0909905433654785	981307.4850838411
1.0951062440872192	904147.2109450917
1.0992310047149658	703002.8691439995
1.10336434841156	436651.4362166769
1.1075061559677124	335277.8605281308
1.1116561889648438	314462.6134203769
1.115814208984375	229435.85617283516
1.1199802160263062	154279.0874287345
1.124153733253479	128204.50412913327
1.1283347606658936	138510.55219253572
1.1325229406356812	160332.37480402045
1.1367181539535522	222676.34838527738
1.1409201622009277	295765.5865233692
1.145128846168518	335992.3685339991
1.1493438482284546	275650.40203358606
1.1535650491714478	124302.9538531137
1.1577922105789185	57046.5528075298
1.1620250940322876	108936.36435563304
1.1662636995315552	208932.8161707011
1.170507550239563	308488.0701808158
1.174756646156311	474701.8917048224
1.1790107488632202	721579.3516055786
1.1832695007324219	937348.5365158105
1.1875330209732056	1083815.8560058817
1.191800832748413	1238127.1486273466
1.1960728168487549	1423335.9316897043
1.2003488540649414	1551329.1429995042
1.2046287059783936	1619417.838298461
1.2089121341705322	1676845.2220147168
1.2131990194320679	1739214.5015464856
1.2174891233444214	1819705.6196863516
1.2217823266983032	1910699.0015006277
1.2260783910751343	1994448.733581176
1.230377197265625	2053616.9178611126
1.2346785068511963	2097537.8449982298
1.238982081413269	2158125.3853428285
1.2432878017425537	2217559.5508661624
1.2475954294204712	2260074.247740993
1.2519049644470215	2301621.886760184
1.256216049194336	2345607.0248985654
1.2605286836624146	2370709.530008042
1.2648425102233887	2379152.0770471445
1.2691574096679688	2383687.949232153
1.2734732627868652	2394633.161711443
1.2777899503707886	2402501.594189883
1.2821072340011597	2379551.7986047943
1.2864248752593994	2300871.9768326636
1.2907428741455078	2172071.0938967066
1.2950609922409058	2112242.128572144
1.2993791103363037	2074620.975455339
1.303696870803833	1951441.954751502
1.3080145120620728	1837732.8231128657
1.3123314380645752	1824982.862252676
1.3166478872299194	1958764.0907602825
1.3209635019302368	1894901.4838419966
1.3252781629562378	1451592.593831514
1.3295916318893433	917969.7373949593
1.3339040279388428	440863.79250983405
1.3382149934768677	140405.87853555282
1.3425244092941284	37040.74346077576
1.3468321561813354	19010.396500154882
1.3511382341384888	12435.108399954426
1.3554422855377197	5551.51179744326
1.3597444295883179	3803.4021671199025
1.3640443086624146	2635.9213951363163
1.3683418035507202	4334.527930962389
1.3726370334625244	15832.671432376917
1.3769296407699585	30159.11348285166
1.381219506263733	23957.168457126227
1.3855066299438477	7248.083617608803
1.3897908926010132	1516.6474748340172
1.3940720558166504	2310.0548679906806
1.3983501195907593	6293.327307555257
1.4026249647140503	14580.159652229126
1.4068963527679443	19137.58269028315
1.4111642837524414	13230.995187982298
1.4154287576675415	8320.81848558542
1.419689416885376	7476.045116153276
1.4239463806152344	6032.520070259948
1.4281994104385376	9925.976436408846
1.4324485063552856	21808.19033774452
1.436693549156189	32018.37647864544
1.440934419631958	40286.26495690786
1.4451709985733032	86754.7158943993
1.449403166770935	195672.7477015461
1.453631043434143	280597.5126280794
1.4578542709350586	324553.5257655659
1.4620729684829712	384190.1316734014
1.4662868976593018	371379.73802061984
1.4704961776733398	268385.5207430684
1.4747005701065063	186767.06552885842
1.4788999557495117	188851.7826262098
1.4830944538116455	319444.2403931248
1.4872838258743286	471122.3646797723
1.491468071937561	468743.5238516536
1.4956470727920532	371472.885844937
1.4998208284378052	392341.70948862575
1.5039892196655273	561638.784480669
1.5081522464752197	693287.5339244124
1.5123097896575928	841468.3548739552
1.5164618492126465	1104283.5829345514
1.5206083059310913	1384123.575494637
1.5247491598129272	1694960.1036082865
1.5288842916488647	1932432.5080013974
1.5330137014389038	2009674.4404213412
1.5371372699737549	2237352.5765935592
1.541254997253418	2658695.4172855252
1.545366883277893	2891883.361988762
1.5494728088378906	2918806.5899579567
1.5535727739334106	3033388.2567435973
1.5576666593551636	3209352.1083015813
1.561754584312439	3460283.2103537186
1.5658363103866577	3875155.9396338733
1.5699119567871094	4097531.303329629
1.5739814043045044	3888881.3320507663
1.5780447721481323	3513877.524102191
1.582101821899414	3635742.0254320847
1.5861525535583496	4205818.711700342
1.5901970863342285	4384794.364620121
1.5942351818084717	4077688.6341992905
1.5982669591903687	3681695.4977616435
1.6022924184799194	3430522.04876511
1.606311559677124	3347815.9701357065
1.6103241443634033	3211171.2615336305
1.6143304109573364	2869353.855507025
1.6183301210403442	2401977.2862733887
1.6223233938217163	1893897.0883955832
1.6263102293014526	1417826.0012052518
1.6302905082702637	1105753.8940187697
1.634264349937439	1436593.6895920178
1.638231635093689	2419081.571656419
1.6421923637390137	2860442.453016013
1.646146535873413	2215690.4375353837
1.6500942707061768	1556654.7804095277
1.6540353298187256	1753709.7690198366
1.6579699516296387	2155721.499152327
1.661897897720337	1973099.8049125916
1.6658192873001099	1280854.4841279015
1.6697341203689575	886025.8982191689
1.6736423969268799	1188502.9630204865
1.677544116973877	1324517.5250358914
1.6814392805099487	1097071.3290178962
1.6853278875350952	945140.7481318344
1.6892099380493164	797488.9827736353
1.6930854320526123	599432.1619817241
1.696954369544983	398877.5827091665
1.7008168697357178	323571.5590611962
1.7046726942062378	411848.2642710751
1.708522081375122	580606.1531656933
1.712364912033081	786353.8898481583
1.7162011861801147	1032408.9261892941
1.7200311422348022	1273054.8221643902
1.723854422569275	1302244.593057075
1.7276713848114014	1153424.2550034958
1.731481909751892	1017924.0353497629
1.7352858781814575	938007.6952507775
1.7390835285186768	960385.0266389495
1.7428747415542603	994948.6214846354
1.7466596364974976	931034.2666137404
1.7504380941390991	814420.6730205959
1.7542102336883545	758275.9447280919
1.7579760551452637	898616.2259160879
1.7617355585098267	1008799.4172176877
1.7654887437820435	857401.7975468228
1.7692357301712036	597332.7930745237
1.7729763984680176	340773.85419608036
1.776710867881775	158380.28396235465
1.7804391384124756	102433.59619279564
1.7841613292694092	104004.38204780582
1.7878772020339966	87202.63553989027
1.7915871143341064	101413.1654268725
1.7952908277511597	214341.2823861058
1.7989884614944458	296762.63169494556
1.8026801347732544	184707.13525091455
1.806365728378296	44871.043851206574
1.8100452423095703	25996.949183254503
1.8137187957763672	35050.38869457232
1.817386507987976	31420.544927443254
1.8210482597351074	44618.74400312883
1.8247040510177612	48619.74813182293
1.828354001045227	21302.06469791754
1.8319982290267944	8819.95571191984
1.8356364965438843	23326.688984480435
1.8392690420150757	40418.980354854764
1.8428958654403687	39813.42029244236
1.8465168476104736	51732.003060576164
1.8501322269439697	91525.47472086806
1.8537418842315674	87851.61424737684
1.8573459386825562	51694.630188335424
1.860944390296936	34697.06046398974
1.864537239074707	17068.943429319697
1.8681244850158691	6973.025162468165
1.871706247329712	16854.0031510106
1.8752825260162354	65874.61831905914
1.8788533210754395	215343.69860447623
1.8824186325073242	349047.7256882873
1.8859784603118896	301289.49097324914
1.8895330429077148	222943.21494470313
1.8930821418762207	293545.7573581383
1.8966259956359863	312114.37067481456
1.9001644849777222	140968.75214517125
1.9036977291107178	15646.07695813015
1.9072256088256836	4040.4330994746647
1.9107483625411987	4055.831328975308
1.9142658710479736	2210.7771578950087
1.9177782535552979	3477.351449141113
1.9212853908538818	6832.373270501495
1.9247875213623047	7023.169687077857
1.9282845258712769	6787.590672515617
1.9317764043807983	10093.493565432089
1.9352631568908691	12929.163418505186
1.9387450218200684	13491.150083427385
1.942221760749817	18466.30879494453
1.9456936120986938	42734.68681222229
1.9491604566574097	88619.16402411173
1.952622413635254	96804.32358690751
1.956079363822937	59614.96350365924
1.959531545639038	46023.03515815378
1.962978720664978	65272.89872225187
1.966421127319336	128325.1118985122
1.9698586463928223	236201.4406956971
1.9732913970947266	268359.2724045226
1.9767193794250488	207505.47404597353
1.9801424741744995	239090.6065163674
1.9835609197616577	394513.3126347826
1.9869745969772339	451437.63902376563
1.990383505821228	406161.965657495
1.9937876462936401	497503.49588310806
1.9971871376037598	574074.0807320041
2.000581979751587	579984.0552090668
2.003972291946411	757007.1163249267
2.007357597351074	1071056.4383115773
2.0107386112213135	1443930.7139926846
2.0141148567199707	1475119.8233986916
2.017486572265625	1047339.8405674757
2.0208535194396973	697462.1863892052
2.0242159366607666	623992.0703048846
2.027573823928833	993800.783128189
2.0309269428253174	1543875.6536047894
2.034275770187378	1614488.8116962977
2.0376198291778564	1718070.6994727796
2.040959596633911	2447475.078730306
2.044294595718384	3256270.903649872
2.0476250648498535	3801471.2413577484
2.0509510040283203	3760018.7941409256
2.054272413253784	3128665.8094703513
2.057589530944824	3066669.6002383865
2.0609018802642822	3730572.2165529146
2.0642096996307373	4233845.2136801295
2.0675129890441895	4421336.473970483
2.0708119869232178	4476048.923915697
2.074106216430664	4422338.474222505
2.0773961544036865	4374263.098559551
2.080681324005127	4416347.453089816
2.0839622020721436	4410314.723957989
2.087238311767578	4365742.054635403
2.090510129928589	4337870.0470544305
2.0937774181365967	4246980.836688856
2.0970399379730225	4153127.0503426758
2.1002981662750244	4062453.887441649
2.1035518646240234	3903431.0612529367
2.1068007946014404	3701596.247404348
2.1100454330444336	3596778.087884022
2.1132853031158447	3532737.3143450185
2.116520881652832	3314158.070719322
2.1197516918182373	3076303.920254952
2.1229779720306396	2972292.134928299
2.12619948387146	2963829.9372607586
2.1294167041778564	2951678.459858132
2.132629156112671	2912615.3965049083
2.1358368396759033	2753925.225427974
2.139039993286133	2491786.9865206857
2.1422386169433594	2230243.199304103
2.145432472229004	1958938.4517853626
2.1486217975616455	1743254.9835899351
2.151806354522705	1539344.8844539132
2.1549863815307617	1532918.7643767518
2.1581614017486572	1641047.3185157967
2.16133189201355	1467892.8831270884
2.1644976139068604	1258214.002355125
2.167658567428589	1240394.9898437557
2.1708147525787354	1369112.5772189284
2.173966407775879	1548639.045005919
2.1771130561828613	1596465.6503199781
2.1802549362182617	1460365.7593838177
2.183391809463501	1257813.9993030783
2.1865241527557373	1090902.477285075
2.1896514892578125	914714.5026337248
2.1927738189697266	656193.5560470065
2.1958916187286377	360258.6387599119
2.1990041732788086	161200.95468875152
2.2021119594573975	96941.23716681392
2.2052149772644043	108600.03738408393
2.208312749862671	142710.19292668087
2.2114057540893555	173357.1910776861
2.214493751525879	181025.70229462528
2.217576742172241	157909.00128790597
2.2206547260284424	129462.85020209786
2.2237277030944824	118085.92445949394
2.2267956733703613	104819.70370484867
2.2298583984375	77609.22425238113
2.2329163551330566	55703.67855358031
2.235969066619873	46890.68664826466
2.2390167713165283	40645.634126471
2.2420592308044434	28084.11689720829
2.2450966835021973	13616.426193435505
2.248128890991211	10688.004802538373
2.2511560916900635	19361.696141341497
2.254178285598755	28170.973580730766
2.257194995880127	38449.84613127015
2.260206699371338	44504.86717864947
2.2632133960723877	36581.38787488611
2.266214609146118	26906.878076565037
2.2692108154296875	25018.031565363122
2.2722020149230957	31046.497186109125
2.2751877307891846	39274.90114121221
2.278168201446533	39303.651073797926
2.2811436653137207	32622.49970649564
2.284113883972168	27905.936084152723
2.287078857421875	24616.426820215587
2.290038824081421	21228.857505918593
2.2929933071136475	21808.37154085685
2.295942783355713	23956.86116382635
2.298887014389038	20801.912462820026
2.301826238632202	17594.84338685331
2.304760217666626	36466.15276510452
2.3076889514923096	85069.52942961696
2.310612440109253	134702.65835872057
2.3135311603546143	133938.623302034
2.3164443969726562	74213.17347744627
2.319352865219116	25060.573515196018
2.322256088256836	18816.710072671056
2.3251543045043945	23633.15643471163
2.328047275543213	23702.69892216767
2.330935478210449	21915.28603881884
2.3338186740875244	20326.72016930539
2.3366971015930176	18073.03944503452
2.3395702838897705	15899.765958488875
2.3424389362335205	13037.96868463452
2.3453025817871094	9605.94062589015
2.348161458969116	8692.373640742317
2.351015567779541	12898.009946237527
2.353865146636963	20964.96130521754
2.3567099571228027	27642.25283639667
2.3595502376556396	32769.067609785685
2.3623859882354736	38115.57203529403
2.3652172088623047	35343.99502727823
2.368043899536133	21611.156365521125
2.370866537094116	9886.211510166164
2.3736846446990967	8348.727280134495
2.3764986991882324	12607.91277384661
2.3793084621429443	18740.70787242816
2.3821144104003906	26107.0392697436
2.384916305541992	34721.686981982675
2.387714147567749	38594.78436227972
2.3905084133148193	32929.66221098713
2.393299102783203	28105.943417933697
2.3960859775543213	31059.354038056
2.398869514465332	37340.892078946876
2.4016497135162354	39224.49671033838
2.4044265747070312	39624.56639485864
2.407200336456299	54979.67915334897
2.409970998764038	84453.31859263951
2.4127390384674072	102986.67025802903
2.415503978729248	106161.01793629956
2.418266534805298	122214.45344893876
2.4210267066955566	143922.53755143614
2.4237842559814453	130590.1355862947
2.426539897918701	113257.0947169545
2.429293394088745	157040.5532891803
2.4320452213287354	223279.50765632532
2.4347951412200928	232531.81497035982
2.4375438690185547	215240.36518140748
2.440291166305542	239861.81176338863
2.443037271499634	263682.5178631057
2.445782423019409	219787.28436401903
2.4485268592834473	149930.34681236747
2.451270818710327	140305.41929785957
2.454014539718628	196989.7071431794
2.4567582607269287	248071.91827284466
2.4595019817352295	278842.36767644563
2.4622461795806885	332122.5300633864
2.4649908542633057	337758.907456597
2.4677364826202393	242661.8715150554
2.4704833030700684	146099.58248005435
2.473231554031372	107825.42956373245
2.4759814739227295	96258.6466627066
2.4787333011627197	88212.186202262
