#wavelength	surface flux
0.6450077295303345	18540.17874116259
0.6472567915916443	28518.69744619194
0.6494921445846558	35694.24307810063
0.6517150402069092	39034.357703176865
0.6539263725280762	42130.58830842178
0.6561272740364075	45196.59639623496
0.6583186388015747	48341.834254926194
0.6605015397071838	51637.26940524275
0.6626768708229065	55013.03515748167
0.6648455858230591	58273.19889826409
0.6670085787773132	59962.43591437609
0.6691668033599854	57459.26715945432
0.6713210344314575	57135.028743768235
0.6734722256660461	65704.56573864545
0.6756211519241333	74990.6013103372
0.6777685880661011	80061.81218110256
0.6799154281616211	84074.96682916656
0.6820623278617859	87987.97705486522
0.6842101216316223	91883.19070175118
0.6863595843315125	95755.44001202621
0.688511312007904	99400.22658943088
0.6906660795211792	102173.78659001295
0.6928245425224304	104823.94018420165
0.6949873566627502	109235.56589871539
0.6971551775932312	114283.01974548674
0.6993286609649658	118219.01020172478
0.7015084028244019	121546.99654259741
0.7036949396133423	125302.57393946148
0.7058889269828796	129452.71473038112
0.7080909013748169	133041.343779587
0.710301399230957	136326.12226617266
0.712520956993103	139443.80045827338
0.7147500514984131	140888.85407546934
0.7169892191886902	140870.78784455787
0.7192389369010925	142271.672059443
0.7214996814727783	144210.61936881303
0.723771870136261	144062.05298629394
0.7260559797286987	142859.03019450873
0.7283523678779602	141595.06460103538
0.7306615710258484	140573.74244970648
0.7329838871955872	139906.2025414524
0.7353196740150452	137916.9465896346
0.7376693487167358	133976.9984462208
0.7400332689285278	128202.05312130293
0.7424117922782898	119909.9250972316
0.7448052167892456	109598.16538971436
0.7472138404846191	97362.97086375473
0.7496379613876343	82879.75293284853
0.7520779371261597	66706.31189771168
0.7545340061187744	49832.79342860047
0.7570064663887024	33699.33179175515
0.7594954967498779	19925.730828773158
0.7620013952255249	9767.325689242736
0.7645244002342224	3666.563691448309
0.7670646905899048	1127.61183173004
0.7696225643157959	1277.0325494982048
0.7721980810165405	4832.060464355459
0.7747915983200073	13493.2308805329
0.7774031162261963	26405.7650433768
0.7800329327583313	44786.98282078528
0.7826811671257019	74116.25494965968
0.7853479981422424	110614.70392040134
0.7880334854125977	145564.17086829504
0.7907378077507019	162911.51493783487
0.7934610247612	153717.96923251185
0.7962033748626709	181299.73461053206
0.7989648580551147	260018.34262468884
0.801745593547821	320217.01211715146
0.8045456409454346	355194.02469703456
0.8073651194572449	383204.4642155121
0.8102040886878967	403190.0215866104
0.8130625486373901	425153.904567162
0.8159406185150146	460180.6594746873
0.8188382983207703	496702.3497907576
0.8217556476593018	524261.23014868697
0.8246926665306091	551569.2204141634
0.8276493549346924	579165.2823073028
0.8306257724761963	602404.3606679485
0.8336219191551208	626209.1100501575
0.8366377949714661	649926.4662993315
0.8396733403205872	681308.8295965578
0.8427285552024841	726401.9579204981
0.8458034992218018	768167.3589266987
0.8488980531692505	792927.3394093419
0.8520121574401855	813034.3832661455
0.8551458716392517	854560.2566324059
0.8582990765571594	903862.1231400265
0.8614717125892639	937211.9375740608
0.8646637797355652	966516.546029659
0.8678751587867737	1002296.8922701938
0.8711057901382446	1040626.2018110577
0.8743556141853333	1074257.9530934591
0.87762451171875	1099091.4623214018
0.8809124231338501	1114934.2158763409
0.8842192888259888	1126895.0876141516
0.8875449895858765	1133716.8627899198
0.8908893465995789	1117039.9296024856
0.894252359867096	1098815.4810173495
0.8976338505744934	1151924.9419184106
0.9010337591171265	1260743.3463031359
0.9044519662857056	1345891.4587078698
0.9078882932662964	1397565.7601327638
0.9113426208496094	1434049.9966528602
0.914814829826355	1442665.5666087808
0.9183048605918884	1454557.0452179096
0.9218124747276306	1464604.0845163774
0.925337553024292	1301813.2427173343
0.9288799166679382	995819.4285334958
0.9324395060539246	847302.5707382143
0.9360161423683167	927123.1097372973
0.9396095871925354	1071267.9718000873
0.943219780921936	1068379.9964427084
0.9468464851379395	986603.7986111684
0.9504896402359009	1040127.926529868
0.9541489481925964	1170452.6052835337
0.9578243494033813	1193703.4512951607
0.9615156054496765	1071841.015887693
0.9652225375175476	1020131.4015154518
0.9689450263977051	1187627.0546947285
0.9726828336715698	1490732.0796344422
0.9764357805252075	1707176.893425782
0.9802037477493286	1821022.5181104594
0.983986496925354	1941519.3458742069
0.9877838492393494	2085885.2424464892
0.9915955662727356	2252789.5279583647
0.9954215884208679	2393705.818666364
0.9992615580558777	2499066.6847711196
1.0031154155731201	2589188.6878335513
1.0069829225540161	2691894.632556622
1.0108637809753418	2813303.1533455225
1.0147579908370972	2934021.4969380833
1.018665075302124	3029612.5059213876
1.022585153579712	3081301.4525680738
1.0265177488327026	3109817.8025705805
1.0304628610610962	3175519.043241595
1.0344202518463135	3302972.493026891
1.0383895635604858	3425558.822725942
1.0423706769943237	3509679.6845601005
1.0463634729385376	3573966.386330165
1.0503677129745483	3632491.1904604672
1.0543830394744873	3711818.785167441
1.058409333229065	3802466.0759443184
1.0624464750289917	3879735.9921493987
1.0664942264556885	3940291.00092979
1.0705522298812866	3993777.199610493
1.0746204853057861	4064401.3817704814
1.0786986351013184	4146921.735129822
1.0827864408493042	4215328.2553557325
1.086883783340454	4220556.221148592
1.0909905433654785	4129872.3073653155
1.0951062440872192	3914689.9471984445
1.0992310047149658	3277910.4017853527
1.10336434841156	2377691.150680423
1.1075061559677124	2023425.179436393
1.1116561889648438	1953423.3825096078
1.115814208984375	1643122.0234423976
1.1199802160263062	1370776.7454494385
1.124153733253479	1350019.461910439
1.1283347606658936	1446528.847299935
1.1325229406356812	1419465.791060155
1.1367181539535522	1637261.8766798198
1.1409201622009277	2106293.2775821327
1.145128846168518	2374672.1430670177
1.1493438482284546	2012187.4830198432
1.1535650491714478	1163876.9204945588
1.1577922105789185	806171.1199569211
1.1620250940322876	1138348.8599506887
1.1662636995315552	1713941.2329822825
1.170507550239563	2175908.18000303
1.174756646156311	2786081.700564955
1.1790107488632202	3671647.1951470994
1.1832695007324219	4385789.885442245
1.1875330209732056	4812610.172679947
1.191800832748413	5225870.272445574
1.1960728168487549	5722431.13324205
1.2003488540649414	6061962.328736806
1.2046287059783936	6233953.175489237
1.2089121341705322	6376655.583418549
1.2131990194320679	6553369.952956436
1.2174891233444214	6788417.88415322
1.2217823266983032	7033747.410943081
1.2260783910751343	7247647.651902682
1.230377197265625	7409150.589406791
1.2346785068511963	7536531.221448989
1.238982081413269	7691284.2209905395
1.2432878017425537	7840618.347770155
1.2475954294204712	7947662.003625753
1.2519049644470215	8045007.0967576625
1.256216049194336	8172090.365528732
1.2605286836624146	8267824.090698193
1.2648425102233887	8308637.122351874
1.2691574096679688	8343426.970096377
1.2734732627868652	8394214.566487484
1.2777899503707886	8432081.171114713
1.2821072340011597	8407326.481523264
1.2864248752593994	8272577.347176856
1.2907428741455078	8026361.624854595
1.2950609922409058	7930007.863894247
1.2993791103363037	7881541.200682576
1.303696870803833	7636345.404913987
1.3080145120620728	7451242.637612668
1.3123314380645752	7512965.165805457
1.3166478872299194	7803795.697772714
1.3209635019302368	7556601.883002198
1.3252781629562378	6359688.756507201
1.3295916318893433	4579002.7134006005
1.3339040279388428	2483873.5641140174
1.3382149934768677	907781.0488754082
1.3425244092941284	306263.2065098192
1.3468321561813354	218428.89572243034
1.3511382341384888	160669.62090659174
1.3554422855377197	88922.37183450533
1.3597444295883179	70557.30342936551
1.3640443086624146	67154.42288412881
1.3683418035507202	100925.30233935402
1.3726370334625244	260175.82554572518
1.3769296407699585	453955.4430731409
1.381219506263733	363449.6359827066
1.3855066299438477	124513.45048286524
1.3897908926010132	41543.79093797714
1.3940720558166504	54554.86263514814
1.3983501195907593	99268.2889210269
1.4026249647140503	206601.33065861627
1.4068963527679443	280611.86828503874
1.4111642837524414	203960.93628188333
1.4154287576675415	132473.1648918719
1.419689416885376	123248.71391819011
1.4239463806152344	111885.59813978818
1.4281994104385376	160927.47001836545
1.4324485063552856	244131.6622167639
1.436693549156189	298273.1780064224
1.440934419631958	374259.7982827369
1.4451709985733032	660170.2994971314
1.449403166770935	1231495.9958684791
1.453631043434143	1658055.872699186
1.4578542709350586	1876469.7722053323
1.4620729684829712	2163909.3636553288
1.4662868976593018	2168506.386488392
1.4704961776733398	1814070.490681595
1.4747005701065063	1558085.620465869
1.4788999557495117	1677539.0967398004
1.4830944538116455	2380302.8480215576
1.4872838258743286	3196763.443535682
1.491468071937561	3401195.996340411
1.4956470727920532	3223294.8164752633
1.4998208284378052	3504236.8970683455
1.5039892196655273	4155722.6437593265
1.5081522464752197	4442671.1068360815
1.5123097896575928	4821634.770465739
1.5164618492126465	5772705.547362179
1.5206083059310913	7066942.206765886
1.5247491598129272	8090571.096083959
1.5288842916488647	8390270.554278878
1.5330137014389038	8681586.4548811
1.5371372699737549	9312729.360356458
1.541254997253418	9865260.038561761
1.545366883277893	10371820.74796581
1.5494728088378906	10870440.972613102
1.5535727739334106	11197420.330383953
1.5576666593551636	11326978.800090525
1.561754584312439	11715874.425698698
1.5658363103866577	12475291.555117982
1.5699119567871094	12867138.183953984
1.5739814043045044	12506474.118075613
1.5780447721481323	11895890.855771746
1.582101821899414	12216205.156332653
1.5861525535583496	13290145.832483687
1.5901970863342285	13650379.281020667
1.5942351818084717	13176400.678544156
1.5982669591903687	12544006.917773422
1.6022924184799194	12131598.300524816
1.606311559677124	11972981.8994761
1.6103241443634033	11726083.44967289
1.6143304109573364	11091979.397580404
1.6183301210403442	10131860.400584197
1.6223233938217163	8972915.969228372
1.6263102293014526	7723995.913996709
1.6302905082702637	6756820.192451406
1.634264349937439	7547327.902533322
1.638231635093689	10132537.363953214
1.6421923637390137	11382935.86079946
1.646146535873413	9891844.553569894
1.6500942707061768	8276912.140076547
1.6540353298187256	8829992.743768131
1.6579699516296387	9886311.901839059
1.661897897720337	9147850.005833562
1.6658192873001099	6547738.115866831
1.6697341203689575	5134177.08253242
1.6736423969268799	6641682.010442248
1.677544116973877	7642677.2334158
1.6814392805099487	7126064.944527619
1.6853278875350952	6638650.627008519
1.6892099380493164	5985597.221469511
1.6930854320526123	4871109.254706458
1.696954369544983	3706016.1565992516
1.7008168697357178	3379641.9040413233
1.7046726942062378	3894180.135741924
1.708522081375122	4679885.285681978
1.712364912033081	5440874.136338059
1.7162011861801147	6254759.911957475
1.7200311422348022	7083020.603830657
1.723854422569275	7263998.067612199
1.7276713848114014	6814257.54501012
1.731481909751892	6172716.724499312
1.7352858781814575	5586875.114803083
1.7390835285186768	5370975.40945976
1.7428747415542603	5211455.353792246
1.7466596364974976	4720000.8296987945
1.7504380941390991	4079707.3828678774
1.7542102336883545	3782316.81405848
1.7579760551452637	4537023.07386026
1.7617355585098267	5302633.277370562
1.7654887437820435	4643989.15554157
1.7692357301712036	3225175.298007689
1.7729763984680176	1923628.1513988888
1.776710867881775	1014271.4206075876
1.7804391384124756	708012.1821771241
1.7841613292694092	727151.6770113325
1.7878772020339966	637779.0379136063
1.7915871143341064	727050.5842207336
1.7952908277511597	1261706.567598471
1.7989884614944458	1572226.7907929057
1.8026801347732544	997811.6398281379
1.806365728378296	325080.30313083844
1.8100452423095703	283469.2011873863
1.8137187957763672	382600.28088651795
1.817386507987976	318145.0001482775
1.8210482597351074	389847.6315008394
1.8247040510177612	428982.6415212074
1.828354001045227	212224.5005378571
1.8319982290267944	123482.11226168662
1.8356364965438843	277066.46535987855
1.8392690420150757	448296.99479916645
1.8428958654403687	449819.89515656326
1.8465168476104736	477846.56167031906
1.8501322269439697	645472.9323870229
1.8537418842315674	565266.4689085416
1.8573459386825562	341853.7426635794
1.860944390296936	246410.7925129406
1.864537239074707	143420.62181682116
1.8681244850158691	108097.59391135289
1.871706247329712	233615.13577307656
1.8752825260162354	526215.1406011296
1.8788533210754395	1169601.805158267
1.8824186325073242	1700728.2568171243
1.8859784603118896	1510826.7165843071
1.8895330429077148	1278000.244028586
1.8930821418762207	1721943.705500949
1.8966259956359863	1778955.120684445
1.9001644849777222	820429.1565853913
1.9036977291107178	144508.78753769564
1.9072256088256836	106629.70523239013
1.9107483625411987	106135.28261825786
1.9142658710479736	57869.20926527824
1.9177782535552979	63244.04569537203
1.9212853908538818	107564.90030112669
1.9247875213623047	112910.50834106287
1.9282845258712769	121096.13960745517
1.9317764043807983	181193.03287532326
1.9352631568908691	221703.59967157108
1.9387450218200684	229948.50267799685
1.942221760749817	291650.7080985625
1.9456936120986938	414878.87266864354
1.9491604566574097	600411.3081021525
1.952622413635254	617603.6096071437
1.956079363822937	432974.2461959909
1.959531545639038	379802.58600974886
1.962978720664978	454591.12312028056
1.966421127319336	718363.096081935
1.9698586463928223	1202064.5448913297
1.9732913970947266	1439450.8833030395
1.9767193794250488	1502904.5962206149
1.9801424741744995	1873160.5233014992
1.9835609197616577	2398609.6912105023
1.9869745969772339	2499388.6059558224
1.990383505821228	2124390.6908961423
1.9937876462936401	2118079.101618104
1.9971871376037598	2291570.5370205725
2.000581979751587	2528442.7815089696
2.003972291946411	3359675.443535871
2.007357597351074	4285452.181383042
2.0107386112213135	5191980.386644496
2.0141148567199707	5344464.200574633
2.017486572265625	4489104.203952222
2.0208535194396973	4327079.436850998
2.0242159366607666	4955755.887583264
2.027573823928833	5753045.036252293
2.0309269428253174	6725952.204202884
2.034275770187378	7302581.534928659
2.0376198291778564	7778844.14533527
2.040959596633911	8950280.326602729
2.044294595718384	10389148.740085173
2.0476250648498535	11527214.362973683
2.0509510040283203	11570988.778261237
2.054272413253784	10649539.894074043
2.057589530944824	10677678.412147086
2.0609018802642822	11714463.84356555
2.0642096996307373	12544649.96874242
2.0675129890441895	12988980.359381227
2.0708119869232178	13118732.89557809
2.074106216430664	12917952.17812141
2.0773961544036865	12731172.88432177
2.080681324005127	12846600.630688177
2.0839622020721436	12952844.260984007
2.087238311767578	12954669.53077142
2.090510129928589	12873028.535533223
2.0937774181365967	12607706.015539367
2.0970399379730225	12404311.250764169
2.1002981662750244	12255106.893406427
2.1035518646240234	11947919.683801647
2.1068007946014404	11562357.623792147
2.1100454330444336	11457561.167568065
2.1132853031158447	11441034.58726397
2.116520881652832	11000910.01501617
2.1197516918182373	10524010.92726175
2.1229779720306396	10398335.982065374
2.12619948387146	10460403.224564385
2.1294167041778564	10470732.62496939
2.132629156112671	10394631.799925065
2.1358368396759033	10011196.662925063
2.139039993286133	9357965.250077672
2.1422386169433594	8700442.827766862
2.145432472229004	8056381.60736261
2.1486217975616455	7584893.321202569
2.151806354522705	7127946.223131067
2.1549863815307617	7073867.619142833
2.1581614017486572	7203706.724365251
2.16133189201355	6690203.532472915
2.1644976139068604	6185505.534826054
2.167658567428589	6128818.402605679
2.1708147525787354	6343767.726300907
2.173966407775879	6582812.211775637
2.1771130561828613	6523733.82626655
2.1802549362182617	6114003.744467299
2.183391809463501	5517324.673727722
2.1865241527557373	4929177.295270796
2.1896514892578125	4295032.818518358
2.1927738189697266	3351970.9819009285
2.1958916187286377	2164891.427247254
2.1990041732788086	1266740.974287224
2.2021119594573975	912092.2858821157
2.2052149772644043	916162.9017406076
2.208312749862671	1075001.433968707
2.2114057540893555	1277934.56436498
2.214493751525879	1393613.2616865246
2.217576742172241	1314855.198395482
2.2206547260284424	1174835.2514653215
2.2237277030944824	1100672.6984998912
2.2267956733703613	959353.1392532923
2.2298583984375	739396.5575035745
2.2329163551330566	589597.2528324836
2.235969066619873	536562.5868395548
2.2390167713165283	494553.23028241994
2.2420592308044434	390401.80130780477
2.2450966835021973	267553.0540365396
2.248128890991211	269265.6434831576
2.2511560916900635	381555.7923552471
2.254178285598755	456057.9964199995
2.257194995880127	507785.19013622525
2.260206699371338	526334.891574365
2.2632133960723877	445911.2248701541
2.266214609146118	355787.8589377149
2.2692108154296875	338315.15740553057
2.2722020149230957	398915.4639853517
2.2751877307891846	472426.36121433973
2.278168201446533	471883.9704712938
2.2811436653137207	420659.0626615539
2.284113883972168	385513.5310597092
2.287078857421875	355121.15407241636
2.290038824081421	319623.9263909438
2.2929933071136475	318340.5810506389
2.295942783355713	343793.55313171336
2.298887014389038	350782.23034326144
2.301826238632202	366571.1895000124
2.304760217666626	528666.6903967493
2.3076889514923096	876952.0716700141
2.310612440109253	1185233.0093946855
2.3135311603546143	1113627.3458434897
2.3164443969726562	661647.0533225768
2.319352865219116	304961.0741456312
2.322256088256836	250651.63593223423
2.3251543045043945	278242.84990654915
2.328047275543213	276744.25220772217
2.330935478210449	270132.9752381815
2.3338186740875244	262706.8710301924
2.3366971015930176	246575.90480515835
2.3395702838897705	230579.1079163037
2.3424389362335205	207188.31462896115
2.3453025817871094	175611.5156324631
2.348161458969116	165308.89955348347
2.351015567779541	207362.84186249255
2.353865146636963	292346.1812539251
2.3567099571228027	367397.1234665871
2.3595502376556396	423863.3811199127
2.3623859882354736	474441.0201876274
2.3652172088623047	445417.1538252164
2.368043899536133	303362.89095782995
2.370866537094116	169128.7137271803
2.3736846446990967	143510.34722863726
2.3764986991882324	183229.43119622552
2.3793084621429443	230177.4596161118
2.3821144104003906	285353.96083483385
2.384916305541992	358324.47485194774
2.387714147567749	401260.7306304456
2.3905084133148193	372413.50323690707
2.393299102783203	342126.27126510016
2.3960859775543213	361219.71518581035
2.398869514465332	402121.0240189901
2.4016497135162354	410279.1954649614
2.4044265747070312	400586.8653090517
2.407200336456299	477576.3662993557
2.409970998764038	636020.9136381653
2.4127390384674072	738790.6654912465
2.415503978729248	771150.6190607841
2.418266534805298	872178.6423985852
2.4210267066955566	985264.9984309807
2.4237842559814453	901980.8612549215
2.426539897918701	774914.6594509654
2.429293394088745	916072.2325163909
2.4320452213287354	1181719.3856314726
2.4347951412200928	1244773.0016674884
2.4375438690185547	1180007.888147408
2.440291166305542	1218864.9558278224
2.443037271499634	1249907.532090443
2.445782423019409	1081329.911797041
2.4485268592834473	836355.2862577226
2.451270818710327	791902.6555048885
2.454014539718628	1001640.1946861239
2.4567582607269287	1185156.0020900208
2.4595019817352295	1222802.6338040961
2.4622461795806885	1346129.9296495165
2.4649908542633057	1378601.4921799696
2.4677364826202393	1071300.8028026016
2.4704833030700684	720907.3907363641
2.473231554031372	531880.3848838081
2.4759814739227295	434343.85420404724
2.4787333011627197	391388.69937725214
2.481487512588501	418957.1398720934
