#wavelength	surface flux
0.6450077295303345	267541.6087152441
0.6472567915916443	401432.48558663705
0.6494921445846558	481180.58304507483
0.6517150402069092	500674.56675216253
0.6539263725280762	515215.034538745
0.6561272740364075	528748.4195078595
0.6583186388015747	543704.8129534029
0.6605015397071838	559769.262239827
0.6626768708229065	573539.2413896038
0.6648455858230591	588378.5641442108
0.6670085787773132	598290.77533205
0.6691668033599854	582210.9621745734
0.6713210344314575	576394.0506269553
0.6734722256660461	621547.5314071776
0.6756211519241333	670988.1059475144
0.6777685880661011	694999.00765688
0.6799154281616211	708372.6047946671
0.6820623278617859	725498.8353477926
0.6842101216316223	751261.1650979319
0.6863595843315125	774499.3895493603
0.688511312007904	790957.3682315911
0.6906660795211792	802413.8970309355
0.6928245425224304	820345.638206159
0.6949873566627502	850429.3919863224
0.6971551775932312	879234.8995135465
0.6993286609649658	902032.1426840266
0.7015084028244019	923730.2901669047
0.7036949396133423	945872.9689058994
0.7058889269828796	968701.6668104504
0.7080909013748169	991739.7671147091
0.710301399230957	1015007.8634421247
0.712520956993103	1038697.7453424037
0.7147500514984131	1061985.466898655
0.7169892191886902	1084953.834671588
0.7192389369010925	1109384.091149007
0.7214996814727783	1134815.817355918
0.723771870136261	1159932.407375596
0.7260559797286987	1185347.8524073588
0.7283523678779602	1211155.9135460882
0.7306615710258484	1237375.0807158705
0.7329838871955872	1264170.162852036
0.7353196740150452	1290718.9216722664
0.7376693487167358	1316991.0897920993
0.7400332689285278	1342885.700959298
0.7424117922782898	1367072.622296584
0.7448052167892456	1389100.2557184102
0.7472138404846191	1408189.6343355703
0.7496379613876343	1421541.9083084865
0.7520779371261597	1424387.233328986
0.7545340061187744	1408647.9143394919
0.7570064663887024	1358030.6258555225
0.7594954967498779	1235839.5112600324
0.7620013952255249	972933.1969260715
0.7645244002342224	568678.3202258336
0.7670646905899048	242784.54439841674
0.7696225643157959	243172.72412322057
0.7721980810165405	618763.0848750038
0.7747915983200073	1128916.740565081
0.7774031162261963	1473646.0818641756
0.7800329327583313	1654044.7661326004
0.7826811671257019	1797420.2855446876
0.7853479981422424	1922495.5575537288
0.7880334854125977	2010241.5848143229
0.7907378077507019	2025610.0034173767
0.7934610247612	1920937.646815691
0.7962033748626709	1936284.690671106
0.7989648580551147	2163862.6317676906
0.801745593547821	2327781.816793714
0.8045456409454346	2392204.521153064
0.8073651194572449	2447914.857625677
0.8102040886878967	2501176.144212602
0.8130625486373901	2557549.522762975
0.8159406185150146	2618038.9676316204
0.8188382983207703	2678416.574599445
0.8217556476593018	2742364.1082563354
0.8246926665306091	2810033.7596344487
0.8276493549346924	2875564.131506263
0.8306257724761963	2939841.2560549052
0.8336219191551208	3005300.8739598016
0.8366377949714661	3070600.349084052
0.8396733403205872	3138655.291143646
0.8427285552024841	3212458.660211628
0.8458034992218018	3286862.3024414033
0.8488980531692505	3358510.109145391
0.8520121574401855	3430756.6562730717
0.8551458716392517	3508343.35585535
0.8582990765571594	3577347.3627896192
0.8614717125892639	3616874.859317782
0.8646637797355652	3666722.476853646
0.8678751587867737	3756012.8673534724
0.8711057901382446	3847204.098358877
0.8743556141853333	3932746.265062907
0.87762451171875	4018726.3582184315
0.8809124231338501	4102281.8672916116
0.8842192888259888	4193987.528727059
0.8875449895858765	4282575.25824396
0.8908893465995789	4356684.829499689
0.894252359867096	4443159.7905442035
0.8976338505744934	4553643.284379444
0.9010337591171265	4665787.121825463
0.9044519662857056	4772033.757106693
0.9078882932662964	4875702.812298912
0.9113426208496094	4973649.216817192
0.914814829826355	5062199.659282952
0.9183048605918884	5153729.924851851
0.9218124747276306	5243881.4861640455
0.925337553024292	5268260.843928557
0.9288799166679382	5238195.079405456
0.9324395060539246	5289269.662572183
0.9360161423683167	5441956.123242353
0.9396095871925354	5603078.036797541
0.943219780921936	5706837.0996926
0.9468464851379395	5784797.282805643
0.9504896402359009	5903333.703468304
0.9541489481925964	6042442.693743367
0.9578243494033813	6138294.156142113
0.9615156054496765	6181977.37307917
0.9652225375175476	6254396.068325097
0.9689450263977051	6408730.242390972
0.9726828336715698	6627016.684951366
0.9764357805252075	6823017.651914642
0.9802037477493286	6971386.333277464
0.983986496925354	7112332.456369596
0.9877838492393494	7243027.484548979
0.9915955662727356	7370284.703765177
0.9954215884208679	7514879.957461984
0.9992615580558777	7654213.210983266
1.0031154155731201	7776716.146403238
1.0069829225540161	7922211.960595913
1.0108637809753418	8090633.873013716
1.0147579908370972	8262885.21870467
1.018665075302124	8428510.847323427
1.022585153579712	8562782.848441541
1.0265177488327026	8684819.970632851
1.0304628610610962	8840691.16442605
1.0344202518463135	9025428.224042999
1.0383895635604858	9199157.119816067
1.0423706769943237	9352001.732556213
1.0463634729385376	9502257.320975304
1.0503677129745483	9653541.41562066
1.0543830394744873	9810263.342380002
1.058409333229065	9969245.859084649
1.0624464750289917	10122915.180382151
1.0664942264556885	10276979.787870863
1.0705522298812866	10432533.494756045
1.0746204853057861	10589389.2503349
1.0786986351013184	10748216.835034708
1.0827864408493042	10904301.943507591
1.086883783340454	11041325.021479102
1.0909905433654785	11148004.908744892
1.0951062440872192	11216413.451654846
1.0992310047149658	11135183.450100452
1.10336434841156	10935223.680023074
1.1075061559677124	10928005.071498172
1.1116561889648438	11050315.500961907
1.115814208984375	11105371.94089568
1.1199802160263062	11208270.698493851
1.124153733253479	11443814.472660568
1.1283347606658936	11617104.291450787
1.1325229406356812	11525823.482901275
1.1367181539535522	11666194.673138361
1.1409201622009277	12179425.470909044
1.145128846168518	12540241.40655693
1.1493438482284546	12479757.370811164
1.1535650491714478	12179475.912524749
1.1577922105789185	12155724.148720525
1.1620250940322876	12490404.051388511
1.1662636995315552	12932001.305299839
1.170507550239563	13251887.710497813
1.174756646156311	13562464.075418584
1.1790107488632202	14004711.37513063
1.1832695007324219	14390073.188675301
1.1875330209732056	14652921.160437599
1.191800832748413	14897920.579168702
1.1960728168487549	15170103.929477153
1.2003488540649414	15396892.07011671
1.2046287059783936	15577176.315946698
1.2089121341705322	15753642.545325164
1.2131990194320679	15953916.479785489
1.2174891233444214	16180111.38046439
1.2217823266983032	16400682.420615418
1.2260783910751343	16602757.140584115
1.230377197265625	16792389.773789536
1.2346785068511963	16976335.276145495
1.238982081413269	17162996.974807695
1.2432878017425537	17344055.55066361
1.2475954294204712	17490573.390693597
1.2519049644470215	17614393.48157941
1.256216049194336	17808615.77887079
1.2605286836624146	18031415.590568956
1.2648425102233887	18202166.791964293
1.2691574096679688	18360073.942156915
1.2734732627868652	18523998.781204123
1.2777899503707886	18686653.450228967
1.2821072340011597	18840062.090642393
1.2864248752593994	18975502.52877164
1.2907428741455078	19090606.664285097
1.2950609922409058	19231106.99933019
1.2993791103363037	19378279.459487893
1.303696870803833	19488385.57185615
1.3080145120620728	19623489.74155073
1.3123314380645752	19805475.06385377
1.3166478872299194	19979146.0830777
1.3209635019302368	20012907.442204308
1.3252781629562378	19788133.212066256
1.3295916318893433	18961258.454227954
1.3339040279388428	16870911.72725929
1.3382149934768677	13819483.939919926
1.3425244092941284	12254380.495696062
1.3468321561813354	12846107.357007476
1.3511382341384888	12588955.731848946
1.3554422855377197	11432412.763213992
1.3597444295883179	11219982.858563572
1.3640443086624146	11870712.23799254
1.3683418035507202	13142515.587412342
1.3726370334625244	14956205.586659487
1.3769296407699585	16150529.77390661
1.381219506263733	14581612.174687373
1.3855066299438477	12022068.82480339
1.3897908926010132	11176860.245834
1.3940720558166504	11211363.74423135
1.3983501195907593	11611298.882953912
1.4026249647140503	13303026.860214904
1.4068963527679443	14723541.631296339
1.4111642837524414	13528599.025609376
1.4154287576675415	12692060.132836249
1.419689416885376	13249169.187993942
1.4239463806152344	13236000.710466616
1.4281994104385376	13726228.674656052
1.4324485063552856	13920585.450758884
1.436693549156189	13685583.855356544
1.440934419631958	14712199.726621268
1.4451709985733032	16594864.166209051
1.449403166770935	18377977.61988623
1.453631043434143	19347547.822560117
1.4578542709350586	19824575.980616182
1.4620729684829712	20322580.726998758
1.4662868976593018	20496802.803046316
1.4704961776733398	20387206.60025597
1.4747005701065063	20527210.364100546
1.4788999557495117	20946121.502586626
1.4830944538116455	21595507.160201777
1.4872838258743286	22224561.835041836
1.491468071937561	22463438.576781854
1.4956470727920532	22629377.926564503
1.4998208284378052	23142267.60568697
1.5039892196655273	23708588.153367043
1.5081522464752197	23884604.902892284
1.5123097896575928	24024397.24892
1.5164618492126465	24465422.35441489
1.5206083059310913	25102131.663798884
1.5247491598129272	25565119.027982082
1.5288842916488647	25692349.47152147
1.5330137014389038	25890079.398297995
1.5371372699737549	26207666.500007596
1.541254997253418	26413439.223070033
1.545366883277893	26638979.77749763
1.5494728088378906	26921871.728115384
1.5535727739334106	27105255.741300244
1.5576666593551636	27180320.98387727
1.561754584312439	27346353.92670183
1.5658363103866577	27662271.70556864
1.5699119567871094	27906261.857177578
1.5739814043045044	27970298.58965735
1.5780447721481323	27985788.313596956
1.582101821899414	28173690.88650051
1.5861525535583496	28483220.68225912
1.5901970863342285	28684555.042181734
1.5942351818084717	28780975.58647665
1.5982669591903687	28865696.513881557
1.6022924184799194	28997432.925224807
1.606311559677124	29151788.280371293
1.6103241443634033	29267657.53365682
1.6143304109573364	29365817.86203878
1.6183301210403442	29473372.42398395
1.6223233938217163	29610885.56499708
1.6263102293014526	29768602.31227816
1.6302905082702637	29881177.20833609
1.634264349937439	29991847.087162998
1.638231635093689	30150200.373830818
1.6421923637390137	30288870.62789236
1.646146535873413	30381116.18968032
1.6500942707061768	30441003.1663348
1.6540353298187256	30506171.780887287
1.6579699516296387	30567733.614884317
1.661897897720337	30582478.57589052
1.6658192873001099	30562207.10676905
1.6697341203689575	30608697.263952013
1.6736423969268799	30827132.996801168
1.677544116973877	31052970.57046171
1.6814392805099487	31164296.448827066
1.6853278875350952	31235560.762162838
1.6892099380493164	31220740.146282878
1.6930854320526123	31076637.857939936
1.696954369544983	30991365.024079684
1.7008168697357178	31107088.520473238
1.7046726942062378	31210589.21587517
1.708522081375122	31162504.083381128
1.712364912033081	31077626.260296382
1.7162011861801147	31090490.21335233
1.7200311422348022	31181792.544934902
1.723854422569275	31196479.36906102
1.7276713848114014	31059631.330541186
1.731481909751892	30732915.32800771
1.7352858781814575	30333453.72172292
1.7390835285186768	30030217.952668235
1.7428747415542603	29649435.173415698
1.7466596364974976	29085035.770536825
1.7504380941390991	28363588.10076897
1.7542102336883545	27865739.094620988
1.7579760551452637	28623159.40263209
1.7617355585098267	29752392.427412696
1.7654887437820435	29350627.23339043
1.7692357301712036	27665033.359761305
1.7729763984680176	25372481.636725836
1.776710867881775	22762232.337228708
1.7804391384124756	21671420.40305969
1.7841613292694092	21791336.88822102
1.7878772020339966	21159068.57980997
1.7915871143341064	21260361.42588604
1.7952908277511597	21931727.30753922
1.7989884614944458	20842308.81051632
1.8026801347732544	17997128.471060343
1.806365728378296	15090549.132079102
1.8100452423095703	15129466.9713134
1.8137187957763672	16883933.28120447
1.817386507987976	16593940.220977033
1.8210482597351074	17411404.864176665
1.8247040510177612	18238019.162108384
1.828354001045227	16149427.844442802
1.8319982290267944	16235862.145415412
1.8356364965438843	18939124.094915155
1.8392690420150757	21062701.751662947
1.8428958654403687	21580667.317413077
1.8465168476104736	21244403.73861636
1.8501322269439697	20213457.2472164
1.8537418842315674	17253306.834149033
1.8573459386825562	15488014.46921184
1.860944390296936	15382319.231048657
1.864537239074707	14980999.576203408
1.8681244850158691	16718484.710358402
1.871706247329712	19913898.380221967
1.8752825260162354	21932713.199918296
1.8788533210754395	23302910.09309603
1.8824186325073242	24075653.752527073
1.8859784603118896	23604287.858064197
1.8895330429077148	23459155.98966295
1.8930821418762207	24692711.372522257
1.8966259956359863	24538142.85105468
1.9001644849777222	21066772.28599663
1.9036977291107178	17874566.54776914
1.9072256088256836	18272005.091295082
1.9107483625411987	18258583.807628118
1.9142658710479736	15735223.509870786
1.9177782535552979	15506885.263294771
1.9212853908538818	17321613.855880823
1.9247875213623047	17354411.562599193
1.9282845258712769	17535308.484432537
1.9317764043807983	19338642.169419438
1.9352631568908691	19976859.932766832
1.9387450218200684	18995781.6869689
1.942221760749817	18659213.43021426
1.9456936120986938	18957462.8978889
1.9491604566574097	19084075.166981943
1.952622413635254	18489184.41364668
1.956079363822937	17622393.9860356
1.959531545639038	18168077.07051626
1.962978720664978	19023113.71990929
1.966421127319336	20196808.235685896
1.9698586463928223	22176421.57277169
1.9732913970947266	23012693.308767956
1.9767193794250488	23324089.04975172
1.9801424741744995	24587936.18892142
1.9835609197616577	25814747.910226632
1.9869745969772339	25835400.75197007
1.990383505821228	24663444.670237165
1.9937876462936401	24151695.600463115
1.9971871376037598	24270471.5535099
2.000581979751587	24813214.508704677
2.003972291946411	26451099.46700673
2.007357597351074	27623711.654955804
2.0107386112213135	28469903.192546822
2.0141148567199707	28962448.153338794
2.017486572265625	28348940.315991953
2.0208535194396973	28437377.763176855
2.0242159366607666	29576179.348035365
2.027573823928833	30361384.306968812
2.0309269428253174	30807629.366849907
2.034275770187378	31300909.663778413
2.0376198291778564	31666342.273930233
2.040959596633911	31994082.111717578
2.044294595718384	32430671.760039225
2.0476250648498535	32894886.253494155
2.0509510040283203	33065019.06037503
2.054272413253784	32861285.200511716
2.057589530944824	32906841.59647718
2.0609018802642822	33279708.16554236
2.0642096996307373	33613166.66210703
2.0675129890441895	33848494.0013127
2.0708119869232178	33943989.047854684
2.074106216430664	33888917.54265152
2.0773961544036865	33870074.64875557
2.080681324005127	33987404.695502706
2.0839622020721436	34142531.21693829
2.087238311767578	34270823.57227659
2.090510129928589	34289151.722135946
2.0937774181365967	34228216.12314757
2.0970399379730225	34254799.05329301
2.1002981662750244	34318274.61758931
2.1035518646240234	34307515.68335491
2.1068007946014404	34296343.920506746
2.1100454330444336	34447731.118343085
2.1132853031158447	34644820.949822396
2.116520881652832	34662138.264243424
2.1197516918182373	34648222.258834675
2.1229779720306396	34729212.242544435
2.12619948387146	34800613.9094
2.1294167041778564	34823295.28825994
2.132629156112671	34858429.837025486
2.1358368396759033	34867188.15325111
2.139039993286133	34815981.819421805
2.1422386169433594	34799610.48768234
2.145432472229004	34822613.593989715
2.1486217975616455	34807764.352393486
2.151806354522705	34762704.82657993
2.1549863815307617	34759688.91853535
2.1581614017486572	34809425.79063678
2.16133189201355	34844057.64494664
2.1644976139068604	34845224.95863482
2.167658567428589	34819913.740892276
2.1708147525787354	34757247.98213163
2.173966407775879	34664051.7405946
2.1771130561828613	34616752.03394381
2.1802549362182617	34669766.02783442
2.183391809463501	34735769.710339315
2.1865241527557373	34751750.876361124
2.1896514892578125	34734614.76631118
2.1927738189697266	34619972.59881139
2.1958916187286377	34358246.05121559
2.1990041732788086	34123685.1972543
2.2021119594573975	34060943.80268933
2.2052149772644043	34078717.24643801
2.208312749862671	34130387.32807123
2.2114057540893555	34211154.128973104
2.214493751525879	34231262.295266114
2.217576742172241	34168449.39716949
2.2206547260284424	34133531.25618306
2.2237277030944824	34131121.55243689
2.2267956733703613	34031198.11559786
2.2298583984375	33878095.362126976
2.2329163551330566	33803405.55917289
2.235969066619873	33824253.76292386
2.2390167713165283	33801333.613435805
2.2420592308044434	33542842.06510902
2.2450966835021973	33169590.847740926
2.248128890991211	33042032.155981988
2.2511560916900635	33217191.21200244
2.254178285598755	33427832.81683252
2.257194995880127	33539514.81352041
2.260206699371338	33502342.674283203
2.2632133960723877	33173298.103358008
2.266214609146118	32703709.15388294
2.2692108154296875	32485159.7847742
2.2722020149230957	32632340.399348665
2.2751877307891846	32878717.91926745
2.278168201446533	32838316.863580007
2.2811436653137207	32540521.97818647
2.284113883972168	32412092.252327006
2.287078857421875	32462129.195263255
2.290038824081421	32056480.68583666
2.2929933071136475	30638016.54491311
2.295942783355713	28426771.914388392
2.298887014389038	26155438.059683543
2.301826238632202	24334751.566136263
2.304760217666626	22965817.358018775
2.3076889514923096	22062180.794157676
2.310612440109253	22157599.086577367
2.3135311603546143	22892093.581710797
2.3164443969726562	22977667.75251997
2.319352865219116	22422145.575958036
2.322256088256836	21981545.87240657
2.3251543045043945	21843477.95277069
2.328047275543213	21946172.197324272
2.330935478210449	22335190.30365117
2.3338186740875244	22978998.67749425
2.3366971015930176	23722144.95301872
2.3395702838897705	24534256.187535025
2.3424389362335205	25480858.77598408
2.3453025817871094	26604837.552632876
2.348161458969116	27277460.766656693
2.351015567779541	26906713.723243516
2.353865146636963	26049921.923857108
2.3567099571228027	25365759.688645843
2.3595502376556396	25338535.09877676
2.3623859882354736	26165665.295253333
2.3652172088623047	26396977.28629271
2.368043899536133	25136715.630266674
2.370866537094116	24668919.623156987
2.3736846446990967	25809403.880110014
2.3764986991882324	25453194.40840487
2.3793084621429443	23346760.743092153
2.3821144104003906	22479998.778753813
2.384916305541992	23829276.559754394
2.387714147567749	26247806.52837575
2.3905084133148193	28053836.259669814
2.393299102783203	28164290.856966197
2.3960859775543213	26493672.49219055
2.398869514465332	24452901.930748973
2.4016497135162354	23364917.60896659
2.4044265747070312	23203074.34397011
2.407200336456299	23638401.907453813
2.409970998764038	24137061.399720702
2.4127390384674072	24311847.34532622
2.415503978729248	24518613.188766368
2.418266534805298	25109567.100332223
2.4210267066955566	25627134.349892575
2.4237842559814453	25548563.40895423
2.426539897918701	25039185.65685439
2.429293394088745	24460711.065657124
2.4320452213287354	24152713.648140326
2.4347951412200928	24307249.41708735
2.4375438690185547	24463184.23866494
2.440291166305542	24024501.92951878
2.443037271499634	23044634.897876833
2.445782423019409	22042257.22933555
2.4485268592834473	21244548.11110123
2.451270818710327	20854863.61349318
2.454014539718628	21837899.2390684
2.4567582607269287	23274836.426813055
2.4595019817352295	22980763.219548892
2.4622461795806885	22735333.37643256
2.4649908542633057	22855704.2937377
2.4677364826202393	21043385.897775292
2.4704833030700684	18128835.82692708
2.473231554031372	15351312.429556126
2.4759814739227295	13149567.716100588
2.4787333011627197	12429481.29253941
