#wavelength	surface flux
0.6450077295303345	365454.6197748087
0.6472567915916443	551282.9821026403
0.6494921445846558	665605.2201144698
0.6517150402069092	697722.3733268409
0.6539263725280762	724281.90383197
0.6561272740364075	750130.8212906965
0.6583186388015747	776534.118035669
0.6605015397071838	803358.8944418083
0.6626768708229065	828838.3173747824
0.6648455858230591	853006.1635111364
0.6670085787773132	854401.7114200126
0.6691668033599854	790488.6104108057
0.6713210344314575	759102.7818812424
0.6734722256660461	863369.4094016653
0.6756211519241333	978275.4772001561
0.6777685880661011	1027994.2003847057
0.6799154281616211	1058871.3797942647
0.6820623278617859	1089649.0843272076
0.6842101216316223	1124255.7968941445
0.6863595843315125	1157596.2972710992
0.688511312007904	1186835.462281282
0.6906660795211792	1211459.1893667714
0.6928245425224304	1239564.6328059824
0.6949873566627502	1278509.4551761916
0.6971551775932312	1318715.4171314107
0.6993286609649658	1353544.4907685008
0.7015084028244019	1386398.7117148049
0.7036949396133423	1420363.0671617442
0.7058889269828796	1455667.253954984
0.7080909013748169	1490127.1558555663
0.710301399230957	1524322.4221084658
0.712520956993103	1558621.7794995587
0.7147500514984131	1589124.813528848
0.7169892191886902	1616433.6849917802
0.7192389369010925	1647905.7439687487
0.7214996814727783	1681419.6770410198
0.723771870136261	1711252.8712582127
0.7260559797286987	1739172.6687517741
0.7283523678779602	1765539.058678234
0.7306615710258484	1790991.592001364
0.7329838871955872	1816543.2519686022
0.7353196740150452	1837722.4624941605
0.7376693487167358	1852514.9974547685
0.7400332689285278	1859212.5784915208
0.7424117922782898	1851881.036676397
0.7448052167892456	1828114.4431661149
0.7472138404846191	1782187.9122078714
0.7496379613876343	1702894.2705259575
0.7520779371261597	1577365.6427679586
0.7545340061187744	1390297.1607498657
0.7570064663887024	1129623.271353862
0.7594954967498779	801662.3913863464
0.7620013952255249	453561.2823047496
0.7645244002342224	178301.51012957701
0.7670646905899048	45929.388363240985
0.7696225643157959	52374.89649318672
0.7721980810165405	220051.25204250202
0.7747915983200073	569998.0719145259
0.7774031162261963	976207.0331445867
0.7800329327583313	1356084.1650056452
0.7826811671257019	1786076.267958005
0.7853479981422424	2202315.9246298666
0.7880334854125977	2494598.0247329255
0.7907378077507019	2554269.626543134
0.7934610247612	2303082.476634261
0.7962033748626709	2392465.391789763
0.7989648580551147	2992039.1151573267
0.801745593547821	3394316.3021683223
0.8045456409454346	3545843.4885825007
0.8073651194572449	3664130.1814728766
0.8102040886878967	3763171.4989341297
0.8130625486373901	3867461.727534494
0.8159406185150146	3991314.089497719
0.8188382983207703	4114025.6138792043
0.8217556476593018	4234662.587537988
0.8246926665306091	4361536.005262915
0.8276493549346924	4481749.59325135
0.8306257724761963	4593135.781071956
0.8336219191551208	4705465.620347121
0.8366377949714661	4815747.549748719
0.8396733403205872	4936940.55454296
0.8427285552024841	5080305.715193799
0.8458034992218018	5220067.445085262
0.8488980531692505	5333557.882896623
0.8520121574401855	5441616.069804466
0.8551458716392517	5589255.271414164
0.8582990765571594	5725904.794815506
0.8614717125892639	5771402.494615841
0.8646637797355652	5831456.572323097
0.8678751587867737	5991277.402717459
0.8711057901382446	6161526.033450689
0.8743556141853333	6307116.791770313
0.87762451171875	6439810.00349784
0.8809124231338501	6567097.239303486
0.8842192888259888	6717748.773208429
0.8875449895858765	6850907.787204903
0.8908893465995789	6915307.835142308
0.894252359867096	7003253.831329071
0.8976338505744934	7213656.612389595
0.9010337591171265	7470593.873021957
0.9044519662857056	7691873.661625372
0.9078882932662964	7881835.753477517
0.9113426208496094	8040630.897887187
0.914814829826355	8150942.435130287
0.9183048605918884	8269083.655270034
0.9218124747276306	8378633.188905662
0.925337553024292	8177306.630621117
0.9288799166679382	7707599.679064284
0.9324395060539246	7591387.808585141
0.9360161423683167	7950547.238790412
0.9396095871925354	8367862.1931798635
0.943219780921936	8492026.99498476
0.9468464851379395	8478021.610607376
0.9504896402359009	8677741.303023363
0.9541489481925964	8988187.304724665
0.9578243494033813	9094514.366923418
0.9615156054496765	8949512.08953245
0.9652225375175476	8940168.17826834
0.9689450263977051	9319168.532143362
0.9726828336715698	9974684.32093339
0.9764357805252075	10500266.983005747
0.9802037477493286	10807741.884382403
0.983986496925354	11098681.742430888
0.9877838492393494	11403133.509262478
0.9915955662727356	11722509.250218503
0.9954215884208679	12015804.232636444
0.9992615580558777	12250885.6118085
1.0031154155731201	12466585.393393416
1.0069829225540161	12746030.743128648
1.0108637809753418	13081654.997158865
1.0147579908370972	13421569.301572539
1.018665075302124	13713046.82660494
1.022585153579712	13903254.020218993
1.0265177488327026	14047045.069062578
1.0304628610610962	14283551.567789555
1.0344202518463135	14650020.225822475
1.0383895635604858	14999069.099461295
1.0423706769943237	15263847.946903018
1.0463634729385376	15497316.50509014
1.0503677129745483	15722850.89231535
1.0543830394744873	15985424.706808299
1.058409333229065	16265558.662776135
1.0624464750289917	16517394.750240365
1.0664942264556885	16751065.145535836
1.0705522298812866	16982672.52183817
1.0746204853057861	17232563.373641312
1.0786986351013184	17493262.0680904
1.0827864408493042	17733955.530569147
1.086883783340454	17887003.521167938
1.0909905433654785	17903727.41226028
1.0951062440872192	17731561.167955842
1.0992310047149658	16841448.972930267
1.10336434841156	15406452.120752687
1.1075061559677124	14864929.791106882
1.1116561889648438	14866991.762327377
1.115814208984375	14496167.706717096
1.1199802160263062	14315030.98773694
1.124153733253479	14768862.475650009
1.1283347606658936	15124657.931939393
1.1325229406356812	14498101.134345595
1.1367181539535522	14761680.81181326
1.1409201622009277	16433312.33502985
1.145128846168518	17455294.399180368
1.1493438482284546	16603851.750006935
1.1535650491714478	14615065.163751617
1.1577922105789185	13951470.381787974
1.1620250940322876	15026115.928782802
1.1662636995315552	16618624.131391035
1.170507550239563	17684971.255550154
1.174756646156311	18731913.896803826
1.1790107488632202	20315233.78373024
1.1832695007324219	21587456.359252956
1.1875330209732056	22303833.50373668
1.191800832748413	22940684.813746866
1.1960728168487549	23693263.19464334
1.2003488540649414	24217927.505533896
1.2046287059783936	24511795.657668523
1.2089121341705322	24815432.238822985
1.2131990194320679	25222224.845623948
1.2174891233444214	25708652.535588596
1.2217823266983032	26172936.639429156
1.2260783910751343	26568285.06824657
1.230377197265625	26908374.6057203
1.2346785068511963	27219035.97653101
1.238982081413269	27544824.44060098
1.2432878017425537	27844008.65792201
1.2475954294204712	28006129.86438792
1.2519049644470215	28090782.166139532
1.256216049194336	28437666.294670567
1.2605286836624146	28871514.855732508
1.2648425102233887	29099725.01652356
1.2691574096679688	29279865.813321147
1.2734732627868652	29493097.45010055
1.2777899503707886	29708394.33680268
1.2821072340011597	29869683.941573005
1.2864248752593994	29920784.53865205
1.2907428741455078	29863981.93900062
1.2950609922409058	29953052.14349081
1.2993791103363037	30078751.618106376
1.303696870803833	30010055.924231496
1.3080145120620728	30065512.600031123
1.3123314380645752	30374653.621095434
1.3166478872299194	30718619.65987564
1.3209635019302368	30397870.260377232
1.3252781629562378	28891235.583451506
1.3295916318893433	25336334.477563195
1.3339040279388428	18613531.269147087
1.3382149934768677	10931148.611917276
1.3425244092941284	7172273.701428834
1.3468321561813354	7423789.521628442
1.3511382341384888	6773894.180179444
1.3554422855377197	5190507.756727073
1.3597444295883179	4869949.02120996
1.3640443086624146	5431758.15627041
1.3683418035507202	6738392.158333385
1.3726370334625244	9686832.11412265
1.3769296407699585	12384905.552270837
1.381219506263733	10019903.855220903
1.3855066299438477	5520961.418737709
1.3897908926010132	4037939.1887151077
1.3940720558166504	4318821.0573872635
1.3983501195907593	5040715.779290571
1.4026249647140503	7322381.816092819
1.4068963527679443	9225902.667926216
1.4111642837524414	7588596.632163655
1.4154287576675415	6129746.565557065
1.419689416885376	6325157.945443771
1.4239463806152344	6218139.94303621
1.4281994104385376	7138809.166496679
1.4324485063552856	7800931.240941578
1.436693549156189	7699608.930339871
1.440934419631958	8896378.374501927
1.4451709985733032	11721467.791337134
1.449403166770935	15359560.484667
1.453631043434143	17676079.0950245
1.4578542709350586	18756822.58089201
1.4620729684829712	19978572.257571567
1.4662868976593018	20216171.084388815
1.4704961776733398	19459697.25061481
1.4747005701065063	19380302.432889886
1.4788999557495117	20328717.129832182
1.4830944538116455	22412054.74649047
1.4872838258743286	24549133.789549988
1.491468071937561	25141802.10420521
1.4956470727920532	25216244.962050654
1.4998208284378052	26599194.173557077
1.5039892196655273	28356098.628757335
1.5081522464752197	28728465.100289166
1.5123097896575928	29113229.206430588
1.5164618492126465	30723172.230876617
1.5206083059310913	33072622.119266786
1.5247491598129272	34706243.573775426
1.5288842916488647	34942909.254427396
1.5330137014389038	35459395.58347736
1.5371372699737549	36442647.58907015
1.541254997253418	36882650.778755866
1.545366883277893	37409490.04475531
1.5494728088378906	38273314.57465137
1.5535727739334106	38741695.61085415
1.5576666593551636	38663073.79438649
1.561754584312439	39016101.396632425
1.5658363103866577	40136660.96119323
1.5699119567871094	40851189.064416565
1.5739814043045044	40544625.40948267
1.5780447721481323	39969918.17443276
1.582101821899414	40535358.58613678
1.5861525535583496	41925287.94741773
1.5901970863342285	42562018.403085195
1.5942351818084717	42420367.23050551
1.5982669591903687	42167843.90192491
1.6022924184799194	42225191.85595208
1.606311559677124	42520280.50654821
1.6103241443634033	42605372.25240201
1.6143304109573364	42465361.32954573
1.6183301210403442	42284881.68389487
1.6223233938217163	42162097.6667459
1.6263102293014526	42046637.18317807
1.6302905082702637	41784187.199622445
1.634264349937439	42269540.267912105
1.638231635093689	43748655.26657205
1.6421923637390137	44597379.96049836
1.646146535873413	44157235.0782623
1.6500942707061768	43538848.37262082
1.6540353298187256	43818180.87558101
1.6579699516296387	44256940.48488516
1.661897897720337	43350280.495352246
1.6658192873001099	40853882.24034189
1.6697341203689575	39949666.50810392
1.6736423969268799	42211352.00862855
1.677544116973877	43912618.42334971
1.6814392805099487	43938412.41348094
1.6853278875350952	43736971.7915763
1.6892099380493164	43044843.84390172
1.6930854320526123	41345464.85566291
1.696954369544983	39691821.2847217
1.7008168697357178	39590439.269890435
1.7046726942062378	40222045.45939766
1.708522081375122	40612609.44132818
1.712364912033081	40852110.59169325
1.7162011861801147	41341679.609229565
1.7200311422348022	42034684.17599705
1.723854422569275	42042196.30080192
1.7276713848114014	41204313.38946797
1.731481909751892	39616500.52910092
1.7352858781814575	37799697.449686706
1.7390835285186768	36522073.40136672
1.7428747415542603	35095023.86844909
1.7466596364974976	32949107.69010007
1.7504380941390991	30362932.66125984
1.7542102336883545	28766470.736903347
1.7579760551452637	31384129.084035877
1.7617355585098267	34919829.11462331
1.7654887437820435	33097224.633998044
1.7692357301712036	27389471.826577555
1.7729763984680176	21029093.8464627
1.776710867881775	15141432.155206526
1.7804391384124756	12816321.329914993
1.7841613292694092	13113645.545679435
1.7878772020339966	12084708.404918402
1.7915871143341064	12400163.747666711
1.7952908277511597	14874240.563392863
1.7989884614944458	15013685.788565682
1.8026801347732544	10952733.575451687
1.806365728378296	6487784.97347529
1.8100452423095703	6625690.788189921
1.8137187957763672	8354379.730938837
1.817386507987976	7420133.332572296
1.8210482597351074	8406377.548706692
1.8247040510177612	9300521.704055091
1.828354001045227	6250970.647487114
1.8319982290267944	5505991.666378918
1.8356364965438843	8484132.755241448
1.8392690420150757	11291560.171405504
1.8428958654403687	11602070.08294762
1.8465168476104736	11150475.73257061
1.8501322269439697	11000109.461899819
1.8537418842315674	8542337.474280288
1.8573459386825562	6241461.513282671
1.860944390296936	5610953.944550809
1.864537239074707	4748287.321129546
1.8681244850158691	5604646.848577017
1.871706247329712	8639385.710368045
1.8752825260162354	11694111.198650261
1.8788533210754395	14952559.80320912
1.8824186325073242	17164541.9648788
1.8859784603118896	16236828.496472966
1.8895330429077148	15522445.173646515
1.8930821418762207	17996460.872073583
1.8966259956359863	17707921.71954909
1.9001644849777222	11187985.676883312
1.9036977291107178	6404189.747264302
1.9072256088256836	7066155.366687187
1.9107483625411987	7016329.701258502
1.9142658710479736	4533474.166434455
1.9177782535552979	4188968.974002217
1.9212853908538818	5645725.235944316
1.9247875213623047	5733110.132380851
1.9282845258712769	5875319.629675579
1.9317764043807983	7415052.216598962
1.9352631568908691	8079341.646647458
1.9387450218200684	7491969.161422773
1.942221760749817	7734916.102362139
1.9456936120986938	8551252.157058557
1.9491604566574097	9376064.119233686
1.952622413635254	8996285.732592577
1.956079363822937	7460936.953622446
1.959531545639038	7413608.012367643
1.962978720664978	8152204.897550919
1.966421127319336	9877241.34795892
1.9698586463928223	12961023.266004607
1.9732913970947266	14434186.949556798
1.9767193794250488	15190538.482464474
1.9801424741744995	17486293.745987523
1.9835609197616577	19831429.83691474
1.9869745969772339	20016343.41507429
1.990383505821228	17757236.674612038
1.9937876462936401	16816642.591019027
1.9971871376037598	17178989.049308408
2.000581979751587	18440362.107320953
2.003972291946411	21980173.17572604
2.007357597351074	24726678.949171107
2.0107386112213135	27060679.1400977
2.0141148567199707	28111350.826006766
2.017486572265625	26256036.80816767
2.0208535194396973	26702583.536019996
2.0242159366607666	30036060.557288475
2.027573823928833	32237280.132077165
2.0309269428253174	33611881.13178957
2.034275770187378	35310498.16147262
2.0376198291778564	36654589.076286376
2.040959596633911	37879459.25797208
2.044294595718384	39536795.15088185
2.0476250648498535	41281192.22759565
2.0509510040283203	41737868.64719162
2.054272413253784	40831425.056873746
2.057589530944824	41034916.981281616
2.0609018802642822	42456755.74910569
2.0642096996307373	43672510.25116149
2.0675129890441895	44492579.083743945
2.0708119869232178	44814338.83590977
2.074106216430664	44568409.707051836
2.0773961544036865	44397106.66113043
2.080681324005127	44770084.57786914
2.0839622020721436	45295903.25640684
2.087238311767578	45689755.66888608
2.090510129928589	45680212.784706555
2.0937774181365967	45345911.201133795
2.0970399379730225	45310322.81023375
2.1002981662750244	45396544.40768925
2.1035518646240234	45119141.75278064
2.1068007946014404	44722687.355994485
2.1100454330444336	45089495.12333871
2.1132853031158447	45826029.856721446
2.116520881652832	45768942.080361
2.1197516918182373	45528040.64192004
2.1229779720306396	45754808.19885338
2.12619948387146	46029617.21768958
2.1294167041778564	46093401.43032206
2.132629156112671	46127383.84446366
2.1358368396759033	45906488.75552887
2.139039993286133	45343471.17518112
2.1422386169433594	44857037.124574915
2.145432472229004	44516395.79265364
2.1486217975616455	44202127.11495771
2.151806354522705	43787730.58296646
2.1549863815307617	43700747.14107293
2.1581614017486572	43828842.495652445
2.16133189201355	43524872.05070918
2.1644976139068604	43180210.30068368
2.167658567428589	43022765.17106856
2.1708147525787354	42869923.56924575
2.173966407775879	42559871.89352039
2.1771130561828613	42180105.10335885
2.1802549362182617	41905017.502921425
2.183391809463501	41485965.65247413
2.1865241527557373	40804355.81880163
2.1896514892578125	39789305.093836024
2.1927738189697266	37634030.11594847
2.1958916187286377	34019772.513118476
2.1990041732788086	30521866.45265267
2.2021119594573975	28542934.161859434
2.2052149772644043	27711127.862125766
2.208312749862671	27868535.610206157
2.2114057540893555	29181656.42669053
2.214493751525879	30498346.926486507
2.217576742172241	30581315.890481733
2.2206547260284424	30178186.777214713
2.2237277030944824	29783663.94569945
2.2267956733703613	28269735.00459702
2.2298583984375	26071252.330887817
2.2329163551330566	24720602.409651984
2.235969066619873	24412093.94334555
2.2390167713165283	23998762.641499013
2.2420592308044434	22366471.96976741
2.2450966835021973	20458404.582664013
2.248128890991211	20569311.4934671
2.2511560916900635	22265631.563618
2.254178285598755	23378632.383364696
2.257194995880127	24050683.583902955
2.260206699371338	24104016.355620544
2.2632133960723877	22354029.197284266
2.266214609146118	19988677.137807976
2.2692108154296875	19092745.36350325
2.2722020149230957	20080190.950152278
2.2751877307891846	21390438.392802984
2.278168201446533	21248788.496328868
2.2811436653137207	20029998.72909805
2.284113883972168	19072321.119276196
2.287078857421875	18347723.11656378
2.290038824081421	17309593.073248193
2.2929933071136475	16024235.772908745
2.295942783355713	14681250.856377672
2.298887014389038	13473044.34694156
2.301826238632202	12718629.481608015
2.304760217666626	12607053.732918559
2.3076889514923096	13099222.903465293
2.310612440109253	14005000.170104861
2.3135311603546143	14058006.37266123
2.3164443969726562	12013110.441254694
2.319352865219116	9596254.697362171
2.322256088256836	8724335.581524018
2.3251543045043945	8605748.268895283
2.328047275543213	8502186.75781473
2.330935478210449	8694381.7749489
2.3338186740875244	9055844.773612246
2.3366971015930176	9359087.00267193
2.3395702838897705	9642048.279319309
2.3424389362335205	9770802.493096404
2.3453025817871094	9785207.735508792
2.348161458969116	9902141.88378964
2.351015567779541	10421527.591334932
2.353865146636963	11412995.979600435
2.3567099571228027	12239781.122447316
2.3595502376556396	12980584.100133413
2.3623859882354736	14110968.481663227
2.3652172088623047	14057143.203834247
2.368043899536133	11380034.178040333
2.370866537094116	8569460.068652695
2.3736846446990967	8373638.98734628
2.3764986991882324	8873264.77493655
2.3793084621429443	8372429.56397908
2.3821144104003906	8394261.11144911
2.384916305541992	9951377.981323563
2.387714147567749	12032119.139548782
2.3905084133148193	13120864.008019835
2.393299102783203	13050806.055150794
2.3960859775543213	12189455.605085066
2.398869514465332	11306281.70142428
2.4016497135162354	10763248.151927361
2.4044265747070312	10509708.176813764
2.407200336456299	11184614.063991334
2.409970998764038	12480439.950441359
2.4127390384674072	13248774.086079761
2.415503978729248	13661336.651994698
2.418266534805298	14634664.046924101
2.4210267066955566	15443443.159581544
2.4237842559814453	14748998.317408524
2.426539897918701	13436156.85754003
2.429293394088745	13257163.94985387
2.4320452213287354	14054320.533675607
2.4347951412200928	14646592.537303248
2.4375438690185547	14621722.19001642
2.440291166305542	14112368.852182224
2.443037271499634	13108651.65527187
2.445782423019409	11746816.632163322
2.4485268592834473	10449356.906094134
2.451270818710327	10030949.934302585
2.454014539718628	11541976.384907655
2.4567582607269287	13342105.6745581
2.4595019817352295	12988494.219332831
2.4622461795806885	12828942.777831122
2.4649908542633057	12935471.852333494
2.4677364826202393	10774391.684213009
2.4704833030700684	7946748.656948742
2.473231554031372	5929109.898155396
2.4759814739227295	4616130.326407571
2.4787333011627197	4183202.445771975
2.481487512588501	4878908.340572005
