#wavelength	surface flux
0.6450077295303345	1814.9897677160889
0.6472567915916443	2811.695224402797
0.6494921445846558	3573.6479067163555
0.6517150402069092	3990.770355036761
0.6539263725280762	4404.211533001316
0.6561272740364075	4833.66790713414
0.6583186388015747	5286.115198224399
0.6605015397071838	5769.0918586095295
0.6626768708229065	6284.724650382664
0.6648455858230591	6830.108411335745
0.6670085787773132	7337.744631383362
0.6691668033599854	7660.324848303814
0.6713210344314575	8096.936013136847
0.6734722256660461	8989.314808766025
0.6756211519241333	9937.196336685432
0.6777685880661011	10697.948351757199
0.6799154281616211	11429.933160663944
0.6820623278617859	12173.484395292217
0.6842101216316223	12928.523867149715
0.6863595843315125	13690.029754715495
0.688511312007904	14434.453802107975
0.6906660795211792	15084.158604429611
0.6928245425224304	15651.65585329084
0.6949873566627502	16365.940148649395
0.6971551775932312	17203.860777377766
0.6993286609649658	17928.586306102126
0.7015084028244019	18568.915881242094
0.7036949396133423	19168.33419636124
0.7058889269828796	19671.871691408523
0.7080909013748169	20083.149314667542
0.710301399230957	20435.505999730107
0.712520956993103	20680.0920030012
0.7147500514984131	20682.359066402656
0.7169892191886902	20428.174440294384
0.7192389369010925	20098.177852732955
0.7214996814727783	19706.864530070445
0.723771870136261	19046.85971824745
0.7260559797286987	18194.252118735978
0.7283523678779602	17322.028313701652
0.7306615710258484	16717.26681573283
0.7329838871955872	16455.0850089255
0.7353196740150452	15872.531415777883
0.7376693487167358	14823.234565766574
0.7400332689285278	13670.983070977383
0.7424117922782898	12487.147168281908
0.7448052167892456	11308.990474410544
0.7472138404846191	10102.539503210452
0.7496379613876343	8829.584923511684
0.7520779371261597	7530.5284419642185
0.7545340061187744	6228.473770002698
0.7570064663887024	4940.034775497547
0.7594954967498779	3673.3329984298393
0.7620013952255249	2423.2653101762658
0.7645244002342224	1290.3416427486209
0.7670646905899048	599.1445075543306
0.7696225643157959	637.7844374864136
0.7721980810165405	1565.398356227848
0.7747915983200073	3249.927082511752
0.7774031162261963	5176.826012780103
0.7800329327583313	7299.094367913633
0.7826811671257019	10194.128433804848
0.7853479981422424	13781.5883561322
0.7880334854125977	17559.72851139085
0.7907378077507019	20406.010188984652
0.7934610247612	21488.27696407208
0.7962033748626709	25871.504888796422
0.7989648580551147	35441.3785869341
0.801745593547821	44637.29737887913
0.8045456409454346	52442.73991319029
0.8073651194572449	60205.90196854818
0.8102040886878967	67579.58082345742
0.8130625486373901	76072.22593033228
0.8159406185150146	87587.151802139
0.8188382983207703	101460.40780704266
0.8217556476593018	116512.95183264138
0.8246926665306091	132117.99015083615
0.8276493549346924	147849.72609946
0.8306257724761963	165130.80273771755
0.8336219191551208	185579.47459453007
0.8366377949714661	207581.60281121993
0.8396733403205872	231075.92521869167
0.8427285552024841	258366.5931885178
0.8458034992218018	287557.8128831609
0.8488980531692505	306220.41124544747
0.8520121574401855	321439.95302835485
0.8551458716392517	369834.03556392447
0.8582990765571594	438260.714848506
0.8614717125892639	494001.54665255925
0.8646637797355652	546231.747055131
0.8678751587867737	605311.5664005217
0.8711057901382446	671041.8680313925
0.8743556141853333	739844.6214306453
0.87762451171875	806692.6801402643
0.8809124231338501	864166.9914551923
0.8842192888259888	915105.4395898114
0.8875449895858765	959585.6032224487
0.8908893465995789	949183.0668094717
0.894252359867096	915736.5998820399
0.8976338505744934	1049628.6837249394
0.9010337591171265	1342049.3221383716
0.9044519662857056	1601170.6110319227
0.9078882932662964	1774956.414462847
0.9113426208496094	1893031.4386437186
0.914814829826355	1972405.40186531
0.9183048605918884	2073461.7663385672
0.9218124747276306	2129447.347308687
0.925337553024292	1812582.3064587777
0.9288799166679382	1265426.855793213
0.9324395060539246	1056387.7027859115
0.9360161423683167	1256564.5428049709
0.9396095871925354	1523012.1073620939
0.943219780921936	1491895.2152174418
0.9468464851379395	1209550.6787537315
0.9504896402359009	1308733.9112911953
0.9541489481925964	1875190.2202928762
0.9578243494033813	2117692.957466646
0.9615156054496765	1793377.504824757
0.9652225375175476	1592943.5483248192
0.9689450263977051	2191818.2573172827
0.9726828336715698	3218762.377027771
0.9764357805252075	3786756.966880706
0.9802037477493286	4097732.931034668
0.983986496925354	4685210.078319901
0.9877838492393494	5357222.102530253
0.9915955662727356	5951450.153047272
0.9954215884208679	6489555.933627027
0.9992615580558777	6873527.7476586355
1.0031154155731201	7202940.787609784
1.0069829225540161	7747039.014149779
1.0108637809753418	8465248.879486797
1.0147579908370972	9155175.273654481
1.018665075302124	9673054.32514114
1.022585153579712	9974385.754075019
1.0265177488327026	10233717.94379865
1.0304628610610962	10632929.368977917
1.0344202518463135	11130222.625969691
1.0383895635604858	11555990.141856773
1.0423706769943237	11839200.56842723
1.0463634729385376	11999251.512917137
1.0503677129745483	12144321.860108336
1.0543830394744873	12417416.896453263
1.058409333229065	12744055.911621176
1.0624464750289917	12943202.28886467
1.0664942264556885	12888771.882981589
1.0705522298812866	12698645.317620985
1.0746204853057861	12621235.806140015
1.0786986351013184	12576145.201897
1.0827864408493042	12498649.039896324
1.086883783340454	12032114.022849962
1.0909905433654785	10670479.572085835
1.0951062440872192	8783417.779849099
1.0992310047149658	6324937.383018368
1.10336434841156	3601669.308987596
1.1075061559677124	2110921.3908395977
1.1116561889648438	1521644.4248994377
1.115814208984375	1031772.8697078187
1.1199802160263062	932910.0165416164
1.124153733253479	1058903.2833679582
1.1283347606658936	1054810.049792349
1.1325229406356812	944165.0809927385
1.1367181539535522	1414762.2402162694
1.1409201622009277	2275059.7949668635
1.145128846168518	2505719.788951983
1.1493438482284546	1970062.3990195612
1.1535650491714478	1168986.024557671
1.1577922105789185	834801.0670964228
1.1620250940322876	1057560.2528592919
1.1662636995315552	1638267.4426111837
1.170507550239563	2536001.581118373
1.174756646156311	3873173.9510641596
1.1790107488632202	5620461.604369021
1.1832695007324219	6961995.864598803
1.1875330209732056	7623810.830149787
1.191800832748413	9174699.262689942
1.1960728168487549	11664745.398836484
1.2003488540649414	13349247.997509032
1.2046287059783936	14338782.121942777
1.2089121341705322	15005142.055876989
1.2131990194320679	15585226.513676174
1.2174891233444214	16623416.204846347
1.2217823266983032	17772943.064487934
1.2260783910751343	18756765.173789766
1.230377197265625	19703875.258733615
1.2346785068511963	20608622.987399645
1.238982081413269	21522136.314429846
1.2432878017425537	22470634.85989348
1.2475954294204712	23322159.507377267
1.2519049644470215	24076970.01462272
1.256216049194336	25190537.038712367
1.2605286836624146	26248670.052604247
1.2648425102233887	26753007.380104262
1.2691574096679688	27418527.93964327
1.2734732627868652	28367684.45116089
1.2777899503707886	28417638.637297306
1.2821072340011597	27388301.8055114
1.2864248752593994	26500864.8853257
1.2907428741455078	25731971.190833516
1.2950609922409058	24553006.812702585
1.2993791103363037	22085792.852331962
1.303696870803833	20261906.5025324
1.3080145120620728	20072197.117428962
1.3123314380645752	20026254.183617204
1.3166478872299194	20539413.724296138
1.3209635019302368	18796664.63774879
1.3252781629562378	14209297.610988585
1.3295916318893433	8874622.191269321
1.3339040279388428	3701934.289137095
1.3382149934768677	860928.1334898024
1.3425244092941284	206383.52168208972
1.3468321561813354	97873.11638682081
1.3511382341384888	61129.29078650624
1.3554422855377197	36182.15247746035
1.3597444295883179	39732.43367272991
1.3640443086624146	62204.0872685015
1.3683418035507202	67892.21979954993
1.3726370334625244	60671.31941473329
1.3769296407699585	65445.13450104036
1.381219506263733	53433.769070189235
1.3855066299438477	30048.783708336232
1.3897908926010132	33781.59644065324
1.3940720558166504	51433.01368293988
1.3983501195907593	54422.04845983696
1.4026249647140503	67014.3770432743
1.4068963527679443	80296.81374565404
1.4111642837524414	58696.01882815001
1.4154287576675415	40173.76764010197
1.419689416885376	39089.504153145805
1.4239463806152344	38595.766983817426
1.4281994104385376	36236.83833828561
1.4324485063552856	44491.17125995258
1.436693549156189	97833.57682132997
1.440934419631958	229409.92581866094
1.4451709985733032	486467.9043518299
1.449403166770935	825261.6720483353
1.453631043434143	1009699.1667644132
1.4578542709350586	1162397.0810030447
1.4620729684829712	1472248.7638414386
1.4662868976593018	1571614.7135123794
1.4704961776733398	1042676.2373603221
1.4747005701065063	463467.6861129171
1.4788999557495117	605008.0568772929
1.4830944538116455	1156706.968467501
1.4872838258743286	1297903.488798398
1.491468071937561	1021509.9263965081
1.4956470727920532	1272888.2045049884
1.4998208284378052	2309115.857806176
1.5039892196655273	2887754.5624620356
1.5081522464752197	2484288.388682488
1.5123097896575928	2392917.699296811
1.5164618492126465	3365913.671593153
1.5206083059310913	4948921.8233522065
1.5247491598129272	6259330.520255028
1.5288842916488647	6888422.933512277
1.5330137014389038	7365123.420913659
1.5371372699737549	7939746.699872949
1.541254997253418	8187730.973175564
1.545366883277893	8504878.844714846
1.5494728088378906	9359677.041249728
1.5535727739334106	10471538.277838452
1.5576666593551636	11548439.934250131
1.561754584312439	12655320.819611842
1.5658363103866577	13668858.316450978
1.5699119567871094	14019838.406447496
1.5739814043045044	13681062.765467092
1.5780447721481323	13425141.352920625
1.582101821899414	13642975.826769724
1.5861525535583496	13801609.246788325
1.5901970863342285	13410925.27333139
1.5942351818084717	12563072.593026007
1.5982669591903687	11765465.831050158
1.6022924184799194	10953581.310117308
1.606311559677124	10088382.703028
1.6103241443634033	9609836.671954505
1.6143304109573364	8770051.386581892
1.6183301210403442	7339809.218204726
1.6223233938217163	6164504.5088949995
1.6263102293014526	5358970.591939251
1.6302905082702637	5258289.805081755
1.634264349937439	6085964.396409786
1.638231635093689	7011391.909587656
1.6421923637390137	6892449.376229682
1.646146535873413	5289999.226789729
1.6500942707061768	4132426.18663448
1.6540353298187256	4650893.370787007
1.6579699516296387	5177736.228441966
1.661897897720337	4756503.869995887
1.6658192873001099	3269510.848698875
1.6697341203689575	2074707.5239968272
1.6736423969268799	2304805.0039158617
1.677544116973877	2521933.0962843318
1.6814392805099487	2320813.0077236537
1.6853278875350952	2065866.8166903695
1.6892099380493164	1774662.21942871
1.6930854320526123	1596533.8379908786
1.696954369544983	1322702.4436382775
1.7008168697357178	1057020.3798813191
1.7046726942062378	1011955.0268700679
1.708522081375122	1284920.0908808026
1.712364912033081	1618661.8386094058
1.7162011861801147	1783773.4048491495
1.7200311422348022	1999573.3487154832
1.723854422569275	1976764.2418213522
1.7276713848114014	1642494.1754569977
1.731481909751892	1499132.4589238924
1.7352858781814575	1571539.070525593
1.7390835285186768	1686844.3691454218
1.7428747415542603	1734746.2220911437
1.7466596364974976	1504757.6022314394
1.7504380941390991	1162113.0364852755
1.7542102336883545	1125834.835871742
1.7579760551452637	1316823.0551308019
1.7617355585098267	1340877.7259432985
1.7654887437820435	1125341.412544457
1.7692357301712036	829067.3682769375
1.7729763984680176	573156.6678398686
1.776710867881775	401777.77526376856
1.7804391384124756	353437.7717562636
1.7841613292694092	357759.769853073
1.7878772020339966	342836.8309252912
1.7915871143341064	402933.22784546064
1.7952908277511597	441103.85685496096
1.7989884614944458	355433.08947484806
1.8026801347732544	227008.27097736075
1.806365728378296	165274.09471964065
1.8100452423095703	148012.98470902693
1.8137187957763672	106745.0426997782
1.817386507987976	66541.7137536474
1.8210482597351074	92977.27592754002
1.8247040510177612	163996.4940830036
1.828354001045227	170065.7536564421
1.8319982290267944	109510.85758262163
1.8356364965438843	93397.8907351459
1.8392690420150757	177791.67380033407
1.8428958654403687	292490.2006225616
1.8465168476104736	303784.1610743455
1.8501322269439697	211599.2816695968
1.8537418842315674	150863.99028657243
1.8573459386825562	162581.3719871389
1.860944390296936	136764.43619360056
1.864537239074707	63246.855614673026
1.8681244850158691	26568.5892006953
1.871706247329712	39295.84923671714
1.8752825260162354	102708.27940819247
1.8788533210754395	200339.79198976682
1.8824186325073242	283288.6693211155
1.8859784603118896	341334.5937087994
1.8895330429077148	366247.1323574316
1.8930821418762207	296871.12378001347
1.8966259956359863	186103.27974910944
1.9001644849777222	121289.45643625868
1.9036977291107178	98568.17931876137
1.9072256088256836	156383.76758289893
1.9107483625411987	203492.26291118216
1.9142658710479736	131175.46482459817
1.9177782535552979	81401.45549564542
1.9212853908538818	77189.62054303607
1.9247875213623047	43296.59502395944
1.9282845258712769	35944.96505816729
1.9317764043807983	82122.8330360058
1.9352631568908691	149445.1355489865
1.9387450218200684	164754.94894111532
1.942221760749817	128893.1002156849
1.9456936120986938	100237.02700688012
1.9491604566574097	86043.12964672355
1.952622413635254	82605.0461117688
1.956079363822937	108626.47175837206
1.959531545639038	186413.65398502242
1.962978720664978	235182.0708807852
1.966421127319336	234119.42831658517
1.9698586463928223	267946.54241809895
1.9732913970947266	319799.1140362016
1.9767193794250488	361991.97969212855
1.9801424741744995	412423.44287197874
1.9835609197616577	456433.55484475713
1.9869745969772339	507762.7997817864
1.990383505821228	541518.7355494456
1.9937876462936401	503760.98959951196
1.9971871376037598	385718.70899511327
2.000581979751587	321117.671784996
2.003972291946411	443395.0766718204
2.007357597351074	635106.9454957445
2.0107386112213135	743972.4358284891
2.0141148567199707	735386.7796883408
2.017486572265625	656285.6529643931
2.0208535194396973	567069.8011966856
2.0242159366607666	509198.6828257777
2.027573823928833	509824.93903225666
2.0309269428253174	523169.49427303043
2.034275770187378	607379.5320519287
2.0376198291778564	785590.8491352007
2.040959596633911	886103.8655576442
2.044294595718384	903867.3293527951
2.0476250648498535	899035.949767805
2.0509510040283203	859995.7305132694
2.054272413253784	842825.7806846672
2.057589530944824	871925.0325703637
2.0609018802642822	898450.6808540927
2.0642096996307373	904276.2815021388
2.0675129890441895	896449.873672265
2.0708119869232178	879339.9321273713
2.074106216430664	864420.9269887808
2.0773961544036865	860560.5561928729
2.080681324005127	858509.8598563047
2.0839622020721436	849216.4517693409
2.087238311767578	838486.033067383
2.090510129928589	831519.5938734671
2.0937774181365967	824749.9418291132
2.0970399379730225	811834.929096312
2.1002981662750244	791254.7260094353
2.1035518646240234	776628.424064048
2.1068007946014404	773810.778126343
2.1100454330444336	770628.4561437825
2.1132853031158447	757301.1580819812
2.116520881652832	728990.1826862541
2.1197516918182373	695545.0110237576
2.1229779720306396	669828.7213691747
2.12619948387146	650096.4198112978
2.1294167041778564	643464.6030734463
2.132629156112671	649581.9478881648
2.1358368396759033	631164.8528658253
2.139039993286133	596247.9864201534
2.1422386169433594	565530.3462595167
2.145432472229004	534154.8845115385
2.1486217975616455	501809.20936923363
2.151806354522705	454854.21461208555
2.1549863815307617	445478.9389467808
2.1581614017486572	485681.4876686173
2.16133189201355	506715.22808033886
2.1644976139068604	492635.7792885059
2.167658567428589	444165.7329843749
2.1708147525787354	415317.5782562878
2.173966407775879	463178.47194126167
2.1771130561828613	531500.5598067326
2.1802549362182617	541369.7952646707
2.183391809463501	493843.6411694292
2.1865241527557373	442308.1652955395
2.1896514892578125	406602.55775633035
2.1927738189697266	346330.1413124787
2.1958916187286377	233809.89765270293
2.1990041732788086	119677.79101086619
2.2021119594573975	67081.80444639786
2.2052149772644043	81718.09612507092
2.208312749862671	135833.64382046173
2.2114057540893555	196019.72308073385
2.214493751525879	221985.59833485412
2.217576742172241	180265.04256232132
2.2206547260284424	110680.37622069684
2.2237277030944824	73411.64234686008
2.2267956733703613	60507.603951643876
2.2298583984375	53647.33819816989
2.2329163551330566	50701.5138876334
2.235969066619873	54054.19321971563
2.2390167713165283	54915.32195479832
2.2420592308044434	46132.20195671724
2.2450966835021973	36659.6276297415
2.248128890991211	33177.545041443
2.2511560916900635	36232.49975385004
2.254178285598755	51042.092920318406
2.257194995880127	81377.81591976025
2.260206699371338	85148.8854697144
2.2632133960723877	45689.530126593476
2.266214609146118	28052.167519524595
2.2692108154296875	64229.9716825692
2.2722020149230957	104199.99484889118
2.2751877307891846	95646.10205488346
2.278168201446533	65066.60156442664
2.2811436653137207	60546.644981942416
2.284113883972168	65459.34074580502
2.287078857421875	49909.49576702315
2.290038824081421	30621.109624395292
2.2929933071136475	26637.929721501674
2.295942783355713	27246.843358095175
2.298887014389038	26875.589223098617
2.301826238632202	32845.47807739105
2.304760217666626	54051.22260957269
2.3076889514923096	92373.46448743201
2.310612440109253	135660.722505037
2.3135311603546143	170688.39447946034
2.3164443969726562	158905.09586104547
2.319352865219116	87856.32328388201
2.322256088256836	34147.610413082075
2.3251543045043945	26039.04357676579
2.328047275543213	23724.589918979193
2.330935478210449	18641.623025482302
2.3338186740875244	14506.001675160416
2.3366971015930176	10803.782432649134
2.3395702838897705	8263.121131773738
2.3424389362335205	6961.214027164081
2.3453025817871094	5953.550592259417
2.348161458969116	5993.398327753847
2.351015567779541	13847.89648374694
2.353865146636963	38507.40327269262
2.3567099571228027	74230.83059028797
2.3595502376556396	103955.80186382239
2.3623859882354736	106477.89510275246
2.3652172088623047	70456.22539250675
2.368043899536133	27265.20838114165
2.370866537094116	8098.32874471991
2.3736846446990967	5936.661679571599
2.3764986991882324	7196.345647489262
2.3793084621429443	9782.02886766864
2.3821144104003906	18589.06218790995
2.384916305541992	32369.36458128058
2.387714147567749	37415.56685834906
2.3905084133148193	28898.02857529205
2.393299102783203	20759.498071439462
2.3960859775543213	17468.40806635002
2.398869514465332	18722.827199321953
2.4016497135162354	35240.67451854849
2.4044265747070312	73201.8002296146
2.407200336456299	104950.52852507489
2.409970998764038	100902.93780794994
2.4127390384674072	81433.68042093333
2.415503978729248	79480.55839225698
2.418266534805298	98201.0480976909
2.4210267066955566	113734.53916646318
2.4237842559814453	105698.72973301637
2.426539897918701	98087.07129109932
2.429293394088745	123960.32858942743
2.4320452213287354	155796.58851888592
2.4347951412200928	155169.37702541746
2.4375438690185547	151596.1493070043
2.440291166305542	174847.53320845804
2.443037271499634	184385.64371786604
2.445782423019409	161703.1159732747
2.4485268592834473	151608.94774752113
2.451270818710327	187994.53545939605
2.454014539718628	247411.17517005006
2.4567582607269287	281874.42074113846
2.4595019817352295	295924.230403292
2.4622461795806885	323976.0621883366
2.4649908542633057	365480.11131712905
2.4677364826202393	384401.7082649255
2.4704833030700684	345471.2979208481
2.473231554031372	260340.95498620564
2.4759814739227295	178876.2825344882
2.4787333011627197	124576.24720178937
2.481487512588501	85620.43580011242
