#wavelength	surface flux
0.6450077295303345	12474.095213728713
0.6472567915916443	18806.65401494669
0.6494921445846558	22657.251930262322
0.6517150402069092	23692.827337848004
0.6539263725280762	24591.870515478797
0.6561272740364075	25512.128898554936
0.6583186388015747	26456.95164325404
0.6605015397071838	27428.648762196633
0.6626768708229065	28424.41912209482
0.6648455858230591	29441.832535272362
0.6670085787773132	30454.207692988155
0.6691668033599854	31405.210088314347
0.6713210344314575	32434.061893651327
0.6734722256660461	33667.56215109129
0.6756211519241333	34923.679524618434
0.6777685880661011	36122.703292714985
0.6799154281616211	37337.330172938
0.6820623278617859	38584.16713175306
0.6842101216316223	39866.2964478918
0.6863595843315125	41181.93853661418
0.688511312007904	42526.319205095126
0.6906660795211792	43886.65389959443
0.6928245425224304	45284.407683727455
0.6949873566627502	46762.05625643353
0.6971551775932312	48290.30350628888
0.6993286609649658	49833.860287849864
0.7015084028244019	51409.271406980435
0.7036949396133423	53039.384417118774
0.7058889269828796	54721.84649645781
0.7080909013748169	56434.062881811406
0.710301399230957	58186.9092378314
0.712520956993103	60000.291953260145
0.7147500514984131	61852.62984007008
0.7169892191886902	63738.109041367046
0.7192389369010925	65700.59691267544
0.7214996814727783	67721.44148337067
0.723771870136261	69770.52283530473
0.7260559797286987	71876.76582265142
0.7283523678779602	74047.33397402723
0.7306615710258484	76306.77086183928
0.7329838871955872	78678.53403485395
0.7353196740150452	81112.13268189809
0.7376693487167358	83598.42045681951
0.7400332689285278	86151.37548929459
0.7424117922782898	88744.70379868976
0.7448052167892456	91397.73770586784
0.7472138404846191	94111.21658055422
0.7496379613876343	96847.54394848604
0.7520779371261597	99554.70866078559
0.7545340061187744	102123.27149917926
0.7570064663887024	104280.46075093397
0.7594954967498779	104937.06306534115
0.7620013952255249	98292.3587393599
0.7645244002342224	74689.45840684608
0.7670646905899048	45878.09990865258
0.7696225643157959	43587.995612228646
0.7721980810165405	76920.29243198546
0.7747915983200073	113636.17989595215
0.7774031162261963	130060.65937562307
0.7800329327583313	136487.49453359874
0.7826811671257019	141832.8971485828
0.7853479981422424	147003.93899956075
0.7880334854125977	151896.24147403883
0.7907378077507019	155622.17476315142
0.7934610247612	156851.26026845124
0.7962033748626709	160587.10254123225
0.7989648580551147	169203.0556028134
0.801745593547821	176761.57037466916
0.8045456409454346	182270.1225165652
0.8073651194572449	187713.29954297113
0.8102040886878967	193128.00074641104
0.8130625486373901	198742.6799713399
0.8159406185150146	204811.4758027376
0.8188382983207703	211075.08644184264
0.8217556476593018	217321.71920558592
0.8246926665306091	223779.9094583257
0.8276493549346924	230478.6641880671
0.8306257724761963	237289.07457391784
0.8336219191551208	244280.9904524949
0.8366377949714661	251428.75437984263
0.8396733403205872	258886.0552131106
0.8427285552024841	266782.5211829641
0.8458034992218018	274846.19987984095
0.8488980531692505	282989.0535519222
0.8520121574401855	291341.9665003432
0.8551458716392517	299959.2310496244
0.8582990765571594	308745.98596322525
0.8614717125892639	317569.40696804825
0.8646637797355652	326613.4443346968
0.8678751587867737	336070.7238327459
0.8711057901382446	345841.0907013761
0.8743556141853333	355790.45702877577
0.87762451171875	365850.0346271384
0.8809124231338501	376160.18012546265
0.8842192888259888	386817.5693352538
0.8875449895858765	397526.8732783383
0.8908893465995789	407982.45768913924
0.894252359867096	418805.22813435976
0.8976338505744934	430940.1339364756
0.9010337591171265	443895.27671169315
0.9044519662857056	456762.3449711788
0.9078882932662964	469513.5791996179
0.9113426208496094	482320.72814742103
0.914814829826355	495028.657888527
0.9183048605918884	508175.4673856846
0.9218124747276306	521470.9461419771
0.925337553024292	530748.7809807999
0.9288799166679382	536004.6033395563
0.9324395060539246	546311.3634268296
0.9360161423683167	564254.6120873898
0.9396095871925354	583394.2455476263
0.943219780921936	598053.1361847558
0.9468464851379395	610970.5757444014
0.9504896402359009	627730.3358831981
0.9541489481925964	646582.2344644186
0.9578243494033813	662799.2957729276
0.9615156054496765	675731.8309843017
0.9652225375175476	691154.6906342132
0.9689450263977051	712716.9251681943
0.9726828336715698	738395.1423006029
0.9764357805252075	762158.0323411659
0.9802037477493286	783085.8488459015
0.983986496925354	804339.6732193579
0.9877838492393494	826344.4356427972
0.9915955662727356	848967.5726991013
0.9954215884208679	871446.97968428
0.9992615580558777	893599.8872108744
1.0031154155731201	915819.4452985245
1.0069829225540161	938897.0291814903
1.0108637809753418	962947.5789872718
1.0147579908370972	987360.2000532747
1.018665075302124	1011505.2052621759
1.022585153579712	1034853.5461241333
1.0265177488327026	1057769.177925564
1.0304628610610962	1081970.220861402
1.0344202518463135	1108608.9983555193
1.0383895635604858	1135852.0449696786
1.0423706769943237	1162509.7850852471
1.0463634729385376	1189106.2304910708
1.0503677129745483	1215871.6904681877
1.0543830394744873	1243358.3326195944
1.058409333229065	1271266.5720603263
1.0624464750289917	1299120.3146870409
1.0664942264556885	1327144.2728682926
1.0705522298812866	1355678.4376426155
1.0746204853057861	1385202.5066824509
1.0786986351013184	1415528.5901372868
1.0827864408493042	1445918.6512862102
1.086883783340454	1475443.4128157173
1.0909905433654785	1503613.2612461909
1.0951062440872192	1528876.6556748478
1.0992310047149658	1541112.0393395782
1.10336434841156	1542565.817768741
1.1075061559677124	1559462.845987494
1.1116561889648438	1584158.2240889685
1.115814208984375	1599426.2089186988
1.1199802160263062	1621117.274358084
1.124153733253479	1661119.6179557869
1.1283347606658936	1699122.901912286
1.1325229406356812	1710313.029388511
1.1367181539535522	1745744.575304411
1.1409201622009277	1820161.9949209741
1.145128846168518	1875083.108914914
1.1493438482284546	1878901.5518021912
1.1535650491714478	1855970.3904375602
1.1577922105789185	1873259.8367741867
1.1620250940322876	1938660.9480407424
1.1662636995315552	2016005.1511380286
1.170507550239563	2077803.7582800318
1.174756646156311	2135041.6068018037
1.1790107488632202	2200290.548619437
1.1832695007324219	2256693.7438849104
1.1875330209732056	2303267.8975577783
1.191800832748413	2349169.8387739905
1.1960728168487549	2397241.4735735524
1.2003488540649414	2442360.636090094
1.2046287059783936	2484397.68801681
1.2089121341705322	2527189.038552598
1.2131990194320679	2571701.57422375
1.2174891233444214	2617161.461808595
1.2217823266983032	2662182.181174219
1.2260783910751343	2706114.110720934
1.230377197265625	2749117.6671250104
1.2346785068511963	2791830.619649496
1.238982081413269	2835846.043144663
1.2432878017425537	2881028.5595174655
1.2475954294204712	2926418.5295486026
1.2519049644470215	2972049.64293288
1.256216049194336	3017996.12495575
1.2605286836624146	3062729.8542529405
1.2648425102233887	3106148.583855607
1.2691574096679688	3149664.139274797
1.2734732627868652	3193954.9227569923
1.2777899503707886	3238585.6402417277
1.2821072340011597	3282482.488207702
1.2864248752593994	3324539.1433272106
1.2907428741455078	3365057.93293313
1.2950609922409058	3408813.869261557
1.2993791103363037	3453266.8913399857
1.303696870803833	3493996.0003750776
1.3080145120620728	3537376.6702561774
1.3123314380645752	3586876.9697839543
1.3166478872299194	3638185.7128017587
1.3209635019302368	3676204.975014796
1.3252781629562378	3688041.812339424
1.3295916318893433	3634906.7384884446
1.3339040279388428	3415818.807436335
1.3382149934768677	3006007.8244797853
1.3425244092941284	2765152.2112347307
1.3468321561813354	2838929.531488205
1.3511382341384888	2727256.0391707984
1.3554422855377197	2470617.155985805
1.3597444295883179	2414697.8489121096
1.3640443086624146	2537780.2045859178
1.3683418035507202	2811018.148049187
1.3726370334625244	3196793.281177561
1.3769296407699585	3436990.9337823926
1.381219506263733	3116873.8060385184
1.3855066299438477	2628155.946485958
1.3897908926010132	2504256.0991198514
1.3940720558166504	2529839.1481216806
1.3983501195907593	2631264.6761877383
1.4026249647140503	3019358.948714115
1.4068963527679443	3339959.3631382054
1.4111642837524414	3118569.1938490705
1.4154287576675415	2979104.9577072957
1.419689416885376	3123296.5559718297
1.4239463806152344	3133421.061054309
1.4281994104385376	3245592.6996817775
1.4324485063552856	3313043.5029457104
1.436693549156189	3302525.2621682244
1.440934419631958	3549973.448830472
1.4451709985733032	3966888.480487702
1.449403166770935	4346989.217996323
1.453631043434143	4552764.017709364
1.4578542709350586	4652223.281641401
1.4620729684829712	4749008.283488382
1.4662868976593018	4795142.902523458
1.4704961776733398	4790960.865243614
1.4747005701065063	4822819.030823418
1.4788999557495117	4910614.405033295
1.4830944538116455	5056140.82792198
1.4872838258743286	5206977.099649228
1.491468071937561	5281195.098318166
1.4956470727920532	5315111.954076136
1.4998208284378052	5397217.856871086
1.5039892196655273	5502159.066668283
1.5081522464752197	5560913.613232651
1.5123097896575928	5620180.539359294
1.5164618492126465	5714255.247429122
1.5206083059310913	5822401.619720076
1.5247491598129272	5908723.657947981
1.5288842916488647	5958588.176000785
1.5330137014389038	6014052.797376933
1.5371372699737549	6080453.096002143
1.541254997253418	6132436.768613401
1.545366883277893	6186095.96944942
1.5494728088378906	6249823.048339883
1.5535727739334106	6302531.436409344
1.5576666593551636	6334554.5911308285
1.561754584312439	6376523.033434459
1.5658363103866577	6447286.315662787
1.5699119567871094	6511897.897097655
1.5739814043045044	6541317.850036559
1.5780447721481323	6552256.460688614
1.582101821899414	6605975.402918797
1.5861525535583496	6699138.941380192
1.5901970863342285	6765753.944033276
1.5942351818084717	6804946.709723422
1.5982669591903687	6840503.290021231
1.6022924184799194	6886255.590380732
1.606311559677124	6942484.161426395
1.6103241443634033	6989451.828927585
1.6143304109573364	7027617.451406704
1.6183301210403442	7067777.309939296
1.6223233938217163	7112815.2364786
1.6263102293014526	7161090.842381398
1.6302905082702637	7201547.789166673
1.634264349937439	7246657.319606715
1.638231635093689	7306992.4824110465
1.6421923637390137	7360911.326708022
1.646146535873413	7399327.017266696
1.6500942707061768	7434500.340143627
1.6540353298187256	7479566.3583106
1.6579699516296387	7525800.712735429
1.661897897720337	7554228.247155625
1.6658192873001099	7562897.955988928
1.6697341203689575	7593294.107591954
1.6736423969268799	7669615.951573213
1.677544116973877	7739150.401860574
1.6814392805099487	7782810.466833608
1.6853278875350952	7821676.020426104
1.6892099380493164	7847252.905727996
1.6930854320526123	7848940.5473557515
1.696954369544983	7854610.353558953
1.7008168697357178	7897606.530415548
1.7046726942062378	7947917.6227990845
1.708522081375122	7981373.764865396
1.712364912033081	8012895.441231754
1.7162011861801147	8055877.641243886
1.7200311422348022	8106572.667717849
1.723854422569275	8142246.804793578
1.7276713848114014	8157451.79495472
1.731481909751892	8150853.202975561
1.7352858781814575	8131265.71360396
1.7390835285186768	8120090.136258123
1.7428747415542603	8095034.477804811
1.7466596364974976	8038055.980618999
1.7504380941390991	7954554.073937612
1.7542102336883545	7912449.744049609
1.7579760551452637	8065836.992159721
1.7617355585098267	8256889.815006545
1.7654887437820435	8208586.244612603
1.7692357301712036	7953478.830692022
1.7729763984680176	7512721.740452043
1.776710867881775	6942461.001753114
1.7804391384124756	6699064.143213524
1.7841613292694092	6709615.627683004
1.7878772020339966	6570408.286799608
1.7915871143341064	6649618.951062042
1.7952908277511597	6791963.949702595
1.7989884614944458	6381746.767035792
1.8026801347732544	5524150.621325822
1.806365728378296	4698437.699610509
1.8100452423095703	4701961.785423059
1.8137187957763672	5196979.378016171
1.817386507987976	5122803.739737365
1.8210482597351074	5378650.435509944
1.8247040510177612	5595912.293467392
1.828354001045227	4929631.428680042
1.8319982290267944	4973482.872729623
1.8356364965438843	5801958.696495052
1.8392690420150757	6441580.496082377
1.8428958654403687	6723212.522690058
1.8465168476104736	6745381.893235382
1.8501322269439697	6427163.394735421
1.8537418842315674	5541856.21784867
1.8573459386825562	5128126.594112062
1.860944390296936	5162125.920801416
1.864537239074707	4918655.102268268
1.8681244850158691	5317838.671787507
1.871706247329712	6312521.106110838
1.8752825260162354	7033531.0841940055
1.8788533210754395	7527635.955639085
1.8824186325073242	7833486.001388443
1.8859784603118896	7702883.601858465
1.8895330429077148	7526479.346159971
1.8930821418762207	7786053.234301212
1.8966259956359863	7695890.072074911
1.9001644849777222	6558637.286353936
1.9036977291107178	5485536.826496635
1.9072256088256836	5582320.508033481
1.9107483625411987	5612148.638961917
1.9142658710479736	4871076.897002134
1.9177782535552979	4880327.384597003
1.9212853908538818	5554680.621741011
1.9247875213623047	5637728.654899666
1.9282845258712769	5744207.864055052
1.9317764043807983	6363342.386363926
1.9352631568908691	6622160.335409925
1.9387450218200684	6427275.910256439
1.942221760749817	6474845.042095072
1.9456936120986938	6619460.075624834
1.9491604566574097	6594399.774897151
1.952622413635254	6387217.048255051
1.956079363822937	6204652.48567492
1.959531545639038	6471589.790793224
1.962978720664978	6791130.872351774
1.966421127319336	7194567.833320755
1.9698586463928223	7841885.000166863
1.9732913970947266	8166474.419337906
1.9767193794250488	8294558.777387727
1.9801424741744995	8629824.289010532
1.9835609197616577	8937958.600470817
1.9869745969772339	8936458.436285473
1.990383505821228	8678070.463640667
1.9937876462936401	8623404.581381978
1.9971871376037598	8700578.45613642
2.000581979751587	8823838.220000915
2.003972291946411	9218333.986880558
2.007357597351074	9537432.00199732
2.0107386112213135	9735579.127524532
2.0141148567199707	9827275.935364654
2.017486572265625	9720723.608230175
2.0208535194396973	9785330.85629686
2.0242159366607666	10039259.499369394
2.027573823928833	10192195.61356229
2.0309269428253174	10276220.374912445
2.034275770187378	10378330.99991706
2.0376198291778564	10460059.552058589
2.040959596633911	10523668.598367786
2.044294595718384	10603865.705461971
2.0476250648498535	10684655.785065675
2.0509510040283203	10714098.262102094
2.054272413253784	10704852.843739107
2.057589530944824	10736559.179017315
2.0609018802642822	10801374.257003516
2.0642096996307373	10854975.602878893
2.0675129890441895	10896257.784669824
2.0708119869232178	10926584.10568236
2.074106216430664	10941673.96940966
2.0773961544036865	10954721.941546332
2.080681324005127	10982276.289612275
2.0839622020721436	11014174.658399792
2.087238311767578	11041968.81821731
2.090510129928589	11061547.68593842
2.0937774181365967	11075193.409119483
2.0970399379730225	11097597.607903488
2.1002981662750244	11122088.269502787
2.1035518646240234	11134413.93222727
2.1068007946014404	11143203.980564646
2.1100454330444336	11175330.63853362
2.1132853031158447	11218303.227466276
2.116520881652832	11238441.308943814
2.1197516918182373	11254358.495361313
2.1229779720306396	11284200.607766682
2.12619948387146	11313715.486199439
2.1294167041778564	11335361.018129585
2.132629156112671	11355354.952146469
2.1358368396759033	11369062.941157106
2.139039993286133	11373851.264348537
2.1422386169433594	11380634.669327483
2.145432472229004	11393532.27114413
2.1486217975616455	11407322.637814043
2.151806354522705	11415637.11702726
2.1549863815307617	11427835.639587313
2.1581614017486572	11446995.451903632
2.16133189201355	11462216.178523704
2.1644976139068604	11476652.5220524
2.167658567428589	11490673.307551213
2.1708147525787354	11498914.857831832
2.173966407775879	11500543.84217697
2.1771130561828613	11508136.42649601
2.1802549362182617	11530612.490609808
2.183391809463501	11550932.178256448
2.1865241527557373	11560043.69052187
2.1896514892578125	11561083.819594398
2.1927738189697266	11531079.989611324
2.1958916187286377	11452940.075785432
2.1990041732788086	11377766.89596012
2.2021119594573975	11359836.81597504
2.2052149772644043	11381238.8411343
2.208312749862671	11422264.979419027
2.2114057540893555	11472530.422603097
2.214493751525879	11497857.198193144
2.217576742172241	11489765.922446618
2.2206547260284424	11484445.466312269
2.2237277030944824	11487527.501630997
2.2267956733703613	11459975.248830259
2.2298583984375	11409930.578071078
2.2329163551330566	11381067.27781728
2.235969066619873	11383002.301976243
2.2390167713165283	11372677.438776398
2.2420592308044434	11297347.595277524
2.2450966835021973	11201561.922573641
2.248128890991211	11203268.602240376
2.2511560916900635	11292538.563368736
2.254178285598755	11360552.335561467
2.257194995880127	11394852.270463256
2.260206699371338	11390986.375947459
2.2632133960723877	11301645.352327578
2.266214609146118	11177301.719197921
2.2692108154296875	11136423.832251227
2.2722020149230957	11218015.343143914
2.2751877307891846	11323100.035441756
2.278168201446533	11334591.054076891
2.2811436653137207	11276832.521157583
2.284113883972168	11250923.851677556
2.287078857421875	11254290.971132861
2.290038824081421	11192401.555814318
2.2929933071136475	10971393.349671846
2.295942783355713	10547392.99884466
2.298887014389038	9992974.572030265
2.301826238632202	9459532.961354768
2.304760217666626	9017386.3085794
2.3076889514923096	8709860.128653882
2.310612440109253	8687684.026478149
2.3135311603546143	8806702.201679142
2.3164443969726562	8675838.897423698
2.319352865219116	8390581.118322613
2.322256088256836	8255669.683929488
2.3251543045043945	8260306.935338195
2.328047275543213	8321405.32185527
2.330935478210449	8468686.070630653
2.3338186740875244	8700803.14268377
2.3366971015930176	8959385.725901207
2.3395702838897705	9229815.01376251
2.3424389362335205	9537006.661674852
2.3453025817871094	9883274.245410003
2.348161458969116	10079205.743858999
2.351015567779541	9984795.289602032
2.353865146636963	9771055.976698691
2.3567099571228027	9597074.72748675
2.3595502376556396	9617899.25951706
2.3623859882354736	9914948.407530207
2.3652172088623047	9968843.231408225
2.368043899536133	9433184.969872551
2.370866537094116	9130939.820349362
2.3736846446990967	9477936.754749196
2.3764986991882324	9448513.664943295
2.3793084621429443	8861812.131292008
2.3821144104003906	8669360.71762526
2.384916305541992	9207094.67821377
2.387714147567749	10044733.037673654
2.3905084133148193	10571373.030520445
2.393299102783203	10574089.432258738
2.3960859775543213	10126952.065161537
2.398869514465332	9581780.791412067
2.4016497135162354	9270444.033395642
2.4044265747070312	9215235.78116498
2.407200336456299	9396090.281752078
2.409970998764038	9659178.149908464
2.4127390384674072	9819651.21707887
2.415503978729248	9941353.10908219
2.418266534805298	10147678.653899701
2.4210267066955566	10333531.460683966
2.4237842559814453	10361084.008374685
2.426539897918701	10289445.722902237
2.429293394088745	10211507.999866413
2.4320452213287354	10191487.673482675
2.4347951412200928	10276302.05859147
2.4375438690185547	10351713.653991634
2.440291166305542	10249004.205111643
2.443037271499634	9972404.641089715
2.445782423019409	9654673.001834909
2.4485268592834473	9330061.900347715
2.451270818710327	9155928.725827646
2.454014539718628	9490897.03204974
2.4567582607269287	9936136.328296388
2.4595019817352295	9855224.532591382
2.4622461795806885	9856117.138921503
2.4649908542633057	9935536.874507518
2.4677364826202393	9296320.082615761
2.4704833030700684	8204952.392542271
2.473231554031372	7111575.380057331
2.4759814739227295	6201170.613059584
2.4787333011627197	5870447.548358483
2.481487512588501	6399139.833622935
2.4842441082000732	7138819.859552472
