#wavelength	surface flux
0.6450077295303345	237034.03791127025
0.6472567915916443	356765.7112636462
0.6494921445846558	428663.81273449096
0.6517150402069092	446782.5512501194
0.6539263725280762	461838.02161817544
0.6561272740364075	476884.1518098715
0.6583186388015747	492290.7812587696
0.6605015397071838	508073.2837796629
0.6626768708229065	523782.556875272
0.6648455858230591	539539.2817372645
0.6670085787773132	549321.1813625033
0.6691668033599854	540128.3842178199
0.6713210344314575	541076.351428859
0.6734722256660461	581005.9529950955
0.6756211519241333	621796.9745879804
0.6777685880661011	644040.4880467997
0.6799154281616211	662333.2486728516
0.6820623278617859	681060.1753405575
0.6842101216316223	701065.1201485335
0.6863595843315125	721041.5630222444
0.688511312007904	740260.7884614655
0.6906660795211792	758413.6095103872
0.6928245425224304	777669.9439504065
0.6949873566627502	800297.2374231301
0.6971551775932312	823604.9171332815
0.6993286609649658	845647.8322729338
0.7015084028244019	867488.6253518926
0.7036949396133423	890092.330688955
0.7058889269828796	913465.409699486
0.7080909013748169	936816.2718421961
0.710301399230957	960419.0519095028
0.712520956993103	984568.3352765853
0.7147500514984131	1008023.3357244959
0.7169892191886902	1030888.3281634903
0.7192389369010925	1055566.8441393569
0.7214996814727783	1081338.7718323441
0.723771870136261	1106339.7928271915
0.7260559797286987	1131357.852987375
0.7283523678779602	1156670.576061036
0.7306615710258484	1182707.0384868511
0.7329838871955872	1210033.574882907
0.7353196740150452	1237073.0749940698
0.7376693487167358	1263244.428833309
0.7400332689285278	1288284.6312548814
0.7424117922782898	1310479.7214153078
0.7448052167892456	1329463.9266295754
0.7472138404846191	1343481.9656942876
0.7496379613876343	1348260.775584665
0.7520779371261597	1337260.509910692
0.7545340061187744	1298326.5496052022
0.7570064663887024	1208111.44001769
0.7594954967498779	1023946.4247444554
0.7620013952255249	706802.8833607731
0.7645244002342224	334208.8366736675
0.7670646905899048	99560.0036896657
0.7696225643157959	108484.10231936084
0.7721980810165405	390016.7336995326
0.7747915983200073	852436.923622203
0.7774031162261963	1245341.2281544874
0.7800329327583313	1487184.242040168
0.7826811671257019	1682827.0976926608
0.7853479981422424	1850186.2528273216
0.7880334854125977	1962214.1336092928
0.7907378077507019	1973553.3756077387
0.7934610247612	1825518.1904987996
0.7962033748626709	1839577.5016848438
0.7989648580551147	2132117.756085542
0.801745593547821	2337209.7768389275
0.8045456409454346	2411687.7542374595
0.8073651194572449	2474636.3387568733
0.8102040886878967	2532150.389370249
0.8130625486373901	2592991.1815344947
0.8159406185150146	2664280.662385992
0.8188382983207703	2736961.3847975465
0.8217556476593018	2805685.412138258
0.8246926665306091	2876417.457451795
0.8276493549346924	2948424.114333882
0.8306257724761963	3018981.5858446807
0.8336219191551208	3090822.083326395
0.8366377949714661	3162868.002200841
0.8396733403205872	3239858.992326392
0.8427285552024841	3325930.579920921
0.8458034992218018	3412106.0799418725
0.8488980531692505	3493013.767517078
0.8520121574401855	3573901.4671264063
0.8551458716392517	3662531.893809192
0.8582990765571594	3747908.3277278575
0.8614717125892639	3812910.1247916785
0.8646637797355652	3883702.3470730423
0.8678751587867737	3981196.1213897727
0.8711057901382446	4082364.0375457928
0.8743556141853333	4177803.4489769703
0.87762451171875	4270085.371362098
0.8809124231338501	4361954.703579857
0.8842192888259888	4460720.313270725
0.8875449895858765	4554511.478696225
0.8908893465995789	4629175.582666659
0.894252359867096	4711347.246251605
0.8976338505744934	4831997.712818307
0.9010337591171265	4970306.57264667
0.9044519662857056	5098790.810632336
0.9078882932662964	5217100.154287032
0.9113426208496094	5327131.432759466
0.914814829826355	5423227.539117512
0.9183048605918884	5523312.660396451
0.9218124747276306	5619677.861630094
0.925337553024292	5596889.8086746605
0.9288799166679382	5465488.535236034
0.9324395060539246	5472602.151516228
0.9360161423683167	5673477.871787781
0.9396095871925354	5896472.7331117205
0.943219780921936	5999592.250405587
0.9468464851379395	6049337.323011598
0.9504896402359009	6187074.668861329
0.9541489481925964	6370079.183674944
0.9578243494033813	6473733.087282446
0.9615156054496765	6480147.920632346
0.9652225375175476	6542739.06203754
0.9689450263977051	6760509.322668615
0.9726828336715698	7086302.540679253
0.9764357805252075	7359098.354462161
0.9802037477493286	7546243.783895186
0.983986496925354	7728640.390761505
0.9877838492393494	7918987.44739394
0.9915955662727356	8117015.072352989
0.9954215884208679	8305082.92552465
0.9992615580558777	8473827.205184588
1.0031154155731201	8635931.50226602
1.0069829225540161	8817984.45487665
1.0108637809753418	9019104.419712873
1.0147579908370972	9221684.865874587
1.018665075302124	9408521.569118042
1.022585153579712	9563424.843983466
1.0265177488327026	9702574.157500083
1.0304628610610962	9871360.279595125
1.0344202518463135	10085785.791818129
1.0383895635604858	10297885.186492223
1.0423706769943237	10484029.667825628
1.0463634729385376	10660356.634925101
1.0503677129745483	10834431.345416559
1.0543830394744873	11020673.6561752
1.058409333229065	11212321.277424144
1.0624464750289917	11395238.66485582
1.0664942264556885	11572828.704256928
1.0705522298812866	11751151.430555876
1.0746204853057861	11938798.537921729
1.0786986351013184	12132665.196231885
1.0827864408493042	12319938.53533353
1.086883783340454	12476024.639719874
1.0909905433654785	12583920.089396523
1.0951062440872192	12615190.283429215
1.0992310047149658	12343098.297552373
1.10336434841156	11830176.89653018
1.1075061559677124	11681728.09910386
1.1116561889648438	11747548.964219663
1.115814208984375	11638008.392034585
1.1199802160263062	11631116.078593789
1.124153733253479	11937486.805568572
1.1283347606658936	12183299.864324143
1.1325229406356812	11932615.460397616
1.1367181539535522	12134744.263366904
1.1409201622009277	13044810.50288754
1.145128846168518	13607959.488445537
1.1493438482284546	13247698.51674079
1.1535650491714478	12362301.368673384
1.1577922105789185	12148375.654255968
1.1620250940322876	12784331.303084916
1.1662636995315552	13662691.528208693
1.170507550239563	14277743.739661649
1.174756646156311	14852048.848978627
1.1790107488632202	15633422.631970847
1.1832695007324219	16247444.71481948
1.1875330209732056	16628444.388381435
1.191800832748413	16980647.060198676
1.1960728168487549	17377464.178114735
1.2003488540649414	17689859.570161026
1.2046287059783936	17915385.077534463
1.2089121341705322	18143169.05840798
1.2131990194320679	18406493.425504874
1.2174891233444214	18697212.795821898
1.2217823266983032	18978792.988296304
1.2260783910751343	19233996.14726685
1.230377197265625	19467212.632919867
1.2346785068511963	19688672.483573876
1.238982081413269	19920332.43046024
1.2432878017425537	20150037.259567186
1.2475954294204712	20346053.589089464
1.2519049644470215	20523372.346944377
1.256216049194336	20758022.948495716
1.2605286836624146	21000899.201279383
1.2648425102233887	21188115.535758696
1.2691574096679688	21365004.50854099
1.2734732627868652	21553712.79344041
1.2777899503707886	21742575.5093251
1.2821072340011597	21910172.63683763
1.2864248752593994	22034620.61920737
1.2907428741455078	22117372.209540974
1.2950609922409058	22258975.477890436
1.2993791103363037	22414021.252481252
1.303696870803833	22490083.736706194
1.3080145120620728	22616537.030221093
1.3123314380645752	22851500.15472031
1.3166478872299194	23105488.34926669
1.3209635019302368	23082886.759384368
1.3252781629562378	22533504.933403973
1.3295916318893433	20873791.31204812
1.3339040279388428	17093757.947793867
1.3382149934768677	11898581.243772397
1.3425244092941284	9093097.82274996
1.3468321561813354	9531663.967633007
1.3511382341384888	8895683.17603325
1.3554422855377197	7224744.404186122
1.3597444295883179	6891302.462189095
1.3640443086624146	7566411.88652116
1.3683418035507202	9006932.525487354
1.3726370334625244	11683374.064155236
1.3769296407699585	13808251.70929751
1.381219506263733	11474877.52662839
1.3855066299438477	7444689.647085905
1.3897908926010132	6146698.206757072
1.3940720558166504	6349881.792876101
1.3983501195907593	7036146.855360427
1.4026249647140503	9367954.349094348
1.4068963527679443	11290592.30729879
1.4111642837524414	9671745.467540769
1.4154287576675415	8368753.34509578
1.419689416885376	8787083.287644615
1.4239463806152344	8687149.769796927
1.4281994104385376	9497751.245273605
1.4324485063552856	9997003.018626597
1.436693549156189	9798002.14479867
1.440934419631958	11091090.990626408
1.4451709985733032	13803630.042072337
1.449403166770935	16817065.23334009
1.453631043434143	18586607.803720456
1.4578542709350586	19377144.768164687
1.4620729684829712	20217086.44760309
1.4662868976593018	20412074.198484786
1.4704961776733398	19976749.076534864
1.4747005701065063	20000322.843345575
1.4788999557495117	20681044.123587597
1.4830944538116455	22030723.33124702
1.4872838258743286	23408874.123953022
1.491468071937561	23842638.34655699
1.4956470727920532	23907225.24795971
1.4998208284378052	24693451.957084306
1.5039892196655273	25715892.79296616
1.5081522464752197	25995158.402362794
1.5123097896575928	26270935.583210804
1.5164618492126465	27156856.39383907
1.5206083059310913	28372851.9090144
1.5247491598129272	29227882.0639176
1.5288842916488647	29414369.992021926
1.5330137014389038	29714563.560079
1.5371372699737549	30227299.39942865
1.541254997253418	30494005.934667975
1.545366883277893	30797384.391665183
1.5494728088378906	31250876.723551076
1.5535727739334106	31519557.347143583
1.5576666593551636	31520826.24749386
1.561754584312439	31704434.362986308
1.5658363103866577	32254947.579393342
1.5699119567871094	32652199.524898592
1.5739814043045044	32593938.371854432
1.5780447721481323	32385045.559459444
1.582101821899414	32680946.6637024
1.5861525535583496	33366567.30736657
1.5901970863342285	33720457.96259626
1.5942351818084717	33737578.755054794
1.5982669591903687	33711143.97783536
1.6022924184799194	33817135.29102302
1.606311559677124	34028764.11304917
1.6103241443634033	34144430.15852975
1.6143304109573364	34161536.4434294
1.6183301210403442	34166830.870572075
1.6223233938217163	34201282.99205349
1.6263102293014526	34240361.60924412
1.6302905082702637	34203221.97443763
1.634264349937439	34442082.67635119
1.638231635093689	35069954.54706779
1.6421923637390137	35464126.93085669
1.646146535873413	35368678.886854224
1.6500942707061768	35198925.716116965
1.6540353298187256	35370185.64127361
1.6579699516296387	35599092.20050668
1.661897897720337	35287291.738912836
1.6658192873001099	34337731.31391403
1.6697341203689575	34051076.560438335
1.6736423969268799	35058980.459859155
1.677544116973877	35829018.85031552
1.6814392805099487	35913855.19830716
1.6853278875350952	35905515.47649182
1.6892099380493164	35675477.08763022
1.6930854320526123	34993418.54575909
1.696954369544983	34334068.336364634
1.7008168697357178	34368593.22073396
1.7046726942062378	34694218.83589794
1.708522081375122	34874639.119384654
1.712364912033081	34996282.74589796
1.7162011861801147	35244287.69357341
1.7200311422348022	35591828.76765288
1.723854422569275	35642469.3776114
1.7276713848114014	35311584.43810351
1.731481909751892	34615417.37912725
1.7352858781814575	33773756.224661574
1.7390835285186768	33149989.165239297
1.7428747415542603	32396143.000299316
1.7466596364974976	31221492.424528927
1.7504380941390991	29701521.769716818
1.7542102336883545	28699953.545433246
1.7579760551452637	30257636.20694116
1.7617355585098267	32385055.538026523
1.7654887437820435	31350241.563563626
1.7692357301712036	27868589.332597177
1.7729763984680176	23327571.29560799
1.776710867881775	18466172.929651998
1.7804391384124756	16469348.047200048
1.7841613292694092	16673404.970044967
1.7878772020339966	15647094.64777744
1.7915871143341064	15902747.55653475
1.7952908277511597	17652029.570096746
1.7989884614944458	16946564.435606565
1.8026801347732544	12959068.615940044
1.806365728378296	8708587.705886386
1.8100452423095703	8780001.136425035
1.8137187957763672	10716106.944411803
1.817386507987976	9898866.171466202
1.8210482597351074	11055791.10813657
1.8247040510177612	12130017.857892774
1.828354001045227	8920553.72465564
1.8319982290267944	8358624.712481804
1.8356364965438843	11707762.654903993
1.8392690420150757	14688302.20214117
1.8428958654403687	15303759.205795601
1.8465168476104736	14948540.778295044
1.8501322269439697	14298269.554297876
1.8537418842315674	11146713.592121221
1.8573459386825562	8763439.555220742
1.860944390296936	8277164.754462744
1.864537239074707	7363361.771808568
1.8681244850158691	8683024.558183523
1.871706247329712	12401233.939741958
1.8752825260162354	15615329.915800977
1.8788533210754395	18492139.820671495
1.8824186325073242	20343421.107495822
1.8859784603118896	19462906.24995431
1.8895330429077148	18765624.295428865
1.8930821418762207	20823939.503060214
1.8966259956359863	20439933.87416877
1.9001644849777222	14347070.039495965
1.9036977291107178	9559641.142838849
1.9072256088256836	10268511.984213108
1.9107483625411987	10240095.606869802
1.9142658710479736	7216422.158295955
1.9177782535552979	6860053.121129987
1.9212853908538818	8821467.950240495
1.9247875213623047	8927735.905687723
1.9282845258712769	9112922.15941477
1.9317764043807983	11104208.292103887
1.9352631568908691	11909909.532914873
1.9387450218200684	11038670.064693736
1.942221760749817	11121534.118983638
1.9456936120986938	11881578.599187657
1.9491604566574097	12476919.914806165
1.952622413635254	11882711.388795462
1.956079363822937	10399337.94367322
1.959531545639038	10657579.97072878
1.962978720664978	11601119.908294609
1.966421127319336	13428384.494277613
1.9698586463928223	16624722.472806504
1.9732913970947266	18102075.406794477
1.9767193794250488	18761550.223865468
1.9801424741744995	20923389.226842977
1.9835609197616577	23057162.750866923
1.9869745969772339	23125247.519343678
1.990383505821228	21077267.441430442
1.9937876462936401	20283339.13604562
1.9971871376037598	20598722.032677576
2.000581979751587	21606326.517514504
2.003972291946411	24626992.189851582
2.007357597351074	26919342.00892919
2.0107386112213135	28642850.095058896
2.0141148567199707	29458853.436078608
2.017486572265625	28146586.300796904
2.0208535194396973	28474603.07073387
2.0242159366607666	30875072.437655482
2.027573823928833	32415058.94090483
2.0309269428253174	33283694.052768778
2.034275770187378	34321632.13439761
2.0376198291778564	35111119.1850123
2.040959596633911	35773046.093192644
2.044294595718384	36677611.676588535
2.0476250648498535	37620663.19529095
2.0509510040283203	37866774.62390839
2.054272413253784	37421166.84159084
2.057589530944824	37553169.4232035
2.0609018802642822	38288853.91874014
2.0642096996307373	38901052.39252193
2.0675129890441895	39309243.20474894
2.0708119869232178	39478209.85464689
2.074106216430664	39373780.36018256
2.0773961544036865	39294553.330935806
2.080681324005127	39475263.66733709
2.0839622020721436	39730296.17109736
2.087238311767578	39917947.66252798
2.090510129928589	39922514.91890687
2.0937774181365967	39787487.814014606
2.0970399379730225	39796644.1301765
2.1002981662750244	39858687.690312326
2.1035518646240234	39740557.52483229
2.1068007946014404	39562606.16331694
2.1100454330444336	39756117.08034708
2.1132853031158447	40131972.759510435
2.116520881652832	40132479.52845495
2.1197516918182373	40045198.142179534
2.1229779720306396	40176028.99492591
2.12619948387146	40325034.05404834
2.1294167041778564	40371558.51805269
2.132629156112671	40403009.59017985
2.1358368396759033	40321019.34338324
2.139039993286133	40085224.56476186
2.1422386169433594	39886675.49212373
2.145432472229004	39759883.069216326
2.1486217975616455	39638350.717182495
2.151806354522705	39458876.703261875
2.1549863815307617	39416744.04202581
2.1581614017486572	39482608.63476306
2.16133189201355	39378279.13056339
2.1644976139068604	39255540.5748613
2.167658567428589	39201902.439554155
2.1708147525787354	39133121.483354025
2.173966407775879	38984653.91408948
2.1771130561828613	38829792.16434547
2.1802549362182617	38763518.028832205
2.183391809463501	38634670.69749143
2.1865241527557373	38364552.072757654
2.1896514892578125	37926477.64460613
2.1927738189697266	36901273.492747135
2.1958916187286377	35076029.49654806
2.1990041732788086	33261511.828910183
2.2021119594573975	32259930.07995189
2.2052149772644043	31898995.141819775
2.208312749862671	32082166.181907363
2.2114057540893555	32832829.279887833
2.214493751525879	33476447.83554585
2.217576742172241	33434102.99120066
2.2206547260284424	33186862.427717116
2.2237277030944824	32967908.704833128
2.2267956733703613	32111607.151273392
2.2298583984375	30844169.02376205
2.2329163551330566	30046647.97747836
2.235969066619873	29860204.554615833
2.2390167713165283	29568339.206919745
2.2420592308044434	28418002.86161192
2.2450966835021973	27048790.350431956
2.248128890991211	27063552.64433512
2.2511560916900635	28214888.874864753
2.254178285598755	28996959.903196074
2.257194995880127	29421422.237054277
2.260206699371338	29400651.562263936
2.2632133960723877	28174578.74974409
2.266214609146118	26502942.87083582
2.2692108154296875	25859683.04991572
2.2722020149230957	26602909.541964002
2.2751877307891846	27592521.211961146
2.278168201446533	27503876.410946686
2.2811436653137207	26609468.903303158
2.284113883972168	25949465.135790143
2.287078857421875	25488775.048315946
2.290038824081421	24598792.50503679
2.2929933071136475	23049914.214064036
2.295942783355713	20984439.9259856
2.298887014389038	18878573.909672882
2.301826238632202	17299801.76878965
2.304760217666626	16423701.696934767
2.3076889514923096	16214822.69680854
2.310612440109253	16810118.153706424
2.3135311603546143	17172098.125094946
2.3164443969726562	15759820.415087545
2.319352865219116	13753654.503959466
2.322256088256836	12930284.575675288
2.3251543045043945	12801987.904239748
2.328047275543213	12775838.58112817
2.330935478210449	13117049.926833596
2.3338186740875244	13719268.877023103
2.3366971015930176	14328432.871532183
2.3395702838897705	14953374.796672683
2.3424389362335205	15512186.09398389
2.3453025817871094	16056160.688313028
2.348161458969116	16455829.360716064
2.351015567779541	16688501.86044488
2.353865146636963	17073467.256250728
2.3567099571228027	17379476.88754328
2.3595502376556396	17904033.36591754
2.3623859882354736	19156762.69117366
2.3652172088623047	19206510.90965278
2.368043899536133	16375276.667750292
2.370866537094116	13751972.12117882
2.3736846446990967	14210659.959716462
2.3764986991882324	14635019.711184394
2.3793084621429443	13280222.698005293
2.3821144104003906	12900190.52737367
2.384916305541992	14873216.996877667
2.387714147567749	17796277.487946134
2.3905084133148193	19575658.599157177
2.393299102783203	19549706.622617133
2.3960859775543213	17993853.95379467
2.398869514465332	16255434.64758471
2.4016497135162354	15292396.159081826
2.4044265747070312	15013395.044527035
2.407200336456299	15744724.333462942
2.409970998764038	16995225.063745808
2.4127390384674072	17692936.5615814
2.415503978729248	18125645.149554905
2.418266534805298	19133842.375914477
2.4210267066955566	19984993.240951296
2.4237842559814453	19490150.782554038
2.426539897918701	18341426.130092505
2.429293394088745	17928214.809735835
2.4320452213287354	18337679.04278242
2.4347951412200928	18869982.361284003
2.4375438690185547	18973010.53392832
2.440291166305542	18381353.51170875
2.443037271499634	17121225.04041692
2.445782423019409	15596593.358722148
2.4485268592834473	14221318.06918621
2.451270818710327	13708470.445388256
2.454014539718628	15342080.51704005
2.4567582607269287	17399651.55942111
2.4595019817352295	16973122.79451139
2.4622461795806885	16739189.9950793
2.4649908542633057	16893448.84292804
2.4677364826202393	14399198.132966604
2.4704833030700684	10933098.810373997
2.473231554031372	8272819.507866744
2.4759814739227295	6475163.452790428
2.4787333011627197	5894127.715975914
