#wavelength	surface flux
0.6450077295303345	5410.431699498299
0.6472567915916443	8237.240878107996
0.6494921445846558	10119.605988850673
0.6517150402069092	10832.220198850244
0.6539263725280762	11464.819362777147
0.6561272740364075	12081.954549243957
0.6583186388015747	12710.287618400434
0.6605015397071838	13368.843009001308
0.6626768708229065	14048.449224076923
0.6648455858230591	14723.704069314195
0.6670085787773132	15219.587199712176
0.6691668033599854	15207.358535739184
0.6713210344314575	15480.6817049383
0.6734722256660461	16842.72029654779
0.6756211519241333	18263.688882833365
0.6777685880661011	19181.518835529852
0.6799154281616211	20000.40708517714
0.6820623278617859	20823.813598192166
0.6842101216316223	21658.354903724514
0.6863595843315125	22502.461927392047
0.688511312007904	23315.78684302244
0.6906660795211792	23966.600677296676
0.6928245425224304	24606.621852665998
0.6949873566627502	25624.95605337615
0.6971551775932312	26793.836617199417
0.6993286609649658	27756.251673017425
0.7015084028244019	28618.681617677154
0.7036949396133423	29598.456124750057
0.7058889269828796	30691.953540964212
0.7080909013748169	31703.5768007028
0.710301399230957	32690.620783111008
0.712520956993103	33683.44508838266
0.7147500514984131	34362.4122821073
0.7169892191886902	34776.94653513317
0.7192389369010925	35546.86695696465
0.7214996814727783	36478.4210306711
0.723771870136261	37080.02883212983
0.7260559797286987	37581.32883335837
0.7283523678779602	38113.27398717853
0.7306615710258484	38822.72593531268
0.7329838871955872	39807.962855498474
0.7353196740150452	40632.94315803025
0.7376693487167358	41200.01610278941
0.7400332689285278	41555.22973531831
0.7424117922782898	41435.714447336475
0.7448052167892456	40924.40828637103
0.7472138404846191	39952.460130809835
0.7496379613876343	38220.27445502554
0.7520779371261597	35534.019271182566
0.7545340061187744	31698.33124632988
0.7570064663887024	26579.55396309308
0.7594954967498779	20174.960451626008
0.7620013952255249	12893.14655589942
0.7645244002342224	6224.656509787268
0.7670646905899048	2381.7744813055115
0.7696225643157959	2551.3338144782565
0.7721980810165405	7598.63656840619
0.7747915983200073	16892.920703695876
0.7774031162261963	26789.5649071662
0.7800329327583313	35929.110065896835
0.7826811671257019	46404.253954474
0.7853479981422424	57116.87226448916
0.7880334854125977	65662.66563497808
0.7907378077507019	68633.5424166017
0.7934610247612	63694.23229187434
0.7962033748626709	67988.05444037575
0.7989648580551147	85970.53700153927
0.801745593547821	98809.79244296333
0.8045456409454346	104882.84425536367
0.8073651194572449	109470.73794524973
0.8102040886878967	112347.39915487084
0.8130625486373901	115885.68003895608
0.8159406185150146	122638.15448358799
0.8188382983207703	129885.45395729826
0.8217556476593018	135105.9703823527
0.8246926665306091	140297.2975440548
0.8276493549346924	145738.4507748796
0.8306257724761963	150371.24099713893
0.8336219191551208	155258.72899709843
0.8366377949714661	160162.08018478297
0.8396733403205872	166578.5465417539
0.8427285552024841	175847.1382176086
0.8458034992218018	184808.73889341528
0.8488980531692505	191703.01206565223
0.8520121574401855	198131.9834401989
0.8551458716392517	206297.84645220474
0.8582990765571594	214903.7849921312
0.8614717125892639	221886.3757450314
0.8646637797355652	228556.44034464413
0.8678751587867737	236198.9730482263
0.8711057901382446	244388.094800286
0.8743556141853333	251347.35535582274
0.87762451171875	256236.34686183045
0.8809124231338501	260677.937276402
0.8842192888259888	265670.13785214734
0.8875449895858765	269407.32790658437
0.8908893465995789	268260.1002812868
0.894252359867096	266731.9370004257
0.8976338505744934	278212.9183311271
0.9010337591171265	299952.20322922233
0.9044519662857056	318011.8272187845
0.9078882932662964	330323.4661826806
0.9113426208496094	339670.4345389895
0.914814829826355	343129.4475071246
0.9183048605918884	347325.90354585205
0.9218124747276306	351880.96814196813
0.925337553024292	321009.31354239886
0.9288799166679382	259081.31120110958
0.9324395060539246	228968.3517966539
0.9360161423683167	248227.879419979
0.9396095871925354	282071.79317837436
0.943219780921936	283281.4494794049
0.9468464851379395	267388.33763762837
0.9504896402359009	281482.67884421174
0.9541489481925964	312158.42519007856
0.9578243494033813	320330.2022578447
0.9615156054496765	298164.8906518459
0.9652225375175476	291295.00364811346
0.9689450263977051	331171.5052443819
0.9726828336715698	398863.91248645773
0.9764357805252075	447273.4390119767
0.9802037477493286	474622.0529010869
0.983986496925354	504493.15457448724
0.9877838492393494	538810.6047338719
0.9915955662727356	577234.506485588
0.9954215884208679	611779.1951253465
0.9992615580558777	639513.1177324664
1.0031154155731201	662969.8329259482
1.0069829225540161	688844.5664119932
1.0108637809753418	719041.4733687593
1.0147579908370972	749623.7496715343
1.018665075302124	774517.8324406486
1.022585153579712	786853.0622913219
1.0265177488327026	790524.8867917875
1.0304628610610962	805580.0575787309
1.0344202518463135	844906.7370422464
1.0383895635604858	885165.8572349875
1.0423706769943237	911555.0266460542
1.0463634729385376	931092.9556973504
1.0503677129745483	948089.9460628309
1.0543830394744873	972211.9719320125
1.058409333229065	1001022.2244274215
1.0624464750289917	1026023.9397156639
1.0664942264556885	1046716.7912750612
1.0705522298812866	1065849.9462127357
1.0746204853057861	1088750.7236642153
1.0786986351013184	1114341.801940816
1.0827864408493042	1137091.8409128424
1.086883783340454	1146940.6981002
1.0909905433654785	1137491.4429035853
1.0951062440872192	1099633.4591434235
1.0992310047149658	961646.4428199987
1.10336434841156	758181.3347063102
1.1075061559677124	679523.9140584819
1.1116561889648438	659565.4424042573
1.115814208984375	572531.991290149
1.1199802160263062	496921.49846709875
1.124153733253479	496983.5512485869
1.1283347606658936	533535.4288796209
1.1325229406356812	526246.2053748729
1.1367181539535522	586507.1153114194
1.1409201622009277	730340.9656704024
1.145128846168518	813088.7921633045
1.1493438482284546	702105.8154093929
1.1535650491714478	454768.10487076885
1.1577922105789185	364439.8364964422
1.1620250940322876	485348.11428043054
1.1662636995315552	676976.2386750925
1.170507550239563	825923.2316804372
1.174756646156311	998712.01325305
1.1790107488632202	1232595.3851076993
1.1832695007324219	1413646.6241265298
1.1875330209732056	1523275.1533968104
1.191800832748413	1629495.2073249994
1.1960728168487549	1753127.4536078225
1.2003488540649414	1836277.9338203182
1.2046287059783936	1880253.9134920237
1.2089121341705322	1928703.271175103
1.2131990194320679	1988122.905406111
1.2174891233444214	2054244.9051375317
1.2217823266983032	2121883.483191589
1.2260783910751343	2183286.4777894695
1.230377197265625	2232867.7900408925
1.2346785068511963	2275647.5926535847
1.238982081413269	2325894.4306707373
1.2432878017425537	2373452.7704215124
1.2475954294204712	2408876.8107245653
1.2519049644470215	2443277.317967313
1.256216049194336	2487184.0777698033
1.2605286836624146	2521782.228223676
1.2648425102233887	2541158.6452961885
1.2691574096679688	2560087.8894947045
1.2734732627868652	2586456.6345739723
1.2777899503707886	2613588.2778039128
1.2821072340011597	2624781.059613037
1.2864248752593994	2604141.581776549
1.2907428741455078	2555197.6611994677
1.2950609922409058	2543355.9961481877
1.2993791103363037	2542095.5683910786
1.303696870803833	2495858.5765701346
1.3080145120620728	2465905.324055419
1.3123314380645752	2493936.022964206
1.3166478872299194	2577614.8797502755
1.3209635019302368	2529282.9610131606
1.3252781629562378	2235983.8470237525
1.3295916318893433	1749788.5019562722
1.3339040279388428	1100902.9045431686
1.3382149934768677	512491.1321517719
1.3425244092941284	229202.64631735918
1.3468321561813354	184358.4486585421
1.3511382341384888	138348.4254928461
1.3554422855377197	80168.72084201289
1.3597444295883179	64206.985563033326
1.3640443086624146	61655.220745133774
1.3683418035507202	87787.97280861808
1.3726370334625244	199881.16039037652
1.3769296407699585	327695.1702049692
1.381219506263733	258727.72663382135
1.3855066299438477	94981.36921097989
1.3897908926010132	40218.47330065854
1.3940720558166504	52328.09792930837
1.3983501195907593	89568.70488959354
1.4026249647140503	172677.61260665636
1.4068963527679443	228433.78502595652
1.4111642837524414	170160.35499524296
1.4154287576675415	118224.34446615085
1.419689416885376	113734.2492588156
1.4239463806152344	105301.99763924739
1.4281994104385376	143685.42268375875
1.4324485063552856	202637.4182157548
1.436693549156189	238198.53874661025
1.440934419631958	297282.5836733346
1.4451709985733032	487718.229373092
1.449403166770935	825169.5397392445
1.453631043434143	1065348.44833453
1.4578542709350586	1174800.2894701974
1.4620729684829712	1303956.43772928
1.4662868976593018	1299435.1186287221
1.4704961776733398	1134335.971048866
1.4747005701065063	1019448.1009589125
1.4788999557495117	1080534.9449831576
1.4830944538116455	1421262.8515956413
1.4872838258743286	1841015.8008176347
1.491468071937561	1992600.5873769065
1.4956470727920532	1939530.9417463962
1.4998208284378052	2049431.659843746
1.5039892196655273	2283615.296422059
1.5081522464752197	2374679.533568009
1.5123097896575928	2520354.2499728817
1.5164618492126465	2854292.0719929077
1.5206083059310913	3282010.602673748
1.5247491598129272	3600975.957881806
1.5288842916488647	3691339.949060268
1.5330137014389038	3820033.9595575766
1.5371372699737549	4021678.578185018
1.541254997253418	4102424.5197756505
1.545366883277893	4182108.6488801157
1.5494728088378906	4342413.985572957
1.5535727739334106	4428645.353664746
1.5576666593551636	4371583.867973665
1.561754584312439	4415788.06233595
1.5658363103866577	4681714.9588963175
1.5699119567871094	4851553.467417252
1.5739814043045044	4667716.893949802
1.5780447721481323	4323037.172457979
1.582101821899414	4435599.906571091
1.5861525535583496	4959432.206586166
1.5901970863342285	5191999.496141661
1.5942351818084717	5072147.252080579
1.5982669591903687	4858927.860810196
1.6022924184799194	4745984.194169401
1.606311559677124	4793790.481527568
1.6103241443634033	4755204.498440802
1.6143304109573364	4553685.578198081
1.6183301210403442	4301965.578772362
1.6223233938217163	4007175.6104193246
1.6263102293014526	3676025.902931389
1.6302905082702637	3370970.353833446
1.634264349937439	3615760.821805715
1.638231635093689	4480961.4203231055
1.6421923637390137	4912371.555418557
1.646146535873413	4439265.199787099
1.6500942707061768	3935399.0242733187
1.6540353298187256	4175444.3522527665
1.6579699516296387	4566893.708557822
1.661897897720337	4270212.901903809
1.6658192873001099	3269764.3001278667
1.6697341203689575	2815363.060434985
1.6736423969268799	3507905.928496175
1.677544116973877	3921271.8023678227
1.6814392805099487	3740172.484933894
1.6853278875350952	3592296.6258454104
1.6892099380493164	3366831.4594792034
1.6930854320526123	2902601.8903144896
1.696954369544983	2377215.4480094374
1.7008168697357178	2229610.290300772
1.7046726942062378	2443067.9198966776
1.708522081375122	2780426.4636534955
1.712364912033081	3137817.3883164865
1.7162011861801147	3519825.698786004
1.7200311422348022	3886377.102297594
1.723854422569275	3963644.7874767887
1.7276713848114014	3790728.9668928767
1.731481909751892	3550503.4680046453
1.7352858781814575	3334195.0434699412
1.7390835285186768	3267450.813626164
1.7428747415542603	3213467.832739563
1.7466596364974976	3003391.4831573777
1.7504380941390991	2704838.3699424183
1.7542102336883545	2548716.9057946038
1.7579760551452637	2896766.8073276617
1.7617355585098267	3253921.605618205
1.7654887437820435	2947979.959230121
1.7692357301712036	2256997.4012534525
1.7729763984680176	1503365.1247194111
1.776710867881775	877465.1003761906
1.7804391384124756	654612.6222258449
1.7841613292694092	669785.4935973807
1.7878772020339966	588939.9883999045
1.7915871143341064	642915.3028770246
1.7952908277511597	983635.1349433912
1.7989884614944458	1136295.2614483347
1.8026801347732544	729153.8608504706
1.806365728378296	274082.7557647131
1.8100452423095703	255737.66597886526
1.8137187957763672	339951.1091895975
1.817386507987976	288678.28295971564
1.8210482597351074	366474.19188754004
1.8247040510177612	408449.2657659632
1.828354001045227	206901.5606867749
1.8319982290267944	122336.4877887184
1.8356364965438843	259049.05900630675
1.8392690420150757	410243.8582613026
1.8428958654403687	419372.92280177854
1.8465168476104736	443152.9631556934
1.8501322269439697	568017.0757714559
1.8537418842315674	490639.32548228616
1.8573459386825562	315270.97297703306
1.860944390296936	241782.38575521714
1.864537239074707	142934.52899214608
1.8681244850158691	109453.69698540783
1.871706247329712	231452.83932766583
1.8752825260162354	482085.4011085908
1.8788533210754395	988794.1980760028
1.8824186325073242	1422820.792975748
1.8859784603118896	1294607.274337159
1.8895330429077148	1082968.9902074935
1.8930821418762207	1340349.0838766715
1.8966259956359863	1324012.8517970545
1.9001644849777222	610780.5369240423
1.9036977291107178	126272.49619435854
1.9072256088256836	109066.51940445007
1.9107483625411987	108697.05669614451
1.9142658710479736	59815.38206722861
1.9177782535552979	65334.081754593855
1.9212853908538818	110764.73135457895
1.9247875213623047	117431.31282848229
1.9282845258712769	129688.18710240528
1.9317764043807983	199508.46813662906
1.9352631568908691	247945.2001553266
1.9387450218200684	270865.4858483956
1.942221760749817	365559.6359129829
1.9456936120986938	476250.74014403607
1.9491604566574097	599447.2250421388
1.952622413635254	593723.725708019
1.956079363822937	428434.1109795117
1.959531545639038	387552.78259918257
1.962978720664978	456344.4554085002
1.966421127319336	699594.5030524853
1.9698586463928223	1151214.821866004
1.9732913970947266	1413627.0871244092
1.9767193794250488	1574572.0974691752
1.9801424741744995	1941833.8148415356
1.9835609197616577	2303331.4153078166
1.9869745969772339	2314429.0284210676
1.990383505821228	1993557.3686632018
1.9937876462936401	1957035.6699247104
1.9971871376037598	2066164.9851986924
2.000581979751587	2240469.06436516
2.003972291946411	2867574.4101833026
2.007357597351074	3517081.4628759874
2.0107386112213135	4061374.304752864
2.0141148567199707	4140539.4469183465
2.017486572265625	3725332.693660614
2.0208535194396973	3959087.8015659703
2.0242159366607666	4660615.837476144
2.027573823928833	4995429.154688516
2.0309269428253174	5258708.365936654
2.034275770187378	5692665.965764396
2.0376198291778564	6075570.380209789
2.040959596633911	6417386.828415427
2.044294595718384	6868851.374217202
2.0476250648498535	7298598.989913655
2.0509510040283203	7297018.499392675
2.054272413253784	7045014.346438414
2.057589530944824	7168276.218680304
2.0609018802642822	7532842.746400279
2.0642096996307373	7803181.562013903
2.0675129890441895	7984741.817233845
2.0708119869232178	8102227.594481565
2.074106216430664	8099008.236664994
2.0773961544036865	8054709.30731464
2.080681324005127	8119427.902600993
2.0839622020721436	8182407.079231589
2.087238311767578	8206275.760534144
2.090510129928589	8200587.552753761
2.0937774181365967	8116659.395833193
2.0970399379730225	8067510.359607654
2.1002981662750244	8039769.739114691
2.1035518646240234	7936261.009692952
2.1068007946014404	7809372.809663847
2.1100454330444336	7798023.578136206
2.1132853031158447	7787663.041982603
2.116520881652832	7566702.41076537
2.1197516918182373	7343495.500056725
2.1229779720306396	7308219.790645906
2.12619948387146	7364658.020852766
2.1294167041778564	7390450.774261376
2.132629156112671	7388826.585147248
2.1358368396759033	7223772.626528201
2.139039993286133	6884156.835466852
2.1422386169433594	6516149.371437851
2.145432472229004	6165514.1370894415
2.1486217975616455	5907117.110610781
2.151806354522705	5631228.399941468
2.1549863815307617	5609615.01248174
2.1581614017486572	5707778.292194335
2.16133189201355	5421379.7429086985
2.1644976139068604	5149624.501730062
2.167658567428589	5154047.503343282
2.1708147525787354	5326317.449507428
2.173966407775879	5502381.165227592
2.1771130561828613	5505977.548971518
2.1802549362182617	5322452.7950280635
2.183391809463501	4992463.051615534
2.1865241527557373	4603377.518789409
2.1896514892578125	4129741.0527443443
2.1927738189697266	3327833.986191182
2.1958916187286377	2224138.429547661
2.1990041732788086	1340515.415741342
2.2021119594573975	979406.6010621368
2.2052149772644043	991059.4143347716
2.208312749862671	1176725.3942935334
2.2114057540893555	1407546.6165180122
2.214493751525879	1531403.5237385666
2.217576742172241	1447050.2691098535
2.2206547260284424	1305796.5472816834
2.2237277030944824	1224450.1751240478
2.2267956733703613	1051389.5814704672
2.2298583984375	796572.3122144749
2.2329163551330566	629411.4260899618
2.235969066619873	572281.302938258
2.2390167713165283	531401.2676543416
2.2420592308044434	439762.61112979724
2.2450966835021973	348741.53170836606
2.248128890991211	374271.56990325847
2.2511560916900635	475105.9913302787
2.254178285598755	530351.9672427812
2.257194995880127	574617.100114469
2.260206699371338	577888.4468575369
2.2632133960723877	475977.8290455237
2.266214609146118	373657.1250811864
2.2692108154296875	353922.0515069951
2.2722020149230957	418952.7344809252
2.2751877307891846	497699.72769564344
2.278168201446533	497063.1238925709
2.2811436653137207	443638.50633883016
2.284113883972168	409854.16896920814
2.287078857421875	380656.62680724624
2.290038824081421	341287.8752881271
2.2929933071136475	334766.1746013621
2.295942783355713	361647.7945659623
2.298887014389038	389403.5094975077
2.301826238632202	440352.859400795
2.304760217666626	600666.5401942666
2.3076889514923096	891641.482804068
2.310612440109253	1144564.4618887673
2.3135311603546143	1063750.813968621
2.3164443969726562	640181.9300387729
2.319352865219116	309564.1842212989
2.322256088256836	261708.2446071187
2.3251543045043945	287603.56376206584
2.328047275543213	283291.7666809555
2.330935478210449	276079.23525697726
2.3338186740875244	269280.1061045884
2.3366971015930176	254088.5810063574
2.3395702838897705	239514.05294997108
2.3424389362335205	218566.2817139192
2.3453025817871094	187998.29374668412
2.348161458969116	175363.3605262785
2.351015567779541	215186.2853355251
2.353865146636963	300305.18899003963
2.3567099571228027	376267.3672575882
2.3595502376556396	434145.88321275264
2.3623859882354736	487609.77935854247
2.3652172088623047	460022.19547336985
2.368043899536133	314570.54664175963
2.370866537094116	176180.67403326384
2.3736846446990967	150078.72951962927
2.3764986991882324	190127.91592678038
2.3793084621429443	236499.3413513341
2.3821144104003906	292837.96114103607
2.384916305541992	368811.7841659076
2.387714147567749	413140.9579039068
2.3905084133148193	382990.0722582553
2.393299102783203	351121.9840446492
2.3960859775543213	369303.15386204724
2.398869514465332	409618.5830231472
2.4016497135162354	417516.54202598747
2.4044265747070312	407658.1899714785
2.407200336456299	484069.3548234247
2.409970998764038	640805.2876114972
2.4127390384674072	742364.2779681039
2.415503978729248	776838.9757654985
2.418266534805298	881447.8092198811
2.4210267066955566	995437.3769611594
2.4237842559814453	910804.0444549314
2.426539897918701	780782.4428195119
2.429293394088745	913930.7353224789
2.4320452213287354	1169929.122544443
2.4347951412200928	1231215.3045619694
2.4375438690185547	1168586.476525016
2.440291166305542	1203074.6727944252
2.443037271499634	1229758.7745966513
2.445782423019409	1066241.2173736393
2.4485268592834473	828729.4468811427
2.451270818710327	784370.5111632494
2.454014539718628	992927.3067604661
2.4567582607269287	1179704.9964587365
2.4595019817352295	1213040.6709759615
2.4622461795806885	1326309.7949750205
2.4649908542633057	1358331.0943925378
2.4677364826202393	1058672.745163549
2.4704833030700684	714108.875204099
2.473231554031372	526909.8571929027
2.4759814739227295	430792.68318856787
2.4787333011627197	389454.8119059019
2.481487512588501	417581.4038916762
