#wavelength	surface flux
0.6450077295303345	22992.4199422697
0.6472567915916443	34956.277903099275
0.6494921445846558	42815.180854048944
0.6517150402069092	45657.19543572062
0.6539263725280762	48171.12448272325
0.6561272740364075	50640.277337737636
0.6583186388015747	53160.37929979059
0.6605015397071838	55794.134179705165
0.6626768708229065	58494.14797659368
0.6648455858230591	61141.72112045695
0.6670085787773132	62769.30001301254
0.6691668033599854	61544.83721727479
0.6713210344314575	61867.24550242249
0.6734722256660461	68189.72528173262
0.6756211519241333	74789.55426811066
0.6777685880661011	78553.90832851245
0.6799154281616211	81730.69139389775
0.6820623278617859	84895.66473361527
0.6842101216316223	88093.77160572814
0.6863595843315125	91319.61153902735
0.688511312007904	94443.20731651438
0.6906660795211792	97048.761464865
0.6928245425224304	99622.51939011304
0.6949873566627502	103397.94693689355
0.6971551775932312	107649.17996359107
0.6993286609649658	111245.37284469635
0.7015084028244019	114525.58069228534
0.7036949396133423	118175.57316310353
0.7058889269828796	122182.68949516164
0.7080909013748169	125929.81207297974
0.710301399230957	129596.23850431033
0.712520956993103	133280.21787972964
0.7147500514984131	135976.34941468234
0.7169892191886902	137830.8222615381
0.7192389369010925	140807.55200711841
0.7214996814727783	144295.68803406696
0.723771870136261	146581.753985306
0.7260559797286987	148399.15607043714
0.7283523678779602	150344.35795906532
0.7306615710258484	152778.56880454894
0.7329838871955872	155884.20207318838
0.7353196740150452	158293.89117757583
0.7376693487167358	159555.30861750172
0.7400332689285278	159644.693757385
0.7424117922782898	157683.76351743852
0.7448052167892456	153774.1601827294
0.7472138404846191	147405.94523035307
0.7496379613876343	137334.0019781983
0.7520779371261597	122758.31569698975
0.7545340061187744	103149.23970887737
0.7570064663887024	78893.71401255639
0.7594954967498779	52131.00475457582
0.7620013952255249	27331.16082554588
0.7645244002342224	10050.149379690203
0.7670646905899048	2560.0897851332047
0.7696225643157959	3015.1920822880434
0.7721980810165405	13176.44147460578
0.7747915983200073	36770.48500816823
0.7774031162261963	68024.35062073443
0.7800329327583313	102684.4309023064
0.7826811671257019	146591.04937926674
0.7853479981422424	192544.91917734742
0.7880334854125977	228773.90150835383
0.7907378077507019	240717.41130360623
0.7934610247612	219541.69134900803
0.7962033748626709	236634.82906836332
0.7989648580551147	309016.30811030854
0.801745593547821	359252.9866324772
0.8045456409454346	381818.5422780407
0.8073651194572449	399020.0409865733
0.8102040886878967	410714.61427399423
0.8130625486373901	424077.43772093276
0.8159406185150146	446867.45962097927
0.8188382983207703	470934.5106625598
0.8217556476593018	488832.5348675048
0.8246926665306091	506577.87198461127
0.8276493549346924	524937.2753116745
0.8306257724761963	540818.2870076478
0.8336219191551208	557370.3429624654
0.8366377949714661	574070.2722446516
0.8396733403205872	595360.4010761582
0.8427285552024841	625001.2113367452
0.8458034992218018	653422.8618258291
0.8488980531692505	675021.7383559765
0.8520121574401855	694982.6022433761
0.8551458716392517	721068.7101167929
0.8582990765571594	748868.2158045009
0.8614717125892639	771142.0481401634
0.8646637797355652	792836.7095418643
0.8678751587867737	818248.7936668962
0.8711057901382446	845144.0143166847
0.8743556141853333	869191.4349674942
0.87762451171875	888000.8229629985
0.8809124231338501	903127.2603680304
0.8842192888259888	917681.3485784509
0.8875449895858765	929856.1249517512
0.8908893465995789	930168.1452791048
0.894252359867096	929973.7533742981
0.8976338505744934	966691.4112372724
0.9010337591171265	1032661.481937601
0.9044519662857056	1087129.1190365555
0.9078882932662964	1124597.9284149637
0.9113426208496094	1154268.9301722292
0.914814829826355	1168464.6294801221
0.9183048605918884	1184621.9870200455
0.9218124747276306	1199876.188348321
0.925337553024292	1108442.920604831
0.9288799166679382	919342.011499316
0.9324395060539246	829696.7803471168
0.9360161423683167	897775.0111838313
0.9396095871925354	1006709.8880148885
0.943219780921936	1010737.4885474104
0.9468464851379395	962313.8468157974
0.9504896402359009	1006227.4811354956
0.9541489481925964	1099981.342385055
0.9578243494033813	1123596.4410254322
0.9615156054496765	1054313.901238147
0.9652225375175476	1033043.9653820079
0.9689450263977051	1155533.0392278545
0.9726828336715698	1364152.0442463194
0.9764357805252075	1513917.6979604885
0.9802037477493286	1595652.8742128438
0.983986496925354	1681467.0808946239
0.9877838492393494	1779482.978551804
0.9915955662727356	1889050.0556642893
0.9954215884208679	1985309.276763985
0.9992615580558777	2061974.1212486795
1.0031154155731201	2128765.7861711006
1.0069829225540161	2201579.8737126626
1.0108637809753418	2283714.6583933947
1.0147579908370972	2365409.1488720286
1.018665075302124	2433946.264250644
1.022585153579712	2476187.4396303305
1.0265177488327026	2502063.9203137993
1.0304628610610962	2551114.7105880594
1.0344202518463135	2646479.894059556
1.0383895635604858	2742806.115514679
1.0423706769943237	2812082.734257976
1.0463634729385376	2868230.057263575
1.0503677129745483	2919750.7188663166
1.0543830394744873	2984390.8424857548
1.058409333229065	3057997.0206035175
1.0624464750289917	3124544.63982596
1.0664942264556885	3181775.7092517493
1.0705522298812866	3235260.108242238
1.0746204853057861	3297350.900923835
1.0786986351013184	3365753.99254377
1.0827864408493042	3427561.3360757492
1.086883783340454	3457479.2243163977
1.0909905433654785	3438594.385560199
1.0951062440872192	3339644.7351988717
1.0992310047149658	2950110.014799941
1.10336434841156	2361844.968864523
1.1075061559677124	2129310.9167123954
1.1116561889648438	2071208.8497965932
1.115814208984375	1817478.2046802684
1.1199802160263062	1599201.7463581671
1.124153733253479	1610757.1610094572
1.1283347606658936	1714657.4463621944
1.1325229406356812	1659511.2215803242
1.1367181539535522	1825254.1223788867
1.1409201622009277	2272243.2463064496
1.145128846168518	2524682.799300451
1.1493438482284546	2179268.3517815503
1.1535650491714478	1418496.326432486
1.1577922105789185	1129473.2240165647
1.1620250940322876	1476997.3848387515
1.1662636995315552	2039261.530784854
1.170507550239563	2471669.42108813
1.174756646156311	2965364.848790128
1.1790107488632202	3635172.410734205
1.1832695007324219	4142581.162063145
1.1875330209732056	4438281.525111731
1.191800832748413	4715762.849592396
1.1960728168487549	5036943.19422266
1.2003488540649414	5258041.127321741
1.2046287059783936	5379459.568019175
1.2089121341705322	5497359.064143826
1.2131990194320679	5635521.8535440825
1.2174891233444214	5795654.909361902
1.2217823266983032	5960626.243301263
1.2260783910751343	6109656.378659454
1.230377197265625	6229814.357165322
1.2346785068511963	6332405.308153259
1.238982081413269	6452012.417016186
1.2432878017425537	6567569.659935071
1.2475954294204712	6657041.878655461
1.2519049644470215	6742747.026853789
1.256216049194336	6847677.699138332
1.2605286836624146	6934380.9841545345
1.2648425102233887	6990181.2019136865
1.2691574096679688	7043719.218571612
1.2734732627868652	7108652.575739197
1.2777899503707886	7168242.272957183
1.2821072340011597	7191096.258986717
1.2864248752593994	7145355.776031016
1.2907428741455078	7032613.345165496
1.2950609922409058	7005284.081788098
1.2993791103363037	7001956.059136483
1.303696870803833	6885226.183812856
1.3080145120620728	6803653.153992528
1.3123314380645752	6865719.146421576
1.3166478872299194	7068018.430359248
1.3209635019302368	6933197.866998257
1.3252781629562378	6151374.716324179
1.3295916318893433	4771179.137367359
1.3339040279388428	2877090.241879235
1.3382149934768677	1227540.558415463
1.3425244092941284	487879.6302677159
1.3468321561813354	381602.4333303421
1.3511382341384888	289286.37121449516
1.3554422855377197	167522.4896379958
1.3597444295883179	136255.1174087095
1.3640443086624146	135121.53855207984
1.3683418035507202	197329.4715050427
1.3726370334625244	463706.2955115097
1.3769296407699585	777596.6683963393
1.381219506263733	618872.6557185493
1.3855066299438477	220531.2514024378
1.3897908926010132	83511.92506692387
1.3940720558166504	108058.25419460313
1.3983501195907593	183267.99621737833
1.4026249647140503	365819.5824920555
1.4068963527679443	495674.6751229179
1.4111642837524414	364961.50601595547
1.4154287576675415	241921.71653731674
1.419689416885376	227345.35084195534
1.4239463806152344	209721.18214773314
1.4281994104385376	294731.91558694374
1.4324485063552856	420580.97768987814
1.436693549156189	492595.06247957755
1.440934419631958	613656.227693379
1.4451709985733032	1026554.1943318187
1.449403166770935	1796015.299218356
1.453631043434143	2356143.1687511494
1.4578542709350586	2627342.811539871
1.4620729684829712	2966237.1066300347
1.4662868976593018	2973546.258913242
1.4704961776733398	2578624.019227923
1.4747005701065063	2316933.8165346337
1.4788999557495117	2486980.894775705
1.4830944538116455	3317484.0720968456
1.4872838258743286	4296812.3492539255
1.491468071937561	4601463.315559851
1.4956470727920532	4459198.242826879
1.4998208284378052	4775840.201135898
1.5039892196655273	5416411.774920438
1.5081522464752197	5653356.965962335
1.5123097896575928	5998635.333953123
1.5164618492126465	6864235.283708058
1.5206083059310913	7998077.671460141
1.5247491598129272	8843773.396420239
1.5288842916488647	9066528.22759974
1.5330137014389038	9346965.509221604
1.5371372699737549	9858051.990755925
1.541254997253418	10161094.826038437
1.545366883277893	10445932.31926371
1.5494728088378906	10834724.960017107
1.5535727739334106	11067156.405660018
1.5576666593551636	11069862.053501839
1.561754584312439	11274474.768297836
1.5658363103866577	11834393.178387502
1.5699119567871094	12154993.377592633
1.5739814043045044	11807448.559627378
1.5780447721481323	11166702.11531004
1.582101821899414	11391805.458122378
1.5861525535583496	12387355.124208594
1.5901970863342285	12807160.677649561
1.5942351818084717	12519516.95968109
1.5982669591903687	12049399.689074997
1.6022924184799194	11754726.927514257
1.606311559677124	11737821.955869036
1.6103241443634033	11594960.639999736
1.6143304109573364	11106027.796843316
1.6183301210403442	10418734.912646411
1.6223233938217163	9584253.160337366
1.6263102293014526	8647141.379023097
1.6302905082702637	7858184.214218221
1.634264349937439	8464017.306715399
1.638231635093689	10540310.23219197
1.6421923637390137	11562912.81666359
1.646146535873413	10421202.637468243
1.6500942707061768	9195060.2705609
1.6540353298187256	9714515.913783988
1.6579699516296387	10608376.242681513
1.661897897720337	9901781.018652173
1.6658192873001099	7471703.257945799
1.6697341203689575	6265477.584541661
1.6736423969268799	7849554.062987923
1.677544116973877	8886416.288985783
1.6814392805099487	8488248.110635389
1.6853278875350952	8100343.273559541
1.6892099380493164	7525195.577452734
1.6930854320526123	6410887.94983516
1.696954369544983	5179801.897099714
1.7008168697357178	4843104.425387199
1.7046726942062378	5372544.826284015
1.708522081375122	6182235.842055481
1.712364912033081	6981365.114936941
1.7162011861801147	7809074.882342028
1.7200311422348022	8625539.490303298
1.723854422569275	8825214.324449565
1.7276713848114014	8437860.98692349
1.731481909751892	7836939.471442139
1.7352858781814575	7261768.84539215
1.7390835285186768	7035589.47945981
1.7428747415542603	6841630.060201036
1.7466596364974976	6285103.003986678
1.7504380941390991	5529908.0194073375
1.7542102336883545	5133962.233880003
1.7579760551452637	5987088.345581995
1.7617355585098267	6893496.809282117
1.7654887437820435	6149956.355604393
1.7692357301712036	4469348.613765899
1.7729763984680176	2803378.9715639814
1.776710867881775	1535810.9644712706
1.7804391384124756	1094376.191396265
1.7841613292694092	1130624.5342944586
1.7878772020339966	994857.8367533523
1.7915871143341064	1114813.317377012
1.7952908277511597	1833836.5177071488
1.7989884614944458	2210913.1623217845
1.8026801347732544	1413742.7394622867
1.806365728378296	500335.641353414
1.8100452423095703	469715.3174108219
1.8137187957763672	634923.2772785668
1.817386507987976	527396.6873000457
1.8210482597351074	640404.9656539315
1.8247040510177612	706059.8640638756
1.828354001045227	355436.64475477766
1.8319982290267944	213272.86016949953
1.8356364965438843	466070.80884471576
1.8392690420150757	745186.2649779367
1.8428958654403687	745020.971298124
1.8465168476104736	767679.051717792
1.8501322269439697	992891.5064243955
1.8537418842315674	853777.661898198
1.8573459386825562	516860.4883230745
1.860944390296936	375473.70145599626
1.864537239074707	226626.1681139467
1.8681244850158691	187642.7395349308
1.871706247329712	397841.96579807065
1.8752825260162354	835093.0869167885
1.8788533210754395	1728822.8967021175
1.8824186325073242	2456722.218694667
1.8859784603118896	2200816.7162744296
1.8895330429077148	1895055.3658677498
1.8930821418762207	2504969.880527867
1.8966259956359863	2549497.8564184937
1.9001644849777222	1187648.7037358102
1.9036977291107178	240276.22858860053
1.9072256088256836	201232.24641021277
1.9107483625411987	199233.9996596163
1.9142658710479736	108018.95882718966
1.9177782535552979	111615.36044616849
1.9212853908538818	184891.09703525758
1.9247875213623047	194502.0327629317
1.9282845258712769	211296.73935447182
1.9317764043807983	316193.6083522828
1.9352631568908691	385077.5690975261
1.9387450218200684	406149.83355683077
1.942221760749817	527114.0159096671
1.9456936120986938	702497.0891764729
1.9491604566574097	934213.9342247759
1.952622413635254	940742.4506895925
1.956079363822937	663054.9348580935
1.959531545639038	581043.6419642324
1.962978720664978	679953.7870812304
1.966421127319336	1049886.6814041813
1.9698586463928223	1744723.7231909628
1.9732913970947266	2123650.7549396423
1.9767193794250488	2339078.5767762586
1.9801424741744995	2943176.280565948
1.9835609197616577	3622695.3252679734
1.9869745969772339	3707239.7628904423
1.990383505821228	3134324.0789424265
1.9937876462936401	3029676.6833818625
1.9971871376037598	3215552.3730537533
2.000581979751587	3569178.3633250673
2.003972291946411	4736321.237876962
2.007357597351074	5929362.069599744
2.0107386112213135	7034946.446115902
2.0141148567199707	7257198.346487048
2.017486572265625	6331084.859203275
2.0208535194396973	6541845.603902074
2.0242159366607666	7791917.377786302
2.027573823928833	8650605.861447958
2.0309269428253174	9451601.165038215
2.034275770187378	10275542.978336852
2.0376198291778564	10970678.20685685
2.040959596633911	11931374.31267451
2.044294595718384	13155654.38564634
2.0476250648498535	14212007.069441125
2.0509510040283203	14253428.71887975
2.054272413253784	13533616.777450157
2.057589530944824	13681193.239941293
2.0609018802642822	14584716.454493774
2.0642096996307373	15288542.632086268
2.0675129890441895	15709458.244054832
2.0708119869232178	15889702.69403927
2.074106216430664	15766683.900600709
2.0773961544036865	15616281.785079487
2.080681324005127	15743653.085720224
2.0839622020721436	15869884.873396443
2.087238311767578	15899051.325633964
2.090510129928589	15840235.304171186
2.0937774181365967	15597484.86452136
2.0970399379730225	15430834.006894814
2.1002981662750244	15329585.147360085
2.1035518646240234	15088553.007922446
2.1068007946014404	14801246.657712
2.1100454330444336	14743491.787388688
2.1132853031158447	14684293.7803317
2.116520881652832	14198557.798814068
2.1197516918182373	13715482.375570953
2.1229779720306396	13614963.248966252
2.12619948387146	13707270.363688527
2.1294167041778564	13741496.827465685
2.132629156112671	13695990.331915764
2.1358368396759033	13313829.973687617
2.139039993286133	12608122.934416998
2.1422386169433594	11869394.246889902
2.145432472229004	11155106.48756651
2.1486217975616455	10642399.727364272
2.151806354522705	10132206.439608935
2.1549863815307617	10077531.615362978
2.1581614017486572	10213209.761094647
2.16133189201355	9613353.208079766
2.1644976139068604	9047318.394324437
2.167658567428589	8995044.5743039
2.1708147525787354	9237455.020841656
2.173966407775879	9476374.116091648
2.1771130561828613	9378418.07185082
2.1802549362182617	8906371.526402468
2.183391809463501	8184867.989616641
2.1865241527557373	7410630.289476719
2.1896514892578125	6539886.835644037
2.1927738189697266	5194364.241453518
2.1958916187286377	3437643.232080228
2.1990041732788086	2072337.6487876808
2.2021119594573975	1508321.8598038596
2.2052149772644043	1478911.1450658625
2.208312749862671	1700680.9347579177
2.2114057540893555	2026351.1508672666
2.214493751525879	2240029.189739
2.217576742172241	2146405.6778683
2.2206547260284424	1948213.3129321646
2.2237277030944824	1831757.0752319281
2.2267956733703613	1579424.2154794382
2.2298583984375	1208789.778737779
2.2329163551330566	969068.7771072758
2.235969066619873	889364.663728962
2.2390167713165283	829152.4109937932
2.2420592308044434	682285.5578141722
2.2450966835021973	524252.4449223609
2.248128890991211	550772.2302479594
2.2511560916900635	713001.9585292131
2.254178285598755	807278.2832681815
2.257194995880127	875442.5452166314
2.260206699371338	887930.9754928552
2.2632133960723877	744937.465339345
2.266214609146118	592497.0435443837
2.2692108154296875	560883.9880425701
2.2722020149230957	656162.57882424
2.2751877307891846	770776.7396740785
2.278168201446533	769232.4529899027
2.2811436653137207	690533.0151993001
2.284113883972168	636683.5255840648
2.287078857421875	589042.8904086293
2.290038824081421	532861.5983134463
2.2929933071136475	528631.1503783613
2.295942783355713	572242.270311344
2.298887014389038	610743.5285036007
2.301826238632202	679834.6708793138
2.304760217666626	937443.0469536822
2.3076889514923096	1428685.1572354818
2.310612440109253	1859659.4168947586
2.3135311603546143	1737844.9086117344
2.3164443969726562	1049840.6887278203
2.319352865219116	502758.03960178676
2.322256088256836	409945.7818517423
2.3251543045043945	443338.1337223671
2.328047275543213	437621.5080786426
2.330935478210449	429805.84669267584
2.3338186740875244	421996.68690267944
2.3366971015930176	400773.25906323653
2.3395702838897705	379594.381694164
2.3424389362335205	347437.5146356554
2.3453025817871094	301116.6508281699
2.348161458969116	283633.010198591
2.351015567779541	346107.34593593294
2.353865146636963	477687.65327559924
2.3567099571228027	596719.81045292
2.3595502376556396	687632.2065854229
2.3623859882354736	768662.9533018051
2.3652172088623047	725360.087217739
2.368043899536133	502517.06052964984
2.370866537094116	287150.6415369581
2.3736846446990967	242400.29125700687
2.3764986991882324	300592.89926522836
2.3793084621429443	366410.763547561
2.3821144104003906	445444.51925549225
2.384916305541992	556630.0747426362
2.387714147567749	626392.8513643664
2.3905084133148193	588645.9583074418
2.393299102783203	545508.161950657
2.3960859775543213	573139.8552963978
2.398869514465332	632457.7799918868
2.4016497135162354	642867.9971626307
2.4044265747070312	625554.7894585716
2.407200336456299	733649.0673096422
2.409970998764038	959700.3163603415
2.4127390384674072	1107453.177101343
2.415503978729248	1159493.3060057738
2.418266534805298	1312746.305737286
2.4210267066955566	1476844.4122037508
2.4237842559814453	1349674.719528321
2.426539897918701	1150911.4047637878
2.429293394088745	1326860.6836014958
2.4320452213287354	1686218.3105906148
2.4347951412200928	1779423.580391141
2.4375438690185547	1691256.7736016512
2.440291166305542	1721137.0700996348
2.443037271499634	1737536.8700487926
2.445782423019409	1506383.8331924467
2.4485268592834473	1182470.0064955037
2.451270818710327	1117772.6024821282
2.454014539718628	1399324.2826543697
2.4567582607269287	1653637.6670758063
2.4595019817352295	1688717.112214019
2.4622461795806885	1837351.1903075243
2.4649908542633057	1882478.9766185954
2.4677364826202393	1469232.7034302002
2.4704833030700684	993083.3676948558
2.473231554031372	727976.3502283023
2.4759814739227295	586373.987556719
2.4787333011627197	527742.4255208464
2.481487512588501	573983.8447201158
