#wavelength	surface flux
0.6450077295303345	7333.6227960876195
0.6472567915916443	11089.772172524568
0.6494921445846558	13438.600871228584
0.6517150402069092	14151.668120252527
0.6539263725280762	14779.75486607138
0.6561272740364075	15414.978735135239
0.6583186388015747	16066.280900367503
0.6605015397071838	16739.59820065773
0.6626768708229065	17430.81419043899
0.6648455858230591	18128.71687024084
0.6670085787773132	18713.169483210953
0.6691668033599854	18952.57454925865
0.6713210344314575	19404.641955114093
0.6734722256660461	20617.279608702902
0.6756211519241333	21863.855174941815
0.6777685880661011	22771.868851690397
0.6799154281616211	23627.323301960238
0.6820623278617859	24497.899964636
0.6842101216316223	25389.48963969843
0.6863595843315125	26301.800755869248
0.688511312007904	27224.06046916132
0.6906660795211792	28121.779656392882
0.6928245425224304	29039.91680474005
0.6949873566627502	30084.326376994843
0.6971551775932312	31190.688906929845
0.6993286609649658	32264.584867855257
0.7015084028244019	33336.4918247356
0.7036949396133423	34463.476746302644
0.7058889269828796	35646.159073738505
0.7080909013748169	36835.21298723598
0.710301399230957	38046.82441744639
0.712520956993103	39289.60676535223
0.7147500514984131	40477.4844757829
0.7169892191886902	41624.84195001796
0.7192389369010925	42902.936733544884
0.7214996814727783	44260.478070912715
0.723771870136261	45560.18511144284
0.7260559797286987	46862.58479053301
0.7283523678779602	48202.63383538091
0.7306615710258484	49620.50499653402
0.7329838871955872	51148.58999589558
0.7353196740150452	52664.49676877498
0.7376693487167358	54133.64844996841
0.7400332689285278	55551.41541092909
0.7424117922782898	56816.92390454207
0.7448052167892456	57926.416920537835
0.7472138404846191	58793.28545489834
0.7496379613876343	59201.285079804096
0.7520779371261597	58866.45920103176
0.7545340061187744	57309.49677821853
0.7570064663887024	53701.928957220596
0.7594954967498779	46573.026766016854
0.7620013952255249	34076.70161810711
0.7645244002342224	18038.05721135612
0.7670646905899048	6726.077193628069
0.7696225643157959	7147.185546910166
0.7721980810165405	21204.422395886424
0.7747915983200073	42676.42439159764
0.7774031162261963	60188.88953080139
0.7800329327583313	71594.70079097213
0.7826811671257019	81586.58130060828
0.7853479981422424	90560.02619200895
0.7880334854125977	97131.10112759158
0.7907378077507019	98946.04439920164
0.7934610247612	93316.58722184229
0.7962033748626709	95499.89580510702
0.7989648580551147	110763.15005173985
0.801745593547821	121827.59193397139
0.8045456409454346	126771.18448155618
0.8073651194572449	131122.27840634293
0.8102040886878967	135078.29852077877
0.8130625486373901	139316.07845673795
0.8159406185150146	144527.3357829714
0.8188382983207703	149957.01258086256
0.8217556476593018	154943.36592264887
0.8246926665306091	160033.88345044316
0.8276493549346924	165305.6119039089
0.8306257724761963	170487.6587962525
0.8336219191551208	175844.61035058324
0.8366377949714661	181314.0096031735
0.8396733403205872	187284.95671497492
0.8427285552024841	194102.01799988153
0.8458034992218018	200974.32169310836
0.8488980531692505	207476.0044158384
0.8520121574401855	214002.57704835414
0.8551458716392517	221071.6508499305
0.8582990765571594	228337.01912308353
0.8614717125892639	235244.5114500174
0.8646637797355652	242290.61883344734
0.8678751587867737	249924.25662773923
0.8711057901382446	257859.1800002126
0.8743556141853333	265652.133625578
0.87762451171875	273151.5532367514
0.8809124231338501	280688.69162443856
0.8842192888259888	288531.8948392202
0.8875449895858765	296207.9124354657
0.8908893465995789	302764.6437566328
0.894252359867096	309456.4266916631
0.8976338505744934	319635.60236446356
0.9010337591171265	332464.4392856638
0.9044519662857056	344510.82938806276
0.9078882932662964	355351.2923254342
0.9113426208496094	365661.1515529277
0.914814829826355	374769.75141608686
0.9183048605918884	384248.9043950135
0.9218124747276306	393577.9066246791
0.925337553024292	391129.28210286
0.9288799166679382	376697.9861585585
0.9324395060539246	374805.4863552733
0.9360161423683167	393594.8396545569
0.9396095871925354	416233.5520939519
0.943219780921936	425163.1554645387
0.9468464851379395	428129.9104485079
0.9504896402359009	442249.97819044965
0.9541489481925964	462122.99344961066
0.9578243494033813	473795.0327476804
0.9615156054496765	475029.99690357526
0.9652225375175476	482578.3244538672
0.9689450263977051	507336.7686638054
0.9726828336715698	542545.8244124019
0.9764357805252075	571047.3691858322
0.9802037477493286	591201.3158669081
0.983986496925354	611683.8871080565
0.9877838492393494	633462.2643032991
0.9915955662727356	656478.0841812966
0.9954215884208679	678470.1725135859
0.9992615580558777	698826.1837668865
1.0031154155731201	718469.5675587202
1.0069829225540161	739026.2355347514
1.0108637809753418	760818.3499145072
1.0147579908370972	782879.3673556417
1.018665075302124	803913.724491024
1.022585153579712	822467.1083477653
1.0265177488327026	839349.3287681012
1.0304628610610962	858928.4002256657
1.0344202518463135	884279.8232413898
1.0383895635604858	910224.3573184694
1.0423706769943237	933297.1281962518
1.0463634729385376	955204.068765712
1.0503677129745483	976916.7091053355
1.0543830394744873	1000352.3415485936
1.058409333229065	1025027.6802860445
1.0624464750289917	1049231.214087242
1.0664942264556885	1072842.7808430127
1.0705522298812866	1096432.978643708
1.0746204853057861	1121114.2783797549
1.0786986351013184	1146665.0973505678
1.0827864408493042	1171902.559459597
1.086883783340454	1194486.7211033697
1.0909905433654785	1212730.8617295753
1.0951062440872192	1221795.473146599
1.0992310047149658	1193387.8336787543
1.10336434841156	1134875.1728888943
1.1075061559677124	1119168.1948733148
1.1116561889648438	1121784.8717565436
1.115814208984375	1092162.3467509146
1.1199802160263062	1074604.3691283844
1.124153733253479	1107016.30032495
1.1283347606658936	1145684.5058755898
1.1325229406356812	1125476.2497269674
1.1367181539535522	1160984.677266256
1.1409201622009277	1286028.9415281585
1.145128846168518	1361718.741297339
1.1493438482284546	1297304.360031776
1.1535650491714478	1153618.1568071332
1.1577922105789185	1123260.2338716486
1.1620250940322876	1230630.0175918129
1.1662636995315552	1375490.9354359722
1.170507550239563	1482234.0210491207
1.174756646156311	1579599.9423303735
1.1790107488632202	1697374.051410539
1.1832695007324219	1786331.9904245879
1.1875330209732056	1844932.6204175896
1.191800832748413	1900053.4324976325
1.1960728168487549	1959563.1546993759
1.2003488540649414	2008282.3900000572
1.2046287059783936	2046670.891222008
1.2089121341705322	2086104.8996903126
1.2131990194320679	2128418.58081866
1.2174891233444214	2172585.529451342
1.2217823266983032	2217139.9347715704
1.2260783910751343	2260272.424806516
1.230377197265625	2300999.326990106
1.2346785068511963	2340414.9185004598
1.238982081413269	2381623.2137493994
1.2432878017425537	2422498.762075892
1.2475954294204712	2460937.552068393
1.2519049644470215	2499264.5459314277
1.256216049194336	2539984.135640685
1.2605286836624146	2579083.857825687
1.2648425102233887	2615086.56819988
1.2691574096679688	2651167.6163907326
1.2734732627868652	2688901.589779205
1.2777899503707886	2726643.262278592
1.2821072340011597	2760935.356819783
1.2864248752593994	2788043.0267812214
1.2907428741455078	2808361.1698543583
1.2950609922409058	2837525.25093026
1.2993791103363037	2868713.4160307464
1.303696870803833	2888175.6682765037
1.3080145120620728	2912542.5622108467
1.3123314380645752	2952844.9209181685
1.3166478872299194	3005756.754568249
1.3209635019302368	3018535.474806327
1.3252781629562378	2944277.5327612017
1.3295916318893433	2717603.1598899234
1.3339040279388428	2223831.889103951
1.3382149934768677	1528464.2300391835
1.3425244092941284	1111042.8887874002
1.3468321561813354	1103143.251815609
1.3511382341384888	955677.7582621707
1.3554422855377197	707871.0725165614
1.3597444295883179	647985.3434981331
1.3640443086624146	702888.7867549012
1.3683418035507202	867564.885285298
1.3726370334625244	1257044.1198586181
1.3769296407699585	1600088.4507021103
1.381219506263733	1285315.108531891
1.3855066299438477	722601.8839281688
1.3897908926010132	558090.984614911
1.3940720558166504	610205.289686854
1.3983501195907593	740507.3452213592
1.4026249647140503	1081101.099115165
1.4068963527679443	1339313.0854386268
1.4111642837524414	1118850.9773095555
1.4154287576675415	943315.2274819554
1.419689416885376	990200.7494507874
1.4239463806152344	975933.6796074308
1.4281994104385376	1109501.1064901662
1.4324485063552856	1226549.101800108
1.436693549156189	1247667.5733342539
1.440934419631958	1458252.4417441026
1.4451709985733032	1912803.556195849
1.449403166770935	2463877.3473851285
1.453631043434143	2802144.961884904
1.4578542709350586	2945226.040237932
1.4620729684829712	3090381.9971549143
1.4662868976593018	3114277.056993585
1.4704961776733398	3005426.442124613
1.4747005701065063	2965121.194375274
1.4788999557495117	3070820.6633710866
1.4830944538116455	3363762.183209181
1.4872838258743286	3691173.5927303187
1.491468071937561	3809211.105805023
1.4956470727920532	3795254.4465989554
1.4998208284378052	3901434.746597244
1.5039892196655273	4084461.5957845496
1.5081522464752197	4160929.463177383
1.5123097896575928	4251710.748235773
1.5164618492126465	4438862.16913283
1.5206083059310913	4662218.051645732
1.5247491598129272	4827049.340950069
1.5288842916488647	4889471.201443369
1.5330137014389038	4963668.207241663
1.5371372699737549	5067266.872186848
1.541254997253418	5127831.620572904
1.545366883277893	5187773.270063552
1.5494728088378906	5273055.723025334
1.5535727739334106	5332985.009200207
1.5576666593551636	5351118.375969457
1.561754584312439	5399567.215740527
1.5658363103866577	5507708.488961036
1.5699119567871094	5586321.636315353
1.5739814043045044	5563865.7456348725
1.5780447721481323	5489123.817798029
1.582101821899414	5549372.511060342
1.5861525535583496	5736208.296914516
1.5901970863342285	5838514.061887309
1.5942351818084717	5840117.928357805
1.5982669591903687	5816523.979432571
1.6022924184799194	5818085.812434174
1.606311559677124	5860419.914328665
1.6103241443634033	5879517.193320248
1.6143304109573364	5852059.305040337
1.6183301210403442	5802128.873546784
1.6223233938217163	5730852.272373678
1.6263102293014526	5635847.10439146
1.6302905082702637	5542195.423435689
1.634264349937439	5648758.377876408
1.638231635093689	5976349.876605419
1.6421923637390137	6158890.449752617
1.646146535873413	6038023.130039113
1.6500942707061768	5901691.480303826
1.6540353298187256	6013865.303581985
1.6579699516296387	6171970.647865181
1.661897897720337	6018372.6088409
1.6658192873001099	5499999.838868802
1.6697341203689575	5327034.821659358
1.6736423969268799	5784742.008251085
1.677544116973877	6078156.928678511
1.6814392805099487	6057601.1733071385
1.6853278875350952	6028207.439794521
1.6892099380493164	5948059.375611052
1.6930854320526123	5712080.707736217
1.696954369544983	5423783.280284249
1.7008168697357178	5365961.479076483
1.7046726942062378	5510724.767785175
1.708522081375122	5720877.629879107
1.712364912033081	5932976.460466287
1.7162011861801147	6134546.613760699
1.7200311422348022	6323318.901783155
1.723854422569275	6389214.883584321
1.7276713848114014	6344582.703333478
1.731481909751892	6242501.940727477
1.7352858781814575	6130978.124581572
1.7390835285186768	6085394.572505056
1.7428747415542603	6032215.5213585375
1.7466596364974976	5878309.191264496
1.7504380941390991	5628955.127726579
1.7542102336883545	5461701.602149531
1.7579760551452637	5745977.349237857
1.7617355585098267	6089007.625570538
1.7654887437820435	5877535.264308218
1.7692357301712036	5260757.563781999
1.7729763984680176	4367322.101507048
1.776710867881775	3378001.7480582404
1.7804391384124756	2977161.4861743925
1.7841613292694092	2995528.692894272
1.7878772020339966	2784082.5744550377
1.7915871143341064	2865082.5559656224
1.7952908277511597	3272888.8897634307
1.7989884614944458	3157348.221869882
1.8026801347732544	2298483.4522505533
1.806365728378296	1402970.9765953477
1.8100452423095703	1400860.465261556
1.8137187957763672	1727584.5991061074
1.817386507987976	1551734.0764968733
1.8210482597351074	1827853.6926913594
1.8247040510177612	2044059.4121118414
1.828354001045227	1346748.7255353155
1.8319982290267944	1155644.3416365623
1.8356364965438843	1775581.0391369406
1.8392690420150757	2365264.3160031526
1.8428958654403687	2543497.2621008493
1.8465168476104736	2570761.4265128425
1.8501322269439697	2543752.2142645665
1.8537418842315674	1999776.3864393656
1.8573459386825562	1585300.8485611822
1.860944390296936	1493918.8051787985
1.864537239074707	1167502.6699476503
1.8681244850158691	1228264.7873462955
1.871706247329712	1935848.6403235544
1.8752825260162354	2736882.90891687
1.8788533210754395	3598623.542569408
1.8824186325073242	4248285.772334468
1.8859784603118896	4046912.0097958446
1.8895330429077148	3680154.499818833
1.8930821418762207	4052404.329828709
1.8966259956359863	3883584.8054536097
1.9001644849777222	2354775.5937873763
1.9036977291107178	1253712.7400268118
1.9072256088256836	1371470.8895249777
1.9107483625411987	1379835.2422317208
1.9142658710479736	898684.6773399622
1.9177782535552979	887920.2694141911
1.9212853908538818	1266785.719915859
1.9247875213623047	1314731.8434096586
1.9282845258712769	1376792.9343267465
1.9317764043807983	1791890.015531061
1.9352631568908691	2004588.1860121917
1.9387450218200684	1945679.7283563574
1.942221760749817	2142733.60377216
1.9456936120986938	2395959.163886164
1.9491604566574097	2535279.2022106964
1.952622413635254	2403833.6192153036
1.956079363822937	2079379.8568409483
1.959531545639038	2158034.5855293656
1.962978720664978	2407500.460426802
1.966421127319336	2925735.9077570057
1.9698586463928223	3815113.2825400755
1.9732913970947266	4288152.576003019
1.9767193794250488	4509124.7397668455
1.9801424741744995	5047102.894190524
1.9835609197616577	5555696.258045444
1.9869745969772339	5552808.404722166
1.990383505821228	5096969.756229597
1.9937876462936401	5009773.33235203
1.9971871376037598	5145019.811016479
2.000581979751587	5356753.81140694
2.003972291946411	6076788.698906305
2.007357597351074	6702803.219844413
2.0107386112213135	7128110.142452353
2.0141148567199707	7252863.172332211
2.017486572265625	6952864.2894452615
2.0208535194396973	7102655.476505661
2.0242159366607666	7664163.8046448305
2.027573823928833	7967126.6396490075
2.0309269428253174	8141115.073521801
2.034275770187378	8379011.817394725
2.0376198291778564	8571837.998326441
2.040959596633911	8727616.729072414
2.044294595718384	8929806.218271537
2.0476250648498535	9125530.241898548
2.0509510040283203	9154847.280624576
2.054272413253784	9076424.944801439
2.057589530944824	9134978.730819402
2.0609018802642822	9289490.732079668
2.0642096996307373	9405691.082941143
2.0675129890441895	9484745.634710727
2.0708119869232178	9533938.605120163
2.074106216430664	9539283.816514648
2.0773961544036865	9536209.986936977
2.080681324005127	9574133.427296974
2.0839622020721436	9614786.95294023
2.087238311767578	9640463.173937334
2.090510129928589	9649135.304385442
2.0937774181365967	9631312.674164671
2.0970399379730225	9629174.011441983
2.1002981662750244	9635578.046555415
2.1035518646240234	9614487.420240724
2.1068007946014404	9583647.98654772
2.1100454330444336	9598171.072779713
2.1132853031158447	9619064.823153323
2.116520881652832	9566904.165365836
2.1197516918182373	9512079.606784467
2.1229779720306396	9519684.033165203
2.12619948387146	9554863.992132291
2.1294167041778564	9576764.112453368
2.132629156112671	9585827.031979017
2.1358368396759033	9536774.323107613
2.139039993286133	9428776.639010325
2.1422386169433594	9310273.94431572
2.145432472229004	9199044.298600007
2.1486217975616455	9118937.247622546
2.151806354522705	9024784.699652582
2.1549863815307617	9020164.869453987
2.1581614017486572	9048717.354791176
2.16133189201355	8935724.356724033
2.1644976139068604	8843670.527276674
2.167658567428589	8855093.395118322
2.1708147525787354	8921478.04016073
2.173966407775879	8976046.46837556
2.1771130561828613	8958005.380948449
2.1802549362182617	8866516.300631156
2.183391809463501	8705389.886996744
2.1865241527557373	8502217.181336846
2.1896514892578125	8216838.003303469
2.1927738189697266	7623513.86919203
2.1958916187286377	6647574.812630187
2.1990041732788086	5689206.638789863
2.2021119594573975	5167414.251174827
2.2052149772644043	5064911.321921978
2.208312749862671	5248500.875108859
2.2114057540893555	5624494.90526864
2.214493751525879	5912058.14711773
2.217576742172241	5874515.160531056
2.2206547260284424	5723998.135652147
2.2237277030944824	5602437.441620055
2.2267956733703613	5233980.270828023
2.2298583984375	4681410.289156896
2.2329163551330566	4311324.56876361
2.235969066619873	4191792.3874958665
2.2390167713165283	4070943.6343418383
2.2420592308044434	3718035.0554397306
2.2450966835021973	3338794.506848396
2.248128890991211	3420119.0934188827
2.2511560916900635	3818723.6835917872
2.254178285598755	4036574.3615176994
2.257194995880127	4165873.129940086
2.260206699371338	4171162.3292613435
2.2632133960723877	3813216.772330967
2.266214609146118	3378987.119804365
2.2692108154296875	3252675.949402471
2.2722020149230957	3505192.273586274
2.2751877307891846	3810243.3865870563
2.278168201446533	3804033.6966217537
2.2811436653137207	3591362.128976561
2.284113883972168	3417181.457337068
2.287078857421875	3248418.6910141874
2.290038824081421	3080603.633673815
2.2929933071136475	3057597.4471846805
2.295942783355713	3153052.195788992
2.298887014389038	3253069.5620013988
2.301826238632202	3400546.1830696813
2.304760217666626	3756902.611189408
2.3076889514923096	4325383.548551304
2.310612440109253	4783298.3654372245
2.3135311603546143	4552570.016157321
2.3164443969726562	3490204.1132936603
2.319352865219116	2524102.5900887684
2.322256088256836	2298351.9134745467
2.3251543045043945	2336375.679238767
2.328047275543213	2303485.672149166
2.330935478210449	2315804.9083031006
2.3338186740875244	2343752.6820433964
2.3366971015930176	2324900.133717852
2.3395702838897705	2294685.9803352677
2.3424389362335205	2207572.2903952817
2.3453025817871094	2058631.9423377125
2.348161458969116	2002762.4780199588
2.351015567779541	2224543.5010394217
2.353865146636963	2680438.6076505706
2.3567099571228027	3073859.560248073
2.3595502376556396	3340518.7594412053
2.3623859882354736	3572483.764019871
2.3652172088623047	3452917.1127715567
2.368043899536133	2712769.8109803097
2.370866537094116	1891877.8203874193
2.3736846446990967	1703319.2863901714
2.3764986991882324	1920762.7687192725
2.3793084621429443	2077155.3432085556
2.3821144104003906	2264205.1872789813
2.384916305541992	2637882.0769890132
2.387714147567749	2969732.924346532
2.3905084133148193	2988412.376234177
2.393299102783203	2907941.0456662523
2.3960859775543213	2938031.7214271976
2.398869514465332	3032421.2859075484
2.4016497135162354	3023937.470939876
2.4044265747070312	2951882.0970357624
2.407200336456299	3176285.325328388
2.409970998764038	3662512.068432028
2.4127390384674072	3975566.126279704
2.415503978729248	4093678.6623429614
2.418266534805298	4362879.387513113
2.4210267066955566	4607160.369697096
2.4237842559814453	4362606.7790336935
2.426539897918701	3983015.1102958457
2.429293394088745	4151251.331208868
2.4320452213287354	4647630.914987001
2.4347951412200928	4848575.256720222
2.4375438690185547	4770086.295508548
2.440291166305542	4718938.261884245
2.443037271499634	4588581.2577894535
2.445782423019409	4180473.904263346
2.4485268592834473	3672250.8566434076
2.451270818710327	3522170.8335605967
2.454014539718628	3964457.371718138
2.4567582607269287	4395230.185786654
2.4595019817352295	4332707.4909664
2.4622461795806885	4453873.914611622
2.4649908542633057	4557557.383560673
2.4677364826202393	3893723.106789259
2.4704833030700684	2980626.614188563
2.473231554031372	2308165.628613785
2.4759814739227295	1855673.0505333897
2.4787333011627197	1687350.2224390057
2.481487512588501	1902061.585779467
2.4842441082000732	2217284.7288348237
