#wavelength	surface flux
0.6450077295303345	59597.745805119506
0.6472567915916443	93569.35083052011
0.6494921445846558	121620.60940028793
0.6517150402069092	139132.4008785386
0.6539263725280762	156901.02403687054
0.6561272740364075	175575.0529022043
0.6583186388015747	195160.96614832207
0.6605015397071838	215560.8207122573
0.6626768708229065	236494.06806314772
0.6648455858230591	256163.95689733446
0.6670085787773132	261745.04306586465
0.6691668033599854	233709.9607409066
0.6713210344314575	221763.60574485487
0.6734722256660461	285400.26994239836
0.6756211519241333	366295.4853063583
0.6777685880661011	414390.10425794346
0.6799154281616211	448845.73815266567
0.6820623278617859	480549.5851893929
0.6842101216316223	511223.90970914194
0.6863595843315125	540943.1296469684
0.688511312007904	568553.3558457028
0.6906660795211792	591341.0183568526
0.6928245425224304	611342.4219501242
0.6949873566627502	637190.551298711
0.6971551775932312	666102.913597809
0.6993286609649658	689947.271919431
0.7015084028244019	710771.5873423652
0.7036949396133423	728317.5882454687
0.7058889269828796	740055.6540419133
0.7080909013748169	746918.4537282134
0.710301399230957	751004.071812939
0.712520956993103	751309.0349850286
0.7147500514984131	743621.482587606
0.7169892191886902	727506.4837680799
0.7192389369010925	705161.7426814572
0.7214996814727783	675853.802759657
0.723771870136261	640738.6829230381
0.7260559797286987	602770.8683233465
0.7283523678779602	561015.6675786232
0.7306615710258484	525933.6930897392
0.7329838871955872	502170.5532311724
0.7353196740150452	467113.97295950615
0.7376693487167358	416241.1281720844
0.7400332689285278	362756.1463591682
0.7424117922782898	309703.39535661833
0.7448052167892456	259033.22178794033
0.7472138404846191	210148.2166448822
0.7496379613876343	162793.03520362673
0.7520779371261597	119362.07148931181
0.7545340061187744	81554.49143365712
0.7570064663887024	50828.99983001513
0.7594954967498779	28119.478637764612
0.7620013952255249	13206.508972319716
0.7645244002342224	4891.094268961442
0.7670646905899048	1519.4417785822086
0.7696225643157959	1664.9567739810627
0.7721980810165405	6164.854209192466
0.7747915983200073	17624.066704174773
0.7774031162261963	35923.46286794011
0.7800329327583313	65422.899608361964
0.7826811671257019	119639.54574625667
0.7853479981422424	197392.99354475422
0.7880334854125977	285691.7236882913
0.7907378077507019	345925.5216575484
0.7934610247612	352829.519400099
0.7962033748626709	465909.8511505086
0.7989648580551147	739207.8768950343
0.801745593547821	996941.2295923855
0.8045456409454346	1206182.7072036597
0.8073651194572449	1409422.305309595
0.8102040886878967	1608123.696065434
0.8130625486373901	1843705.2330218263
0.8159406185150146	2125687.2910874183
0.8188382983207703	2436494.334092496
0.8217556476593018	2807680.692897892
0.8246926665306091	3188585.8520158986
0.8276493549346924	3512840.6731226253
0.8306257724761963	3884153.6804071865
0.8336219191551208	4377916.859123153
0.8366377949714661	4860181.0238933405
0.8396733403205872	5290107.398338419
0.8427285552024841	5773996.247535757
0.8458034992218018	6259783.836594066
0.8488980531692505	6309904.194161079
0.8520121574401855	6204503.96887137
0.8551458716392517	7203674.1038725935
0.8582990765571594	8571011.221537255
0.8614717125892639	8800358.273951393
0.8646637797355652	8805275.650208032
0.8678751587867737	9501173.712782562
0.8711057901382446	10319030.637903882
0.8743556141853333	11069346.744252136
0.87762451171875	11957418.826438606
0.8809124231338501	12751161.802332625
0.8842192888259888	13328930.239064777
0.8875449895858765	13546188.85095559
0.8908893465995789	12903653.842640258
0.894252359867096	12159392.96205404
0.8976338505744934	13729562.472238779
0.9010337591171265	17635662.835390244
0.9044519662857056	21367927.420998845
0.9078882932662964	23871561.92779304
0.9113426208496094	25174831.628386676
0.914814829826355	25318185.918811668
0.9183048605918884	25456920.074516382
0.9218124747276306	24278844.279632
0.925337553024292	19267586.029509664
0.9288799166679382	15465647.820776802
0.9324395060539246	15688414.27955324
0.9360161423683167	16262682.510444447
0.9396095871925354	15988454.89923481
0.943219780921936	15417976.079356227
0.9468464851379395	14158021.692310935
0.9504896402359009	15460784.251113966
0.9541489481925964	20919107.106103487
0.9578243494033813	22377557.03096474
0.9615156054496765	17511181.372223668
0.9652225375175476	13267026.420413218
0.9689450263977051	16428113.449599952
0.9726828336715698	24967737.933647167
0.9764357805252075	29171682.97459134
0.9802037477493286	30467610.297854614
0.983986496925354	35916241.1683441
0.9877838492393494	41134903.01607133
0.9915955662727356	41870015.6681874
0.9954215884208679	40343918.0952507
0.9992615580558777	36065016.15264668
1.0031154155731201	32270271.969865873
1.0069829225540161	34079348.27594859
1.0108637809753418	40592026.073705286
1.0147579908370972	48512788.0113658
1.018665075302124	53647875.44268129
1.022585153579712	53887227.49333229
1.0265177488327026	54617129.717865884
1.0304628610610962	60712473.60343101
1.0344202518463135	68030379.09366266
1.0383895635604858	72636184.03354208
1.0423706769943237	75530231.5253856
1.0463634729385376	77595529.59373933
1.0503677129745483	79442370.68611316
1.0543830394744873	84771599.23079038
1.058409333229065	91691382.05468358
1.0624464750289917	95466699.51656197
1.0664942264556885	97251364.86205146
1.0705522298812866	99097702.37821849
1.0746204853057861	101269682.1620234
1.0786986351013184	102395665.64319286
1.0827864408493042	103162878.01229051
1.086883783340454	96032999.15409599
1.0909905433654785	75544910.00449634
1.0951062440872192	57573141.69696056
1.0992310047149658	42389052.61100028
1.10336434841156	22927124.46392383
1.1075061559677124	13129439.789866414
1.1116561889648438	11416629.745500846
1.115814208984375	8465133.408852642
1.1199802160263062	7524486.547792883
1.124153733253479	8181209.164492452
1.1283347606658936	6793664.110808035
1.1325229406356812	5290833.206299834
1.1367181539535522	9036808.111287095
1.1409201622009277	16598054.416711647
1.145128846168518	20589489.963908877
1.1493438482284546	17283766.091399536
1.1535650491714478	11439128.910474
1.1577922105789185	8956146.496486204
1.1620250940322876	9652721.821313392
1.1662636995315552	13590671.582574205
1.170507550239563	18422945.76692369
1.174756646156311	23860293.32978517
1.1790107488632202	32446100.8583711
1.1832695007324219	36337095.43406457
1.1875330209732056	32937906.150998488
1.191800832748413	39860688.08845842
1.1960728168487549	57266277.84349461
1.2003488540649414	66931056.87985065
1.2046287059783936	69735749.77748026
1.2089121341705322	71209511.57852155
1.2131990194320679	75602657.78016466
1.2174891233444214	86025078.19656913
1.2217823266983032	94099577.72912881
1.2260783910751343	98399774.82844052
1.230377197265625	104562117.93297437
1.2346785068511963	109090164.89296518
1.238982081413269	106874838.18556555
1.2432878017425537	103215973.32635683
1.2475954294204712	103172113.71733987
1.2519049644470215	103961065.07575665
1.256216049194336	116567665.40554298
1.2605286836624146	128455804.6616982
1.2648425102233887	123575812.77190027
1.2691574096679688	124483398.34027933
1.2734732627868652	134683341.17582
1.2777899503707886	133025242.44054587
1.2821072340011597	120024879.3687533
1.2864248752593994	115886679.96676508
1.2907428741455078	117859305.07562412
1.2950609922409058	114758389.70068112
1.2993791103363037	96512645.69515245
1.303696870803833	78021323.52811955
1.3080145120620728	75919439.7079945
1.3123314380645752	79385027.08886287
1.3166478872299194	83005295.36462772
1.3209635019302368	73027946.98412402
1.3252781629562378	54222482.775696814
1.3295916318893433	37465709.89123423
1.3339040279388428	18066536.187026184
1.3382149934768677	5142772.887580715
1.3425244092941284	2198927.443724743
1.3468321561813354	1729635.2547329585
1.3511382341384888	1498114.8761820938
1.3554422855377197	1103323.9600232118
1.3597444295883179	1227318.8265512986
1.3640443086624146	1795200.513651254
1.3683418035507202	1618752.0872503703
1.3726370334625244	1168150.6049495887
1.3769296407699585	1430537.8927650093
1.381219506263733	1390216.2054671184
1.3855066299438477	789675.7924370017
1.3897908926010132	923463.6930732573
1.3940720558166504	1669444.317978652
1.3983501195907593	1546669.3913492544
1.4026249647140503	1221664.3633283537
1.4068963527679443	1466397.2656101808
1.4111642837524414	1538474.9353541113
1.4154287576675415	1490141.1045451416
1.419689416885376	1426920.8231192026
1.4239463806152344	1442518.499180729
1.4281994104385376	1124152.0106335136
1.4324485063552856	725243.8339066566
1.436693549156189	1139555.6296909656
1.440934419631958	2291255.328362594
1.4451709985733032	4219516.8009541
1.449403166770935	6266231.324776999
1.453631043434143	6203391.793263916
1.4578542709350586	5382759.991947452
1.4620729684829712	7144486.8143729
1.4662868976593018	9230495.31376099
1.4704961776733398	6724922.298658914
1.4747005701065063	3090719.417761627
1.4788999557495117	4159846.8384355754
1.4830944538116455	7961480.0853689145
1.4872838258743286	9060129.830570212
1.491468071937561	7003710.323353907
1.4956470727920532	7046196.109163482
1.4998208284378052	10475333.661733817
1.5039892196655273	11910076.634607704
1.5081522464752197	9715443.144385511
1.5123097896575928	10275545.888454413
1.5164618492126465	16866809.761586916
1.5206083059310913	24060266.17885265
1.5247491598129272	25685938.958506115
1.5288842916488647	25122771.93531324
1.5330137014389038	27825525.068543773
1.5371372699737549	30293956.82845004
1.541254997253418	30064553.373275977
1.545366883277893	32221266.43420517
1.5494728088378906	35233955.591209516
1.5535727739334106	36085966.348521605
1.5576666593551636	37952422.58842199
1.561754584312439	42255705.44011246
1.5658363103866577	47541840.302006
1.5699119567871094	50020346.69080026
1.5739814043045044	49334660.26857807
1.5780447721481323	50885322.80347444
1.582101821899414	55913458.63318241
1.5861525535583496	59998857.19585364
1.5901970863342285	58749054.14521171
1.5942351818084717	53682560.9848345
1.5982669591903687	52172914.039888866
1.6022924184799194	52423006.226265274
1.606311559677124	49307806.27513015
1.6103241443634033	48085722.284296624
1.6143304109573364	46608229.23985759
1.6183301210403442	40922212.99358976
1.6223233938217163	36970925.564014845
1.6263102293014526	35735141.646029636
1.6302905082702637	37084728.965554945
1.634264349937439	42365313.53893937
1.638231635093689	48498199.71917597
1.6421923637390137	49933225.47391743
1.646146535873413	42405122.03729043
1.6500942707061768	35017687.27225764
1.6540353298187256	36247934.40526
1.6579699516296387	38352217.9549836
1.661897897720337	35854252.00619389
1.6658192873001099	26090339.689413287
1.6697341203689575	17554304.0159379
1.6736423969268799	20600933.48233846
1.677544116973877	24957829.08008745
1.6814392805099487	24827246.4031683
1.6853278875350952	22408977.61971035
1.6892099380493164	18442725.783841763
1.6930854320526123	15161358.991983704
1.696954369544983	13189304.47058969
1.7008168697357178	12565272.552802378
1.7046726942062378	12752492.27624166
1.708522081375122	14189872.950305192
1.712364912033081	15115222.572357975
1.7162011861801147	15079287.144370096
1.7200311422348022	16600170.183620345
1.723854422569275	17026670.83367796
1.7276713848114014	14718719.307376083
1.731481909751892	12384776.638106795
1.7352858781814575	11784345.255670695
1.7390835285186768	12725888.514807094
1.7428747415542603	13062988.50455927
1.7466596364974976	10726152.746638821
1.7504380941390991	8050814.801082103
1.7542102336883545	8661947.799583782
1.7579760551452637	11589972.187092489
1.7617355585098267	14604486.135950565
1.7654887437820435	15023278.359410513
1.7692357301712036	11303855.113119977
1.7729763984680176	7155002.447584521
1.776710867881775	4461380.358331896
1.7804391384124756	3209319.8586172108
1.7841613292694092	3211649.925539591
1.7878772020339966	3412276.15664816
1.7915871143341064	5003786.019139437
1.7952908277511597	6573267.180263873
1.7989884614944458	5982764.31531151
1.8026801347732544	4448440.755705418
1.806365728378296	3360932.946506606
1.8100452423095703	2954490.644726797
1.8137187957763672	2544698.2677265974
1.817386507987976	1909400.6487968809
1.8210482597351074	3582489.0068539497
1.8247040510177612	6611610.13869768
1.828354001045227	5861890.546756978
1.8319982290267944	2896662.134312667
1.8356364965438843	2783777.47190386
1.8392690420150757	4667469.350813352
1.8428958654403687	5240304.348387661
1.8465168476104736	4342527.442351665
1.8501322269439697	3374634.9419123037
1.8537418842315674	2855533.0232986393
1.8573459386825562	2987819.390571972
1.860944390296936	2414920.317962997
1.864537239074707	1063223.2221930735
1.8681244850158691	552640.5385167528
1.871706247329712	1122738.3559732877
1.8752825260162354	2149773.74454662
1.8788533210754395	2613308.315493656
1.8824186325073242	3077426.2669955576
1.8859784603118896	5396054.720048498
1.8895330429077148	7576639.06478759
1.8930821418762207	5999140.403283272
1.8966259956359863	3815555.485780399
1.9001644849777222	3680167.042229628
1.9036977291107178	3188554.4319983087
1.9072256088256836	3808014.500341415
1.9107483625411987	4897654.276896001
1.9142658710479736	3517832.3852187013
1.9177782535552979	2694506.4602177846
1.9212853908538818	2582197.975098224
1.9247875213623047	1280041.2478058154
1.9282845258712769	707681.6315460933
1.9317764043807983	2194952.1051324634
1.9352631568908691	4939234.497120822
1.9387450218200684	5287307.887978869
1.942221760749817	2861141.551337722
1.9456936120986938	1302713.9036094097
1.9491604566574097	1133732.2685336475
1.952622413635254	1815646.3251679274
1.956079363822937	4049096.1666949345
1.959531545639038	6336496.715274096
1.962978720664978	5499813.95475954
1.966421127319336	3679692.946689325
1.9698586463928223	4151620.8907639263
1.9732913970947266	4899414.041450782
1.9767193794250488	5194570.682498714
1.9801424741744995	5743318.504174892
1.9835609197616577	5956037.789952227
1.9869745969772339	7217345.599478653
1.990383505821228	8539628.37547464
1.9937876462936401	8239382.001483846
1.9971871376037598	6790876.760342195
2.000581979751587	5317605.976256184
2.003972291946411	6410133.244626781
2.007357597351074	8471503.428418992
2.0107386112213135	9291450.471950902
2.0141148567199707	8821051.334917704
2.017486572265625	7459256.64395057
2.0208535194396973	7879720.883749198
2.0242159366607666	9571983.14039883
2.027573823928833	9787973.860133931
2.0309269428253174	9370529.943993455
2.034275770187378	10725130.001824087
2.0376198291778564	14261862.037639897
2.040959596633911	17559543.671736274
2.044294595718384	18596895.96213166
2.0476250648498535	18320625.426309668
2.0509510040283203	16786944.631328918
2.054272413253784	14829869.228234781
2.057589530944824	15562963.131158795
2.0609018802642822	18529952.477844406
2.0642096996307373	20767662.308718868
2.0675129890441895	21656216.976739224
2.0708119869232178	21702874.61889939
2.074106216430664	21186637.531374775
2.0773961544036865	21500153.71228255
2.080681324005127	22425142.492022652
2.0839622020721436	22400062.242871135
2.087238311767578	21584941.99762647
2.090510129928589	21017532.54760678
2.0937774181365967	21190889.036787994
2.0970399379730225	21187990.37066689
2.1002981662750244	20046428.775921818
2.1035518646240234	19128069.32577946
2.1068007946014404	19365939.856080804
2.1100454330444336	19616542.979713753
2.1132853031158447	19113458.59138718
2.116520881652832	17782066.838224676
2.1197516918182373	16455847.609186864
2.1229779720306396	15865774.111249652
2.12619948387146	15484533.265371004
2.1294167041778564	15365110.37002311
2.132629156112671	15672214.021220397
2.1358368396759033	15066911.43370113
2.139039993286133	13842928.67475637
2.1422386169433594	12917212.56374789
2.145432472229004	12025034.143491318
2.1486217975616455	11340712.086620806
2.151806354522705	10549021.080762476
2.1549863815307617	10449024.389027
2.1581614017486572	11295790.947085815
2.16133189201355	11740586.917556565
2.1644976139068604	11467339.986425072
2.167658567428589	10342935.235367583
2.1708147525787354	9249603.444784686
2.173966407775879	9382882.600821875
2.1771130561828613	10092954.188302979
2.1802549362182617	9995695.252717087
2.183391809463501	8933481.405290162
2.1865241527557373	7917206.817595108
2.1896514892578125	7223322.125964235
2.1927738189697266	6129612.499546441
2.1958916187286377	4266862.774077572
2.1990041732788086	2422712.809113699
2.2021119594573975	1550861.2670258426
2.2052149772644043	1552518.2125385238
2.208312749862671	1903026.794593099
2.2114057540893555	2502973.22063487
2.214493751525879	2993047.672164436
2.217576742172241	2733579.951085864
2.2206547260284424	2157592.9925477374
2.2237277030944824	1816013.9991299207
2.2267956733703613	1485535.7315287404
2.2298583984375	1203226.7520590457
2.2329163551330566	1119462.5733595307
2.235969066619873	1195509.5269948891
2.2390167713165283	1210390.1089026455
2.2420592308044434	1052382.1499557327
2.2450966835021973	896301.1727743661
2.248128890991211	856774.5412005472
2.2511560916900635	919642.7660095892
2.254178285598755	1156774.874549642
2.257194995880127	1610125.9532545183
2.260206699371338	1632090.275840763
2.2632133960723877	997817.9704252802
2.266214609146118	707116.7786102263
2.2692108154296875	1157316.4101993793
2.2722020149230957	1616643.0464591766
2.2751877307891846	1536824.315019892
2.278168201446533	1270201.724625671
2.2811436653137207	1222717.9365450868
2.284113883972168	1177027.0532676666
2.287078857421875	943353.9735703293
2.290038824081421	753379.3554674538
2.2929933071136475	750918.7246531805
2.295942783355713	790921.7644061636
2.298887014389038	855427.861190969
2.301826238632202	1058576.7472397876
2.304760217666626	1468747.1027692708
2.3076889514923096	2052500.2406618688
2.310612440109253	2697236.417613735
2.3135311603546143	3249077.562507663
2.3164443969726562	2990973.7529115705
2.319352865219116	1718935.3837301498
2.322256088256836	759519.3184924708
2.3251543045043945	588759.8222790528
2.328047275543213	571134.7180864593
2.330935478210449	534477.0514509368
2.3338186740875244	475256.1780784853
2.3366971015930176	398123.15391586686
2.3395702838897705	347690.01264678244
2.3424389362335205	327905.736048683
2.3453025817871094	311940.49231021455
2.348161458969116	305349.2294840467
2.351015567779541	439912.56868875085
2.353865146636963	859648.568519071
2.3567099571228027	1420414.4473708225
2.3595502376556396	1810293.1995793758
2.3623859882354736	1784946.4987789695
2.3652172088623047	1277627.2022842932
2.368043899536133	657802.6786950984
2.370866537094116	337238.72262974805
2.3736846446990967	307436.02491632575
2.3764986991882324	350249.12904645543
2.3793084621429443	382225.2478881874
2.3821144104003906	484302.19246598915
2.384916305541992	672396.0819715194
2.387714147567749	786801.9894525621
2.3905084133148193	725386.8819967331
2.393299102783203	623115.7995986324
2.3960859775543213	555328.3152104757
2.398869514465332	563955.4395972367
2.4016497135162354	756777.1124475382
2.4044265747070312	1126039.9940445602
2.407200336456299	1411182.4111278642
2.409970998764038	1402082.0905324197
2.4127390384674072	1284180.0273142578
2.415503978729248	1292723.7332913172
2.418266534805298	1428346.9009310412
2.4210267066955566	1517414.2800497126
2.4237842559814453	1428502.4096239044
2.426539897918701	1401479.0583364905
2.429293394088745	1722474.6049213957
2.4320452213287354	2048720.7552731459
2.4347951412200928	1959327.2323212596
2.4375438690185547	1748641.3766246827
2.440291166305542	1754044.732525539
2.443037271499634	1784375.6995635948
2.445782423019409	1740652.949065866
2.4485268592834473	1795927.403980475
2.451270818710327	1951301.045721366
2.454014539718628	2095224.5733551788
2.4567582607269287	2158020.765900243
2.4595019817352295	2204638.314517696
2.4622461795806885	2531005.904360274
2.4649908542633057	2954875.8581963107
2.4677364826202393	2853755.955014111
2.4704833030700684	2185256.290815885
2.473231554031372	1438936.210844929
2.4759814739227295	967876.7862008795
2.4787333011627197	760921.7214554687
2.481487512588501	689106.6033491933
