#wavelength	surface flux
0.6450077295303345	3207.949261944485
0.6472567915916443	5002.308834479058
0.6494921445846558	6430.015980533425
0.6517150402069092	7275.066292553365
0.6539263725280762	8135.091535172978
0.6561272740364075	9045.961102357938
0.6583186388015747	10017.584171138773
0.6605015397071838	11063.105131982933
0.6626768708229065	12189.210283983213
0.6648455858230591	13387.4347522803
0.6670085787773132	14449.000007316157
0.6691668033599854	14925.656165710634
0.6713210344314575	15732.375611187152
0.6734722256660461	17947.78275036341
0.6756211519241333	20355.97623312318
0.6777685880661011	22173.34392622609
0.6799154281616211	23880.140704928774
0.6820623278617859	25614.523460992008
0.6842101216316223	27378.942915169526
0.6863595843315125	29158.618304199153
0.688511312007904	30904.00110295704
0.6906660795211792	32473.912953997904
0.6928245425224304	33902.06009643882
0.6949873566627502	35580.946667598386
0.6971551775932312	37429.780695103575
0.6993286609649658	39051.92917639156
0.7015084028244019	40517.26270872017
0.7036949396133423	41850.96205977166
0.7058889269828796	42925.99738527816
0.7080909013748169	43744.802591902146
0.710301399230957	44389.26870581449
0.712520956993103	44787.30415443207
0.7147500514984131	44666.46128698414
0.7169892191886902	44013.63847662858
0.7192389369010925	43127.08993732482
0.7214996814727783	41990.46480738836
0.723771870136261	40292.51738474048
0.7260559797286987	38166.1839610301
0.7283523678779602	35905.88883952735
0.7306615710258484	34033.28997055204
0.7329838871955872	32652.36524016028
0.7353196740150452	30680.126445174534
0.7376693487167358	27968.477380485427
0.7400332689285278	25132.823053774206
0.7424117922782898	22281.349528324427
0.7448052167892456	19524.10930925392
0.7472138404846191	16847.95966347493
0.7496379613876343	14218.780720112336
0.7520779371261597	11716.256033789095
0.7545340061187744	9377.76970023721
0.7570064663887024	7216.0374651665015
0.7594954967498779	5221.040391240546
0.7620013952255249	3360.0477369846158
0.7645244002342224	1747.2161282461961
0.7670646905899048	787.5621575998119
0.7696225643157959	833.7291723877948
0.7721980810165405	2112.5967175027463
0.7747915983200073	4492.735624277168
0.7774031162261963	7292.319685878487
0.7800329327583313	10518.961683572858
0.7826811671257019	15164.919685274706
0.7853479981422424	21195.56110168721
0.7880334854125977	27831.05213778735
0.7907378077507019	32741.60822826096
0.7934610247612	34265.389016053574
0.7962033748626709	42925.59370478377
0.7989648580551147	62643.843157874544
0.801745593547821	82035.6670271968
0.8045456409454346	98965.27774113121
0.8073651194572449	116343.61399508914
0.8102040886878967	133966.68915069653
0.8130625486373901	154727.02569529004
0.8159406185150146	181474.0986381066
0.8188382983207703	212790.04726513097
0.8217556476593018	247135.78532443385
0.8246926665306091	283261.83601118595
0.8276493549346924	320031.85613884917
0.8306257724761963	360982.9693637598
0.8336219191551208	409612.2529904714
0.8366377949714661	461449.5314637248
0.8396733403205872	516171.6391386306
0.8427285552024841	578921.1547360629
0.8458034992218018	643418.6564549692
0.8488980531692505	675742.0828456222
0.8520121574401855	697605.9047551965
0.8551458716392517	812312.6218218246
0.8582990765571594	982256.8313004712
0.8614717125892639	1114391.3553118655
0.8646637797355652	1232571.1887831509
0.8678751587867737	1363561.4609731783
0.8711057901382446	1507303.1621653994
0.8743556141853333	1657156.323803098
0.87762451171875	1805189.408514433
0.8809124231338501	1941327.272701802
0.8842192888259888	2069328.7092296851
0.8875449895858765	2173456.0573077425
0.8908893465995789	2127785.0180631643
0.894252359867096	2000199.1416127125
0.8976338505744934	2260829.9753862997
0.9010337591171265	2903973.4892097837
0.9044519662857056	3455044.8778872015
0.9078882932662964	3806323.4043131536
0.9113426208496094	4046533.9558109576
0.914814829826355	4214605.595173843
0.9183048605918884	4412613.454036472
0.9218124747276306	4480363.045876518
0.925337553024292	3856738.5538019673
0.9288799166679382	2908803.0024313293
0.9324395060539246	2625198.63624495
0.9360161423683167	3019231.6496356083
0.9396095871925354	3492774.546437997
0.943219780921936	3473420.8926839335
0.9468464851379395	2992292.9722821605
0.9504896402359009	3185206.650880699
0.9541489481925964	4281593.903171843
0.9578243494033813	4749605.92505712
0.9615156054496765	4061527.1211411613
0.9652225375175476	3518617.177950898
0.9689450263977051	4510800.942313998
0.9726828336715698	6393973.5326467585
0.9764357805252075	7440836.099759251
0.9802037477493286	7989354.789829132
0.983986496925354	9037206.719327368
0.9877838492393494	10220226.064737745
0.9915955662727356	11185247.404955747
0.9954215884208679	11978587.085507488
0.9992615580558777	12461105.09433983
1.0031154155731201	12879869.646095686
1.0069829225540161	13788994.652537143
1.0108637809753418	15095148.68066409
1.0147579908370972	16368846.828343883
1.018665075302124	17327740.82010516
1.022585153579712	17893112.417537317
1.0265177488327026	18409300.12876895
1.0304628610610962	19217746.50217643
1.0344202518463135	20188967.675296858
1.0383895635604858	21024106.965106543
1.0423706769943237	21642191.215568345
1.0463634729385376	22053156.67331523
1.0503677129745483	22444846.553913906
1.0543830394744873	23100253.25873307
1.058409333229065	23878365.455188803
1.0624464750289917	24435521.629724737
1.0664942264556885	24515682.963614225
1.0705522298812866	24343234.078474917
1.0746204853057861	24378548.32236473
1.0786986351013184	24423499.8438758
1.0827864408493042	24400211.207690217
1.086883783340454	23555327.754222553
1.0909905433654785	20840776.599866636
1.0951062440872192	17236452.535805624
1.0992310047149658	12641309.225871582
1.10336434841156	7450084.003454727
1.1075061559677124	4671495.459451926
1.1116561889648438	3656751.5459911143
1.115814208984375	2755844.728772226
1.1199802160263062	2644809.9880919526
1.124153733253479	3003761.9506260343
1.1283347606658936	2898006.961160866
1.1325229406356812	2475045.767380158
1.1367181539535522	3532361.25620132
1.1409201622009277	5645487.5548721375
1.145128846168518	6399358.344108872
1.1493438482284546	5254616.59358981
1.1535650491714478	3324272.676634084
1.1577922105789185	2476192.761246013
1.1620250940322876	2975503.9260260155
1.1662636995315552	4346105.014699776
1.170507550239563	6185624.926339162
1.174756646156311	8521256.005965605
1.1790107488632202	11515665.66700607
1.1832695007324219	13542844.78441183
1.1875330209732056	14210952.736417303
1.191800832748413	16959460.262936387
1.1960728168487549	21713807.932154413
1.2003488540649414	24799068.906033292
1.2046287059783936	26457860.982146986
1.2089121341705322	27522397.652950265
1.2131990194320679	28572832.630932968
1.2174891233444214	30580344.054203194
1.2217823266983032	32638006.386186257
1.2260783910751343	34242144.56017402
1.230377197265625	35783233.807723105
1.2346785068511963	37116646.26242736
1.238982081413269	38192036.52057101
1.2432878017425537	39235693.88628339
1.2475954294204712	40180009.0219305
1.2519049644470215	41035765.942344844
1.256216049194336	42818973.78878882
1.2605286836624146	44487921.60085344
1.2648425102233887	44874053.43661326
1.2691574096679688	45721512.32184957
1.2734732627868652	47247611.34588642
1.2777899503707886	47038866.842874855
1.2821072340011597	45058381.29089622
1.2864248752593994	43796412.372994654
1.2907428741455078	42968748.73722642
1.2950609922409058	41353263.16141661
1.2993791103363037	37383920.72527329
1.303696870803833	34239793.959938996
1.3080145120620728	34058840.1741864
1.3123314380645752	34387906.98485573
1.3166478872299194	35117299.489282764
1.3209635019302368	32140883.383466184
1.3252781629562378	25030477.98767921
1.3295916318893433	16440498.191850226
1.3339040279388428	7341126.17096629
1.3382149934768677	1944327.9099271414
1.3425244092941284	608251.0910382997
1.3468321561813354	374987.58051509206
1.3511382341384888	278181.3302797523
1.3554422855377197	193744.51385352673
1.3597444295883179	224976.03589457145
1.3640443086624146	339568.4300582765
1.3683418035507202	349673.9558209455
1.3726370334625244	309178.1568690855
1.3769296407699585	352397.92857034836
1.381219506263733	299760.83164139953
1.3855066299438477	169684.12151230406
1.3897908926010132	175259.73139769436
1.3940720558166504	253565.66256321836
1.3983501195907593	251956.88320108058
1.4026249647140503	279263.85838220746
1.4068963527679443	335041.03945885564
1.4111642837524414	282218.5240645989
1.4154287576675415	237393.05625563423
1.419689416885376	234629.38799210536
1.4239463806152344	226092.83588016243
1.4281994104385376	201321.71049444683
1.4324485063552856	204954.80897506129
1.436693549156189	360013.75639485125
1.440934419631958	701197.5551208616
1.4451709985733032	1337639.0721271243
1.449403166770935	2147984.7202707613
1.453631043434143	2432075.0120029026
1.4578542709350586	2507228.6808159347
1.4620729684829712	3055006.8669907195
1.4662868976593018	3275869.821780839
1.4704961776733398	2183660.02137436
1.4747005701065063	1016798.176272218
1.4788999557495117	1241470.2455863776
1.4830944538116455	2117314.5159838703
1.4872838258743286	2250333.0428441907
1.491468071937561	1659282.7000347115
1.4956470727920532	1973559.7839376628
1.4998208284378052	3760011.641955003
1.5039892196655273	4863836.742056323
1.5081522464752197	4100612.0265081837
1.5123097896575928	3592783.519262434
1.5164618492126465	4826169.278684543
1.5206083059310913	7290866.334749332
1.5247491598129272	9639857.185470866
1.5288842916488647	10833716.609341778
1.5330137014389038	11163558.968239142
1.5371372699737549	11635570.802755304
1.541254997253418	12317308.817414997
1.545366883277893	12990618.323242698
1.5494728088378906	14107341.880838064
1.5535727739334106	16232187.907888476
1.5576666593551636	18726581.558952264
1.561754584312439	20969076.870988753
1.5658363103866577	22857370.878886
1.5699119567871094	23647191.93842785
1.5739814043045044	23397619.318872485
1.5780447721481323	23288500.73709815
1.582101821899414	23873543.301139966
1.5861525535583496	24395800.63989296
1.5901970863342285	24030054.99349676
1.5942351818084717	22808723.679946747
1.5982669591903687	21700885.495589
1.6022924184799194	20629420.603396833
1.606311559677124	19332305.737916857
1.6103241443634033	18573689.748379394
1.6143304109573364	17316478.775412392
1.6183301210403442	15164644.439711692
1.6223233938217163	13415775.292211888
1.6263102293014526	12232129.231293576
1.6302905082702637	12148979.370720878
1.634264349937439	13598081.308160676
1.638231635093689	15238584.480563873
1.6421923637390137	15112633.699058685
1.646146535873413	12321146.4308514
1.6500942707061768	10216395.541568067
1.6540353298187256	11087638.11417005
1.6579699516296387	11919720.934153704
1.661897897720337	10865563.267005125
1.6658192873001099	7636968.5346395075
1.6697341203689575	5263133.599884055
1.6736423969268799	6143337.956145253
1.677544116973877	7000737.212984627
1.6814392805099487	6732144.732161372
1.6853278875350952	6079300.843712637
1.6892099380493164	5236277.703826873
1.6930854320526123	4664440.929483498
1.696954369544983	4052564.0896797967
1.7008168697357178	3577235.202526269
1.7046726942062378	3524493.281611869
1.708522081375122	4084152.9588895068
1.712364912033081	4707223.475647429
1.7162011861801147	4908602.415180917
1.7200311422348022	5284671.820353466
1.723854422569275	5315512.491964549
1.7276713848114014	4663744.312164057
1.731481909751892	4109896.2857232955
1.7352858781814575	3839062.818759136
1.7390835285186768	3920266.9949570983
1.7428747415542603	4080889.443093031
1.7466596364974976	3580493.2830726574
1.7504380941390991	2887233.944542099
1.7542102336883545	2949224.7360553187
1.7579760551452637	3527139.478114874
1.7617355585098267	3752844.611158711
1.7654887437820435	3307834.0970046176
1.7692357301712036	2396577.036250696
1.7729763984680176	1493259.7809433104
1.776710867881775	993991.6380816398
1.7804391384124756	947947.2368738272
1.7841613292694092	992736.721178167
1.7878772020339966	1005897.9972492368
1.7915871143341064	1315679.8239212318
1.7952908277511597	1530880.4379787636
1.7989884614944458	1289882.4911998983
1.8026801347732544	877942.4183362632
1.806365728378296	645681.4076396986
1.8100452423095703	568178.305676039
1.8137187957763672	436124.94540063065
1.817386507987976	287388.8691761447
1.8210482597351074	424944.6710948975
1.8247040510177612	771884.5652116925
1.828354001045227	802420.1706297628
1.8319982290267944	539393.2562372343
1.8356364965438843	504772.9810632033
1.8392690420150757	830746.0115934247
1.8428958654403687	1164688.376760484
1.8465168476104736	1168193.9011004092
1.8501322269439697	901101.6414474811
1.8537418842315674	699040.1968028238
1.8573459386825562	708891.6840625303
1.860944390296936	581518.4680902568
1.864537239074707	285026.07213152276
1.8681244850158691	148518.63658006783
1.871706247329712	232568.08260934197
1.8752825260162354	500836.071100668
1.8788533210754395	783761.7772336386
1.8824186325073242	972836.9818610506
1.8859784603118896	1234313.5364085075
1.8895330429077148	1466180.4835792151
1.8930821418762207	1245479.9074667909
1.8966259956359863	828223.3276773837
1.9001644849777222	600398.7322181519
1.9036977291107178	455623.2452484906
1.9072256088256836	600129.7361804079
1.9107483625411987	784804.5961367583
1.9142658710479736	505466.43755958957
1.9177782535552979	256899.65087522523
1.9212853908538818	223403.29024706577
1.9247875213623047	135497.42859733044
1.9282845258712769	123148.41293039241
1.9317764043807983	243668.10964343522
1.9352631568908691	400745.8169335837
1.9387450218200684	430051.40466316685
1.942221760749817	345883.0315708573
1.9456936120986938	282696.7434780866
1.9491604566574097	244633.28499765368
1.952622413635254	199492.66596522904
1.956079363822937	205704.4329456147
1.959531545639038	419238.90746919124
1.962978720664978	598786.7112565223
1.966421127319336	517905.92514192435
1.9698586463928223	441468.07232564804
1.9732913970947266	503574.42164919083
1.9767193794250488	627305.6908546021
1.9801424741744995	812561.529127924
1.9835609197616577	948204.38862853
1.9869745969772339	1066949.4130962605
1.990383505821228	1254299.4010951058
1.9937876462936401	1285285.6638961749
1.9971871376037598	941920.7586860885
2.000581979751587	648293.9481750014
2.003972291946411	922916.4343099243
2.007357597351074	1512568.133254471
2.0107386112213135	1956867.410583418
2.0141148567199707	2012396.1753136325
2.017486572265625	1668749.7093899732
2.0208535194396973	1131659.0298809547
2.0242159366607666	762995.410352715
2.027573823928833	786995.0073027862
2.0309269428253174	977913.9620851193
2.034275770187378	1463396.487258513
2.0376198291778564	2306034.7138175825
2.040959596633911	2802977.100490847
2.044294595718384	2920401.952940043
2.0476250648498535	2936702.059732883
2.0509510040283203	2801264.185458542
2.054272413253784	2747417.5578969102
2.057589530944824	2905298.7811402814
2.0609018802642822	3097111.0366730453
2.0642096996307373	3191396.949578632
2.0675129890441895	3178795.4142119763
2.0708119869232178	3096376.9692268902
2.074106216430664	3032548.27495864
2.0773961544036865	3057927.432697127
2.080681324005127	3103532.6956261043
2.0839622020721436	3099407.930467042
2.087238311767578	3074420.5001474507
2.090510129928589	3057336.2930118833
2.0937774181365967	3043618.8995260126
2.0970399379730225	3003481.184160742
2.1002981662750244	2921465.4195914706
2.1035518646240234	2862965.078034933
2.1068007946014404	2860821.810409773
2.1100454330444336	2857745.240706397
2.1132853031158447	2806228.2250833097
2.116520881652832	2694909.469380151
2.1197516918182373	2578813.902571918
2.1229779720306396	2503659.083805943
2.12619948387146	2444253.261015413
2.1294167041778564	2417508.4019808155
2.132629156112671	2404753.2901201043
2.1358368396759033	2275868.920025676
2.139039993286133	2121233.5723711695
2.1422386169433594	2061860.8721387275
2.145432472229004	2031558.9699936525
2.1486217975616455	1974702.7895844264
2.151806354522705	1847540.1019408957
2.1549863815307617	1804061.9220727475
2.1581614017486572	1889139.9212151482
2.16133189201355	1921948.0981489539
2.1644976139068604	1846210.3974763998
2.167658567428589	1683648.23690184
2.1708147525787354	1598801.908131078
2.173966407775879	1700658.7211363474
2.1771130561828613	1832430.5070223394
2.1802549362182617	1778557.105285184
2.183391809463501	1516826.6439659386
2.1865241527557373	1242226.7398990775
2.1896514892578125	1096376.2428092745
2.1927738189697266	953469.8206516155
2.1958916187286377	691763.53257125
2.1990041732788086	445585.2289526883
2.2021119594573975	336003.654299156
2.2052149772644043	359228.1300562642
2.208312749862671	486046.72567582823
2.2114057540893555	657180.0174305459
2.214493751525879	757138.1370737643
2.217576742172241	640774.1583930571
2.2206547260284424	402448.4922030311
2.2237277030944824	257968.04130263624
2.2267956733703613	218463.058861822
2.2298583984375	224942.75769912527
2.2329163551330566	237976.56923762447
2.235969066619873	254911.8386644037
2.2390167713165283	257629.68565084573
2.2420592308044434	225955.29582761458
2.2450966835021973	186961.31737866538
2.248128890991211	172934.71216432235
2.2511560916900635	193231.62656759663
2.254178285598755	240669.09016002173
2.257194995880127	302038.0482430166
2.260206699371338	282168.75262281136
2.2632133960723877	171108.78043630082
2.266214609146118	139813.56161660497
2.2692108154296875	259727.69516497958
2.2722020149230957	381591.8836815692
2.2751877307891846	361864.72103306756
2.278168201446533	289686.9520672285
2.2811436653137207	292343.53307908436
2.284113883972168	309471.51283713133
2.287078857421875	252129.63178938287
2.290038824081421	183605.63429590643
2.2929933071136475	169272.77220135555
2.295942783355713	161126.30932014983
2.298887014389038	129162.71877584374
2.301826238632202	114281.93311143683
2.304760217666626	208659.2320176343
2.3076889514923096	427676.50110626785
2.310612440109253	636966.1631867093
2.3135311603546143	729608.356439554
2.3164443969726562	615964.9976676228
2.319352865219116	332045.2831478284
2.322256088256836	150625.3472400816
2.3251543045043945	136255.1829462282
2.328047275543213	139841.5534298427
2.330935478210449	125117.95357027781
2.3338186740875244	103322.3607866356
2.3366971015930176	80475.00578518827
2.3395702838897705	64226.06833204267
2.3424389362335205	51837.73753841302
2.3453025817871094	42308.40897000322
2.348161458969116	44322.143459313986
2.351015567779541	89723.6824595002
2.353865146636963	215442.55710505068
2.3567099571228027	381020.4446003741
2.3595502376556396	492966.5876540921
2.3623859882354736	479249.2885108911
2.3652172088623047	326454.68655595894
2.368043899536133	148758.42425809155
2.370866537094116	62100.63992513555
2.3736846446990967	54349.4913197374
2.3764986991882324	64694.13190504847
2.3793084621429443	77711.07367765161
2.3821144104003906	117328.37675157964
2.384916305541992	176869.9518894237
2.387714147567749	202200.64814032943
2.3905084133148193	175886.29547246295
2.393299102783203	146214.22997256642
2.3960859775543213	126946.04145668115
2.398869514465332	128631.38417949452
2.4016497135162354	190526.2919992483
2.4044265747070312	316291.14120514307
2.407200336456299	424286.9944187779
2.409970998764038	432072.7133621053
2.4127390384674072	390003.84572454053
2.415503978729248	392451.7305797986
2.418266534805298	451268.8577756891
2.4210267066955566	495619.3256991256
2.4237842559814453	467772.7736458292
2.426539897918701	449086.2083666505
2.429293394088745	546400.4913236748
2.4320452213287354	659475.3128099513
2.4347951412200928	651071.7809952889
2.4375438690185547	618845.3540997879
2.440291166305542	669230.2762904445
2.443037271499634	691855.7523169473
2.445782423019409	638457.045956817
2.4485268592834473	626812.5003627603
2.451270818710327	714552.724380244
2.454014539718628	830334.5772260957
2.4567582607269287	879346.8469499294
2.4595019817352295	893413.118578699
2.4622461795806885	983158.9787120393
2.4649908542633057	1116467.3831351586
2.4677364826202393	1128837.0910931143
2.4704833030700684	950941.2901815153
2.473231554031372	686181.6102766951
2.4759814739227295	475782.6248560887
2.4787333011627197	355828.83195223566
