#wavelength	surface flux
0.6450077295303345	282438.27406202274
0.6472567915916443	425808.10159503605
0.6494921445846558	513397.64414664544
0.6517150402069092	537297.920592998
0.6539263725280762	557146.670844205
0.6561272740364075	576609.7282587364
0.6583186388015747	596475.6639224776
0.6605015397071838	616764.6092635845
0.6626768708229065	636496.6455779508
0.6648455858230591	655596.2093226362
0.6670085787773132	660256.4192308999
0.6691668033599854	622567.1223942451
0.6713210344314575	606280.4557895102
0.6734722256660461	677588.4102550832
0.6756211519241333	754199.0455298238
0.6777685880661011	788748.3423063166
0.6799154281616211	812302.0872575718
0.6820623278617859	835944.0989887319
0.6842101216316223	861834.2400670937
0.6863595843315125	887157.0309517771
0.688511312007904	910225.5730444064
0.6906660795211792	930312.0411611195
0.6928245425224304	952402.2048328207
0.6949873566627502	981765.1222071124
0.6971551775932312	1012299.0991446133
0.6993286609649658	1039380.863396454
0.7015084028244019	1065298.7324179113
0.7036949396133423	1092300.7474098832
0.7058889269828796	1120493.2619425973
0.7080909013748169	1148137.31254253
0.710301399230957	1175756.6362160882
0.712520956993103	1203638.367185109
0.7147500514984131	1228650.8075353089
0.7169892191886902	1251329.301188332
0.7192389369010925	1277677.5935895192
0.7214996814727783	1306046.457745906
0.723771870136261	1331815.7656196314
0.7260559797286987	1356492.5969144325
0.7283523678779602	1380542.3593015794
0.7306615710258484	1404706.5908696426
0.7329838871955872	1430086.3449129607
0.7353196740150452	1453183.5434260431
0.7376693487167358	1472578.6956895425
0.7400332689285278	1487314.068849349
0.7424117922782898	1493122.493505018
0.7448052167892456	1488762.0775142957
0.7472138404846191	1470156.1343927747
0.7496379613876343	1428535.1449252353
0.7520779371261597	1352953.080781566
0.7545340061187744	1228000.0436587038
0.7570064663887024	1035755.5423756622
0.7594954967498779	767245.5847964435
0.7620013952255249	452112.37424679426
0.7645244002342224	183176.33288594504
0.7670646905899048	47881.90124158351
0.7696225643157959	54358.61907322532
0.7721980810165405	224203.23311379476
0.7747915983200073	564615.2677594799
0.7774031162261963	937642.8390945713
0.7800329327583313	1255010.082926297
0.7826811671257019	1584377.3888508207
0.7853479981422424	1890227.6650621442
0.7880334854125977	2098013.0501689306
0.7907378077507019	2132210.3180040657
0.7934610247612	1929114.255544363
0.7962033748626709	1982292.4360381432
0.7989648580551147	2429840.1527439645
0.801745593547821	2730895.3077364927
0.8045456409454346	2840522.4437500853
0.8073651194572449	2926286.437674039
0.8102040886878967	2997662.5663132793
0.8130625486373901	3074942.9993933723
0.8159406185150146	3172594.3091262355
0.8188382983207703	3270997.5937587237
0.8217556476593018	3361555.6237840275
0.8246926665306091	3455260.7869253876
0.8276493549346924	3547607.7190066455
0.8306257724761963	3634285.2306956123
0.8336219191551208	3722217.787948661
0.8366377949714661	3808826.2331175567
0.8396733403205872	3904766.076439002
0.8427285552024841	4019497.1900771903
0.8458034992218018	4132400.881261807
0.8488980531692505	4228289.480133028
0.8520121574401855	4320975.292069038
0.8551458716392517	4436461.141883327
0.8582990765571594	4542248.694026772
0.8614717125892639	4586951.940049367
0.8646637797355652	4643639.107344799
0.8678751587867737	4771514.710974789
0.8711057901382446	4907223.440784113
0.8743556141853333	5024554.210666571
0.87762451171875	5131625.627506947
0.8809124231338501	5235494.941104422
0.8842192888259888	5356380.946198565
0.8875449895858765	5463605.311551172
0.8908893465995789	5519557.731296974
0.894252359867096	5592086.017010577
0.8976338505744934	5757056.970533965
0.9010337591171265	5961055.739680892
0.9044519662857056	6139650.154560892
0.9078882932662964	6293197.161813384
0.9113426208496094	6423087.517716818
0.914814829826355	6515063.375580044
0.9183048605918884	6613107.358871674
0.9218124747276306	6703014.352640278
0.925337553024292	6535916.796889558
0.9288799166679382	6145062.671043842
0.9324395060539246	6044747.429431397
0.9360161423683167	6340102.304876171
0.9396095871925354	6685922.73667112
0.943219780921936	6785991.935012472
0.9468464851379395	6770608.581022642
0.9504896402359009	6936219.13448581
0.9541489481925964	7196018.180379753
0.9578243494033813	7286611.607438126
0.9615156054496765	7168170.452092846
0.9652225375175476	7163587.878849391
0.9689450263977051	7483312.61271657
0.9726828336715698	8031031.293357047
0.9764357805252075	8468406.954010922
0.9802037477493286	8725447.565769948
0.983986496925354	8970504.42614043
0.9877838492393494	9230367.520640796
0.9915955662727356	9505377.670181064
0.9954215884208679	9755917.265530737
0.9992615580558777	9959113.18457862
1.0031154155731201	10147269.475927962
1.0069829225540161	10381984.804793118
1.0108637809753418	10659114.604425075
1.0147579908370972	10939396.945426382
1.018665075302124	11181316.478437684
1.022585153579712	11345514.907234954
1.0265177488327026	11473026.399635324
1.0304628610610962	11671287.973148428
1.0344202518463135	11972657.86441872
1.0383895635604858	12262102.329690589
1.0423706769943237	12486145.625051819
1.0463634729385376	12684650.129741386
1.0503677129745483	12876797.562349705
1.0543830394744873	13099123.144353233
1.058409333229065	13335942.004729884
1.0624464750289917	13550933.21098912
1.0664942264556885	13750695.77602501
1.0705522298812866	13948330.807001697
1.0746204853057861	14162080.225841248
1.0786986351013184	14385474.676297707
1.0827864408493042	14592584.442894448
1.086883783340454	14728031.917672722
1.0909905433654785	14751569.16862389
1.0951062440872192	14615133.550367683
1.0992310047149658	13869113.785872007
1.10336434841156	12660263.386700423
1.1075061559677124	12204096.414030468
1.1116561889648438	12199858.773164218
1.115814208984375	11870747.795905845
1.1199802160263062	11704555.728209302
1.124153733253479	12088193.086679954
1.1283347606658936	12402439.114811726
1.1325229406356812	11895391.09203166
1.1367181539535522	12144677.1657718
1.1409201622009277	13567358.537546609
1.145128846168518	14423575.791312257
1.1493438482284546	13682166.089418314
1.1535650491714478	11969760.599139042
1.1577922105789185	11408389.767141864
1.1620250940322876	12354244.410453128
1.1662636995315552	13747221.328359552
1.170507550239563	14687038.798716497
1.174756646156311	15609565.715815037
1.1790107488632202	16968382.206226073
1.1832695007324219	18037183.681489423
1.1875330209732056	18641771.14758425
1.191800832748413	19187338.312374596
1.1960728168487549	19829663.98771924
1.2003488540649414	20283293.8326071
1.2046287059783936	20543972.096833795
1.2089121341705322	20810290.275078386
1.2131990194320679	21158989.125229403
1.2174891233444214	21572906.950410716
1.2217823266983032	21970995.65890541
1.2260783910751343	22314423.943536475
1.230377197265625	22611837.52912636
1.2346785068511963	22883851.86902357
1.238982081413269	23171015.10930477
1.2432878017425537	23439602.605665915
1.2475954294204712	23610303.71292453
1.2519049644470215	23727978.251928955
1.256216049194336	24017884.29092199
1.2605286836624146	24354178.27766953
1.2648425102233887	24546805.65220709
1.2691574096679688	24709804.257908408
1.2734732627868652	24900443.022862118
1.2777899503707886	25092753.73917351
1.2821072340011597	25238062.49184201
1.2864248752593994	25287478.335518714
1.2907428741455078	25243482.899415318
1.2950609922409058	25326426.608403895
1.2993791103363037	25441337.684267674
1.303696870803833	25388459.53538263
1.3080145120620728	25443740.404351074
1.3123314380645752	25724366.420683485
1.3166478872299194	26042932.261247016
1.3209635019302368	25784396.660588145
1.3252781629562378	24505716.038893677
1.3295916318893433	21486385.548389103
1.3339040279388428	15774446.698970944
1.3382149934768677	9234281.186174408
1.3425244092941284	6005584.308809719
1.3468321561813354	6171961.375878631
1.3511382341384888	5589521.56562042
1.3554422855377197	4245214.89163398
1.3597444295883179	3967506.9443128197
1.3640443086624146	4419558.583415916
1.3683418035507202	5506552.794882634
1.3726370334625244	8016830.624116206
1.3769296407699585	10336825.762573743
1.381219506263733	8343541.045286108
1.3855066299438477	4527651.380512651
1.3897908926010132	3276539.359313439
1.3940720558166504	3526511.377105024
1.3983501195907593	4158062.0302319736
1.4026249647140503	6101760.503655639
1.4068963527679443	7709573.027862879
1.4111642837524414	6324872.312974859
1.4154287576675415	5090176.52085212
1.419689416885376	5245397.850167919
1.4239463806152344	5151939.309055471
1.4281994104385376	5941996.721678366
1.4324485063552856	6530634.814671938
1.436693549156189	6473534.489300346
1.440934419631958	7502683.288658997
1.4451709985733032	9944062.70432812
1.449403166770935	13123645.142176932
1.453631043434143	15158017.45372393
1.4578542709350586	16101367.943804113
1.4620729684829712	17168129.56054867
1.4662868976593018	17372672.214388665
1.4704961776733398	16691988.198026422
1.4747005701065063	16593209.801128427
1.4788999557495117	17416429.02416044
1.4830944538116455	19280445.731720906
1.4872838258743286	21209950.800932955
1.491468071937561	21753982.31375261
1.4956470727920532	21787839.083148535
1.4998208284378052	22962504.606873184
1.5039892196655273	24493321.420600336
1.5081522464752197	24833518.881555688
1.5123097896575928	25205091.04705689
1.5164618492126465	26643771.388730217
1.5206083059310913	28711218.649926834
1.5247491598129272	30152039.851053897
1.5288842916488647	30374895.181698024
1.5330137014389038	30831689.812409747
1.5371372699737549	31687081.203829393
1.541254997253418	32068590.11312381
1.545366883277893	32531705.25508345
1.5494728088378906	33292595.076401405
1.5535727739334106	33696934.51040004
1.5576666593551636	33595134.341217175
1.561754584312439	33872564.48105474
1.5658363103866577	34861126.434019335
1.5699119567871094	35515190.10627518
1.5739814043045044	35264350.30779245
1.5780447721481323	34753751.70648884
1.582101821899414	35253005.534898706
1.5861525535583496	36498630.25722551
1.5901970863342285	37070425.7006809
1.5942351818084717	36955525.54587978
1.5982669591903687	36750779.68293797
1.6022924184799194	36821405.01534599
1.606311559677124	37104671.84505347
1.6103241443634033	37202101.781362586
1.6143304109573364	37106935.02952999
1.6183301210403442	36981342.995467685
1.6223233938217163	36905621.884880155
1.6263102293014526	36832736.06593188
1.6302905082702637	36619509.86452547
1.634264349937439	37044889.868113495
1.638231635093689	38332601.19451407
1.6421923637390137	39081332.090454735
1.646146535873413	38713593.918478675
1.6500942707061768	38185856.726832636
1.6540353298187256	38441202.08745813
1.6579699516296387	38835443.30804583
1.661897897720337	38059007.64184386
1.6658192873001099	35916680.46597779
1.6697341203689575	35166752.439721234
1.6736423969268799	37153050.509469956
1.677544116973877	38636068.37239645
1.6814392805099487	38672255.07660712
1.6853278875350952	38524813.26382076
1.6892099380493164	37939116.37537162
1.6930854320526123	36455771.32153374
1.696954369544983	35014860.6183453
1.7008168697357178	34953260.96073639
1.7046726942062378	35521134.80231908
1.708522081375122	35858512.303514466
1.712364912033081	36076631.8410162
1.7162011861801147	36529083.27704285
1.7200311422348022	37168008.706163295
1.723854422569275	37194810.874380715
1.7276713848114014	36468409.588299416
1.731481909751892	35080790.64779275
1.7352858781814575	33478207.48003583
1.7390835285186768	32340939.2045936
1.7428747415542603	31064232.49460803
1.7466596364974976	29142328.270898633
1.7504380941390991	26844823.354580387
1.7542102336883545	25463988.41919836
1.7579760551452637	27839070.54598292
1.7617355585098267	30985638.254775483
1.7654887437820435	29338719.401398405
1.7692357301712036	24235161.39662895
1.7729763984680176	18532502.926187035
1.776710867881775	13263359.117780147
1.7804391384124756	11184996.293603968
1.7841613292694092	11442748.043476934
1.7878772020339966	10539421.589845084
1.7915871143341064	10855107.491208924
1.7952908277511597	13100629.866245648
1.7989884614944458	13239715.096184617
1.8026801347732544	9595801.436961325
1.806365728378296	5613258.631034995
1.8100452423095703	5738195.393589845
1.8137187957763672	7251564.884847257
1.817386507987976	6420330.1263747765
1.8210482597351074	7302467.082714519
1.8247040510177612	8090468.151664691
1.828354001045227	5375648.704067022
1.8319982290267944	4680223.905453455
1.8356364965438843	7280715.118612794
1.8392690420150757	9749382.381770939
1.8428958654403687	10037313.100458004
1.8465168476104736	9678144.270080097
1.8501322269439697	9597022.946087101
1.8537418842315674	7465476.653642657
1.8573459386825562	5443448.435428026
1.860944390296936	4879601.028323983
1.864537239074707	4076689.2530065076
1.8681244850158691	4762822.163392258
1.871706247329712	7416508.053734637
1.8752825260162354	10165434.006411396
1.8788533210754395	13159833.102259085
1.8824186325073242	15216439.347996682
1.8859784603118896	14371520.288036246
1.8895330429077148	13662599.291160744
1.8930821418762207	15863281.851471068
1.8966259956359863	15589500.70124685
1.9001644849777222	9706070.288768627
1.9036977291107178	5416512.586791575
1.9072256088256836	5978165.033853165
1.9107483625411987	5938587.179727954
1.9142658710479736	3810072.178874863
1.9177782535552979	3528912.7720932937
1.9212853908538818	4796825.923367749
1.9247875213623047	4883052.017731277
1.9282845258712769	5016712.100786921
1.9317764043807983	6365908.33068655
1.9352631568908691	6961282.387436497
1.9387450218200684	6487698.575296388
1.942221760749817	6763381.178803133
1.9456936120986938	7513817.951396396
1.9491604566574097	8250328.613369741
1.952622413635254	7916259.777952039
1.956079363822937	6552611.304098181
1.959531545639038	6510733.147197921
1.962978720664978	7173296.438875046
1.966421127319336	8741462.958426775
1.9698586463928223	11546422.146927573
1.9732913970947266	12907470.649575183
1.9767193794250488	13613825.64243276
1.9801424741744995	15696501.302071525
1.9835609197616577	17820208.205454037
1.9869745969772339	17987321.36937946
1.990383505821228	15954484.877300514
1.9937876462936401	15136897.837605078
1.9971871376037598	15484659.861064266
2.000581979751587	16625036.620772623
2.003972291946411	19850254.36098813
2.007357597351074	22386280.949958093
2.0107386112213135	24529952.644276712
2.0141148567199707	25460261.85259644
2.017486572265625	23769890.065805774
2.0208535194396973	24228607.395551693
2.0242159366607666	27299352.216114864
2.027573823928833	29291167.857986074
2.0309269428253174	30529627.181351904
2.034275770187378	32094886.359320976
2.0376198291778564	33341729.02237551
2.040959596633911	34449139.35719682
2.044294595718384	35951685.10675358
2.0476250648498535	37539602.644807816
2.0509510040283203	37942436.36380201
2.054272413253784	37129341.77481661
2.057589530944824	37335628.366990305
2.0609018802642822	38628278.30139537
2.0642096996307373	39730281.376522355
2.0675129890441895	40479257.941240795
2.0708119869232178	40785903.785181366
2.074106216430664	40578844.57351913
2.0773961544036865	40423440.53685348
2.080681324005127	40760645.74905228
2.0839622020721436	41241307.13231345
2.087238311767578	41598117.41653723
2.090510129928589	41597157.97399149
2.0937774181365967	41314698.51507814
2.0970399379730225	41301537.55319709
2.1002981662750244	41388984.474400185
2.1035518646240234	41129548.41060062
2.1068007946014404	40748359.93559582
2.1100454330444336	41093534.49158866
2.1132853031158447	41807303.81989269
2.116520881652832	41785017.842942916
2.1197516918182373	41583374.13458744
2.1229779720306396	41810570.970885135
2.12619948387146	42080591.10894527
2.1294167041778564	42153911.90075723
2.132629156112671	42199017.42797468
2.1358368396759033	42012885.14988175
2.139039993286133	41515557.393024996
2.1422386169433594	41088868.533484645
2.145432472229004	40798941.36408663
2.1486217975616455	40528095.9723451
2.151806354522705	40154254.863420196
2.1549863815307617	40075793.72904747
2.1581614017486572	40208176.19688725
2.16133189201355	39963018.45631895
2.1644976139068604	39681075.04740827
2.167658567428589	39565172.7937856
2.1708147525787354	39448492.61069451
2.173966407775879	39186937.71718574
2.1771130561828613	38878119.42707159
2.1802549362182617	38690294.876417205
2.183391809463501	38370984.455843344
2.1865241527557373	37796549.28008801
2.1896514892578125	36912375.525101766
2.1927738189697266	34969140.725930415
2.1958916187286377	31652420.257841587
2.1990041732788086	28432866.893308572
2.2021119594573975	26666172.344484422
2.2052149772644043	26025934.684493903
2.208312749862671	26297937.756615397
2.2114057540893555	27535411.734501693
2.214493751525879	28665545.602395203
2.217576742172241	28652570.67926995
2.2206547260284424	28245037.626145944
2.2237277030944824	27880684.509382855
2.2267956733703613	26494713.4604003
2.2298583984375	24464159.999596473
2.2329163551330566	23201812.228929244
2.235969066619873	22903917.390503883
2.2390167713165283	22500506.533384062
2.2420592308044434	20939743.996470883
2.2450966835021973	19119901.17333203
2.248128890991211	19211071.00877766
2.2511560916900635	20809193.169442583
2.254178285598755	21866945.64871995
2.257194995880127	22495990.043904968
2.260206699371338	22522714.256716717
2.2632133960723877	20855832.99726071
2.266214609146118	18626178.73368741
2.2692108154296875	17796024.35624589
2.2722020149230957	18765880.094952583
2.2751877307891846	20046825.203034103
2.278168201446533	19926240.532709133
2.2811436653137207	18767389.347163383
2.284113883972168	17884806.13476077
2.287078857421875	17240441.426904354
2.290038824081421	16244396.130114656
2.2929933071136475	14918534.005119544
2.295942783355713	13466633.595027698
2.298887014389038	12137210.173753474
2.301826238632202	11272788.790737169
2.304760217666626	11034189.667116277
2.3076889514923096	11362829.238250563
2.310612440109253	12105102.046035966
2.3135311603546143	12151115.626052082
2.3164443969726562	10379784.600549676
2.319352865219116	8297877.331834177
2.322256088256836	7582243.872230119
2.3251543045043945	7523803.759477141
2.328047275543213	7463519.02698471
2.330935478210449	7650368.814744148
2.3338186740875244	7990198.075077577
2.3366971015930176	8289444.803475935
2.3395702838897705	8580972.732721461
2.3424389362335205	8755547.693612583
2.3453025817871094	8843643.25463442
2.348161458969116	8980691.783604266
2.351015567779541	9399738.24977717
2.353865146636963	10204265.223478215
2.3567099571228027	10869885.194860667
2.3595502376556396	11515654.194953445
2.3623859882354736	12595919.372112695
2.3652172088623047	12587163.52266714
2.368043899536133	10118558.733902102
2.370866537094116	7603235.123720171
2.3736846446990967	7556679.619058645
2.3764986991882324	8016314.9328164
2.3793084621429443	7463503.029587379
2.3821144104003906	7464102.06330354
2.384916305541992	8969548.67454415
2.387714147567749	10991582.821821263
2.3905084133148193	12071784.62790278
2.393299102783203	12003469.28702499
2.3960859775543213	11086658.71271655
2.398869514465332	10124678.99109591
2.4016497135162354	9564830.68112383
2.4044265747070312	9335421.048315894
2.407200336456299	9969749.356062979
2.409970998764038	11170400.28271744
2.4127390384674072	11894324.0011173
2.415503978729248	12298919.574965935
2.418266534805298	13217038.711169558
2.4210267066955566	13995280.48581168
2.4237842559814453	13420546.456960347
2.426539897918701	12281088.94842214
2.429293394088745	12137526.47182278
2.4320452213287354	12856113.307969563
2.4347951412200928	13408959.51981021
2.4375438690185547	13419819.525172729
2.440291166305542	12971017.986475045
2.443037271499634	12040907.501755614
2.445782423019409	10772018.436550165
2.4485268592834473	9553947.966978723
2.451270818710327	9166689.365059754
2.454014539718628	10621667.380701981
2.4567582607269287	12346311.763113834
2.4595019817352295	12031778.883225441
2.4622461795806885	11887619.48894983
2.4649908542633057	11976977.000875885
2.4677364826202393	9930895.897152131
2.4704833030700684	7273580.854006199
2.473231554031372	5403186.703563351
2.4759814739227295	4199987.958700794
2.4787333011627197	3800547.8001191486
