#wavelength	surface flux
0.6450077295303345	100317.5282548211
0.6472567915916443	152827.02906652994
0.6494921445846558	187879.0953910766
0.6517150402069092	201089.3312377336
0.6539263725280762	212746.2078589374
0.6561272740364075	224117.3866064325
0.6583186388015747	235524.4573880949
0.6605015397071838	246900.34687614714
0.6626768708229065	257506.6311561201
0.6648455858230591	266224.5103539886
0.6670085787773132	263197.16857888835
0.6691668033599854	234296.8162383516
0.6713210344314575	220225.40992852065
0.6734722256660461	263029.67561585584
0.6756211519241333	314841.6606405455
0.6777685880661011	340546.4644217815
0.6799154281616211	355659.8051602316
0.6820623278617859	369508.00875315676
0.6842101216316223	384163.3071908034
0.6863595843315125	397934.4154499267
0.688511312007904	409476.55809365795
0.6906660795211792	417901.3200760491
0.6928245425224304	427668.72293277335
0.6949873566627502	444070.9105481485
0.6971551775932312	461906.70641167084
0.6993286609649658	475915.7171530112
0.7015084028244019	487673.4165707146
0.7036949396133423	499730.1657142237
0.7058889269828796	512344.569750395
0.7080909013748169	523720.4189776465
0.710301399230957	534271.4265273217
0.712520956993103	544271.0097723805
0.7147500514984131	550687.7464634496
0.7169892191886902	553988.5369548283
0.7192389369010925	559794.9059150666
0.7214996814727783	566475.8561900553
0.723771870136261	569637.6851540458
0.7260559797286987	570679.5937645718
0.7283523678779602	570145.624991073
0.7306615710258484	568546.1231739076
0.7329838871955872	566623.5136379581
0.7353196740150452	561592.6913569781
0.7376693487167358	552468.8705501689
0.7400332689285278	539110.6266011917
0.7424117922782898	519250.35256672837
0.7448052167892456	493324.9906344693
0.7472138404846191	460987.15290978947
0.7496379613876343	420415.54885491787
0.7520779371261597	370951.50174805406
0.7545340061187744	312380.0934223571
0.7570064663887024	245456.7490916731
0.7594954967498779	172640.19574466432
0.7620013952255249	100047.3977584091
0.7645244002342224	41567.33681265672
0.7670646905899048	11762.401644571262
0.7696225643157959	13276.518953645942
0.7721980810165405	51649.99955751555
0.7747915983200073	128706.72189414677
0.7774031162261963	217904.12685093275
0.7800329327583313	308934.84043624543
0.7826811671257019	425743.6718332596
0.7853479981422424	553569.8265162954
0.7880334854125977	660577.1621381452
0.7907378077507019	700776.101285551
0.7934610247612	645549.0255816145
0.7962033748626709	708011.2986163564
0.7989648580551147	941616.8723577858
0.801745593547821	1113204.9238521263
0.8045456409454346	1200523.9532573647
0.8073651194572449	1270526.2429400634
0.8102040886878967	1326710.0752501083
0.8130625486373901	1386045.540677597
0.8159406185150146	1457811.3594868612
0.8188382983207703	1528328.9643560746
0.8217556476593018	1602331.4889094892
0.8246926665306091	1683096.269661888
0.8276493549346924	1754918.9881576775
0.8306257724761963	1817255.8759121182
0.8336219191551208	1879470.7264095081
0.8366377949714661	1938841.4233571785
0.8396733403205872	2007727.4798024322
0.8427285552024841	2096428.474757049
0.8458034992218018	2177854.952224921
0.8488980531692505	2219904.0576757053
0.8520121574401855	2252327.3025448807
0.8551458716392517	2350399.6709307334
0.8582990765571594	2448109.2702573366
0.8614717125892639	2435885.737734959
0.8646637797355652	2418709.1298944494
0.8678751587867737	2494626.318910328
0.8711057901382446	2590135.8859375473
0.8743556141853333	2668149.4346791445
0.87762451171875	2733513.1193764266
0.8809124231338501	2790348.9733697674
0.8842192888259888	2871058.3260828815
0.8875449895858765	2931022.5888165347
0.8908893465995789	2910814.7696772646
0.894252359867096	2918094.0800079424
0.8976338505744934	3065638.063699397
0.9010337591171265	3262744.954137559
0.9044519662857056	3417158.4320798363
0.9078882932662964	3537094.0120871803
0.9113426208496094	3617768.4060895313
0.914814829826355	3636610.3808572902
0.9183048605918884	3664208.6260423395
0.9218124747276306	3695766.0992199425
0.925337553024292	3451083.6737649506
0.9288799166679382	2985772.521144205
0.9324395060539246	2812040.184538734
0.9360161423683167	3015120.811167207
0.9396095871925354	3286040.3550194185
0.943219780921936	3325506.204387384
0.9468464851379395	3244597.5928623355
0.9504896402359009	3348003.83931861
0.9541489481925964	3552247.512339056
0.9578243494033813	3581785.6436917777
0.9615156054496765	3390879.434214178
0.9652225375175476	3311256.975278399
0.9689450263977051	3560172.449656532
0.9726828336715698	4042013.2061304585
0.9764357805252075	4414228.110203641
0.9802037477493286	4608444.000617845
0.983986496925354	4793391.512809331
0.9877838492393494	4991808.55607459
0.9915955662727356	5202814.004480826
0.9954215884208679	5378452.251049656
0.9992615580558777	5487939.522698471
1.0031154155731201	5588702.664161854
1.0069829225540161	5765366.916160391
1.0108637809753418	6002997.954977423
1.0147579908370972	6250108.530714071
1.018665075302124	6442018.473471156
1.022585153579712	6515492.719009307
1.0265177488327026	6542080.527619687
1.0304628610610962	6679789.794937893
1.0344202518463135	6957838.655321372
1.0383895635604858	7207968.316496049
1.0423706769943237	7360430.347898771
1.0463634729385376	7481500.405762131
1.0503677129745483	7594630.50302617
1.0543830394744873	7748766.987732636
1.058409333229065	7921170.798512862
1.0624464750289917	8055245.089358348
1.0664942264556885	8168649.943454628
1.0705522298812866	8282916.514534094
1.0746204853057861	8417136.402997224
1.0786986351013184	8561219.101018416
1.0827864408493042	8679563.358523354
1.086883783340454	8691037.420828545
1.0909905433654785	8543673.867131792
1.0951062440872192	8237727.940378354
1.0992310047149658	7375609.237691227
1.10336434841156	6131570.119029414
1.1075061559677124	5648486.16726419
1.1116561889648438	5603676.8572995
1.115814208984375	5265575.068196711
1.1199802160263062	5024653.643617941
1.124153733253479	5198711.890986008
1.1283347606658936	5400369.128156687
1.1325229406356812	5100005.040138326
1.1367181539535522	5298313.385733439
1.1409201622009277	6246285.207229711
1.145128846168518	6831704.610654047
1.1493438482284546	6257541.27118752
1.1535650491714478	4896926.625393382
1.1577922105789185	4373425.713531528
1.1620250940322876	4994876.177761643
1.1662636995315552	5965788.631474887
1.170507550239563	6621002.744787809
1.174756646156311	7335724.098951561
1.1790107488632202	8479205.557836508
1.1832695007324219	9450703.428925518
1.1875330209732056	10002335.443478364
1.191800832748413	10509828.34943844
1.1960728168487549	11134551.69533569
1.2003488540649414	11536760.330370987
1.2046287059783936	11712568.618672127
1.2089121341705322	11895330.765924836
1.2131990194320679	12192575.0676727
1.2174891233444214	12587248.3556511
1.2217823266983032	12962016.771634724
1.2260783910751343	13261288.014619635
1.230377197265625	13495868.183845077
1.2346785068511963	13697436.585859796
1.238982081413269	13907523.181331096
1.2432878017425537	14079680.020100074
1.2475954294204712	14115294.58786366
1.2519049644470215	14084159.081222747
1.256216049194336	14347844.516981589
1.2605286836624146	14691162.642888578
1.2648425102233887	14792653.526452906
1.2691574096679688	14845706.618188303
1.2734732627868652	14938461.545624437
1.2777899503707886	15032236.868572602
1.2821072340011597	15065010.598922258
1.2864248752593994	14978530.460917603
1.2907428741455078	14772964.478402916
1.2950609922409058	14728780.159874678
1.2993791103363037	14734464.830490427
1.303696870803833	14534447.343887344
1.3080145120620728	14455599.388227273
1.3123314380645752	14630721.237923203
1.3166478872299194	14864924.90992856
1.3209635019302368	14482278.917309701
1.3252781629562378	13123805.207658488
1.3295916318893433	10751814.781605158
1.3339040279388428	7169899.703689894
1.3382149934768677	3683176.2779822056
1.3425244092941284	2096930.6301089958
1.3468321561813354	2029539.198699575
1.3511382341384888	1740334.251152212
1.3554422855377197	1227053.1723108278
1.3597444295883179	1107984.810406895
1.3640443086624146	1217929.1866733562
1.3683418035507202	1575028.0020529607
1.3726370334625244	2574825.59882712
1.3769296407699585	3584241.9012407283
1.381219506263733	2856024.8091348317
1.3855066299438477	1355436.5280542485
1.3897908926010132	868145.4593752335
1.3940720558166504	983937.3354284846
1.3983501195907593	1261878.7781587925
1.4026249647140503	2010799.9942944201
1.4068963527679443	2598787.5406700904
1.4111642837524414	2072250.9807310281
1.4154287576675415	1596810.1433118775
1.419689416885376	1622303.9531427834
1.4239463806152344	1581073.5163494437
1.4281994104385376	1905592.4638050785
1.4324485063552856	2205768.0557526867
1.436693549156189	2264729.9428356704
1.440934419631958	2689608.6647331603
1.4451709985733032	3768967.9982191646
1.449403166770935	5328625.598372837
1.453631043434143	6371073.929950844
1.4578542709350586	6856471.219876271
1.4620729684829712	7420568.138992818
1.4662868976593018	7503816.908987799
1.4704961776733398	7051849.510241401
1.4747005701065063	6878676.590757989
1.4788999557495117	7277613.715364018
1.4830944538116455	8421473.166903097
1.4872838258743286	9660087.972834494
1.491468071937561	10021595.825763319
1.4956470727920532	9986890.839946548
1.4998208284378052	10658568.51510426
1.5039892196655273	11603955.677200701
1.5081522464752197	11823181.25990761
1.5123097896575928	12121125.54577064
1.5164618492126465	13169639.391755627
1.5206083059310913	14690079.368111491
1.5247491598129272	15770960.327365426
1.5288842916488647	15936013.814767946
1.5330137014389038	16306566.134661611
1.5371372699737549	17001727.00800311
1.541254997253418	17308727.03779648
1.545366883277893	17681558.710354287
1.5494728088378906	18310110.305668674
1.5535727739334106	18654789.704882827
1.5576666593551636	18594119.805495564
1.561754584312439	18878143.6042127
1.5658363103866577	19759972.211277883
1.5699119567871094	20295415.271986313
1.5739814043045044	19957258.440052837
1.5780447721481323	19390932.74860198
1.582101821899414	19847171.825897645
1.5861525535583496	21046332.442952763
1.5901970863342285	21571993.398992784
1.5942351818084717	21367565.78217223
1.5982669591903687	21024969.836534962
1.6022924184799194	20952842.54387591
1.606311559677124	21125877.680136956
1.6103241443634033	21107005.908869628
1.6143304109573364	20823565.56460422
1.6183301210403442	20452663.570412997
1.6223233938217163	20077690.074692037
1.6263102293014526	19660198.97912172
1.6302905082702637	19169797.25060894
1.634264349937439	19683411.242943235
1.638231635093689	21405272.10188984
1.6421923637390137	22328561.034233343
1.646146535873413	21616906.853092875
1.6500942707061768	20742016.65785776
1.6540353298187256	21080938.65305945
1.6579699516296387	21650750.04287482
1.661897897720337	20702373.937894367
1.6658192873001099	18030220.588636905
1.6697341203689575	16963488.48562573
1.6736423969268799	19138874.315847903
1.677544116973877	20694840.986694872
1.6814392805099487	20539817.644185737
1.6853278875350952	20222817.513033148
1.6892099380493164	19508241.98390244
1.6930854320526123	17921659.52389314
1.696954369544983	16317340.60995418
1.7008168697357178	16064856.586586598
1.7046726942062378	16653026.225059658
1.708522081375122	17249566.098691735
1.712364912033081	17742226.148417037
1.7162011861801147	18364645.346786864
1.7200311422348022	19092798.88329319
1.723854422569275	19166417.515611056
1.7276713848114014	18548923.303836767
1.731481909751892	17496244.260829177
1.7352858781814575	16382673.508654913
1.7390835285186768	15712518.00799342
1.7428747415542603	15051744.495979795
1.7466596364974976	13971331.34123762
1.7504380941390991	12683651.54832173
1.7542102336883545	11975659.189824367
1.7579760551452637	13386088.443420462
1.7617355585098267	15133092.03145643
1.7654887437820435	14103735.433781946
1.7692357301712036	11208584.571923558
1.7729763984680176	8161506.059769211
1.776710867881775	5540155.779661802
1.7804391384124756	4536634.871919217
1.7841613292694092	4634814.13330905
1.7878772020339966	4223601.141831376
1.7915871143341064	4424689.222815452
1.7952908277511597	5659179.0932695195
1.7989884614944458	5907073.990694862
1.8026801347732544	4108576.3895819704
1.806365728378296	2141336.4481752473
1.8100452423095703	2177067.8778822124
1.8137187957763672	2798075.7633282044
1.817386507987976	2415872.7254112633
1.8210482597351074	2826267.20438679
1.8247040510177612	3157679.6476432835
1.828354001045227	1926501.219131891
1.8319982290267944	1536913.9975389715
1.8356364965438843	2606214.4997795816
1.8392690420150757	3671664.8959308146
1.8428958654403687	3810993.8684083256
1.8465168476104736	3747900.8966928525
1.8501322269439697	3894920.116555313
1.8537418842315674	3079092.400542929
1.8573459386825562	2185908.9210945144
1.860944390296936	1899955.8641031524
1.864537239074707	1432893.4489109162
1.8681244850158691	1541451.4972548888
1.871706247329712	2623544.29139616
1.8752825260162354	3978110.3810416404
1.8788533210754395	5709164.387761224
1.8824186325073242	6996775.514846054
1.8859784603118896	6543262.855766894
1.8895330429077148	6004429.2610547915
1.8930821418762207	7113767.223493155
1.8966259956359863	6959608.990255807
1.9001644849777222	3877134.014249938
1.9036977291107178	1717692.8287814497
1.9072256088256836	1884851.9638661435
1.9107483625411987	1874803.4584685639
1.9142658710479736	1129966.5189935365
1.9177782535552979	1066717.9371464755
1.9212853908538818	1553380.8390286902
1.9247875213623047	1603404.62502611
1.9282845258712769	1677174.2293353826
1.9317764043807983	2237696.666368622
1.9352631568908691	2523168.345442278
1.9387450218200684	2432522.3741436484
1.942221760749817	2718529.27714704
1.9456936120986938	3148851.3129272256
1.9491604566574097	3542947.936061959
1.952622413635254	3408619.04038515
1.956079363822937	2737088.7233187235
1.959531545639038	2690817.605462861
1.962978720664978	3019152.1888456703
1.966421127319336	3877175.548258354
1.9698586463928223	5417643.541422918
1.9732913970947266	6226309.009043381
1.9767193794250488	6669664.373601127
1.9801424741744995	7807758.791796456
1.9835609197616577	8953687.856409278
1.9869745969772339	9036183.879512627
1.990383505821228	7973601.359403464
1.9937876462936401	7638390.060807146
1.9971871376037598	7883604.05675787
2.000581979751587	8478575.920704694
2.003972291946411	10273759.429912591
2.007357597351074	11812148.693665389
2.0107386112213135	13096643.842990395
2.0141148567199707	13532503.709865898
2.017486572265625	12531744.025112143
2.0208535194396973	12903670.122162249
2.0242159366607666	14708198.340161784
2.027573823928833	15802056.495178975
2.0309269428253174	16525311.075963572
2.034275770187378	17503517.99872582
2.0376198291778564	18319101.686583903
2.040959596633911	19070788.095325667
2.044294595718384	20083382.8741019
2.0476250648498535	21135453.74187068
2.0509510040283203	21340071.90512823
2.054272413253784	20763711.19195673
2.057589530944824	20920961.773263823
2.0609018802642822	21789191.911565475
2.0642096996307373	22518457.806184463
2.0675129890441895	23013051.16582309
2.0708119869232178	23224600.25599142
2.074106216430664	23089278.09795872
2.0773961544036865	22971331.292864606
2.080681324005127	23189451.57936761
2.0839622020721436	23482347.858277764
2.087238311767578	23683376.621657293
2.090510129928589	23665786.270979803
2.0937774181365967	23434721.439444926
2.0970399379730225	23365349.557907034
2.1002981662750244	23377584.68944773
2.1035518646240234	23188291.469868127
2.1068007946014404	22939698.296993535
2.1100454330444336	23095265.843157023
2.1132853031158447	23392400.9964593
2.116520881652832	23184580.55394349
2.1197516918182373	22907342.858029913
2.1229779720306396	22988797.999889996
2.12619948387146	23159941.269296005
2.1294167041778564	23207000.625135493
2.132629156112671	23206404.25829629
2.1358368396759033	22959634.87450593
2.139039993286133	22429113.35379341
2.1422386169433594	21910639.158935033
2.145432472229004	21473249.569710005
2.1486217975616455	21139865.295672525
2.151806354522705	20758518.066617604
2.1549863815307617	20695844.717922308
2.1581614017486572	20781149.658151843
2.16133189201355	20373099.27095081
2.1644976139068604	19985675.037763245
2.167658567428589	19897049.31289654
2.1708147525787354	19928572.349980086
2.173966407775879	19877523.194720965
2.1771130561828613	19639342.464775085
2.1802549362182617	19273461.618300565
2.183391809463501	18718914.586802226
2.1865241527557373	18008445.766836062
2.1896514892578125	17066428.594105627
2.1927738189697266	15290035.758050932
2.1958916187286377	12553400.344371961
2.1990041732788086	10038433.423224289
2.2021119594573975	8703845.313616797
2.2052149772644043	8303871.941897283
2.208312749862671	8550075.855519475
2.2114057540893555	9385173.826253954
2.214493751525879	10162086.342606477
2.217576742172241	10163431.729311597
2.2206547260284424	9841994.164355766
2.2237277030944824	9569501.197438248
2.2267956733703613	8706860.480980465
2.2298583984375	7459930.0658215005
2.2329163551330566	6675755.138127667
2.235969066619873	6451360.900363646
2.2390167713165283	6230283.018540339
2.2420592308044434	5545238.394718987
2.2450966835021973	4804929.21667154
2.248128890991211	4937409.465876876
2.2511560916900635	5671425.508445063
2.254178285598755	6084442.022613635
2.257194995880127	6356346.950891578
2.260206699371338	6386671.725171173
2.2632133960723877	5671562.763282436
2.266214609146118	4789362.850221382
2.2692108154296875	4512127.30090058
2.2722020149230957	4945146.848948664
2.2751877307891846	5481934.979883009
2.278168201446533	5451982.418712052
2.2811436653137207	5034683.218322517
2.284113883972168	4693818.957965036
2.287078857421875	4394081.301995906
2.290038824081421	4101484.134244353
2.2929933071136475	4017993.4072316317
2.295942783355713	4105363.025475591
2.298887014389038	4206413.380466745
2.301826238632202	4393238.416361007
2.304760217666626	4904906.050676419
2.3076889514923096	5760931.496893887
2.310612440109253	6509531.574798259
2.3135311603546143	6228025.675402563
2.3164443969726562	4622251.511511986
2.319352865219116	3125925.158582647
2.322256088256836	2737796.100494248
2.3251543045043945	2759542.9665746843
2.328047275543213	2708863.4503836087
2.330935478210449	2730373.081542637
2.3338186740875244	2777437.1454963046
2.3366971015930176	2764071.450491279
2.3395702838897705	2734469.4991272795
2.3424389362335205	2626678.2016755086
2.3453025817871094	2438163.1146458094
2.348161458969116	2373672.5036644777
2.351015567779541	2679434.718986345
2.353865146636963	3309798.446660402
2.3567099571228027	3866560.3532949286
2.3595502376556396	4272157.081077194
2.3623859882354736	4657889.926550245
2.3652172088623047	4518091.759995577
2.368043899536133	3452548.8997530234
2.370866537094116	2285911.6468650545
2.3736846446990967	1999659.0288867098
2.3764986991882324	2245567.887309454
2.3793084621429443	2410017.966109058
2.3821144104003906	2640443.4941616687
2.384916305541992	3165903.8381818742
2.387714147567749	3659420.6651500165
2.3905084133148193	3712917.046989567
2.393299102783203	3603154.176082395
2.3960859775543213	3618472.3876328026
2.398869514465332	3719078.5954230623
2.4016497135162354	3690458.6614017608
2.4044265747070312	3586147.000091591
2.407200336456299	3914189.8264832785
2.409970998764038	4620915.646567535
2.4127390384674072	5077311.940301066
2.415503978729248	5268473.947091205
2.418266534805298	5718604.0532097155
2.4210267066955566	6121434.124690265
2.4237842559814453	5720132.869682373
2.426539897918701	5073682.623935921
2.429293394088745	5275662.333747757
2.4320452213287354	6013586.293210142
2.4347951412200928	6333302.079901783
2.4375438690185547	6214022.712040702
2.440291166305542	6084787.712170853
2.443037271499634	5819370.413750667
2.445782423019409	5182149.519257576
2.4485268592834473	4442719.689166527
2.451270818710327	4231243.967224766
2.454014539718628	4925979.4693193305
2.4567582607269287	5644823.684379858
2.4595019817352295	5558027.164657944
2.4622461795806885	5698182.4862465905
2.4649908542633057	5810734.663658957
2.4677364826202393	4785163.064408872
2.4704833030700684	3475195.5952281165
2.473231554031372	2592642.19853779
2.4759814739227295	2038728.1393837144
2.4787333011627197	1840903.0339029953
