#wavelength	surface flux
0.6450077295303345	61983.208767026765
0.6472567915916443	94057.18252706467
0.6494921445846558	114760.65711354093
0.6517150402069092	121793.96299638848
0.6539263725280762	127948.34123406369
0.6561272740364075	133993.51774879097
0.6583186388015747	140122.73216812147
0.6605015397071838	146452.54922207232
0.6626768708229065	152853.03303727292
0.6648455858230591	158977.06122769983
0.6670085787773132	161484.1160233443
0.6691668033599854	154208.49372012823
0.6713210344314575	152087.43785649975
0.6734722256660461	170546.42405985383
0.6756211519241333	190315.517980254
0.6777685880661011	200277.1656085638
0.6799154281616211	207908.8853000309
0.6820623278617859	215384.44423898606
0.6842101216316223	222924.63781275268
0.6863595843315125	230475.88876660255
0.688511312007904	237739.1128402745
0.6906660795211792	243886.39227120977
0.6928245425224304	250065.12718333647
0.6949873566627502	258801.53537560775
0.6971551775932312	268450.98314759345
0.6993286609649658	276725.94887065206
0.7015084028244019	284350.4823589221
0.7036949396133423	292639.5572904724
0.7058889269828796	301581.98358968523
0.7080909013748169	310005.31263480656
0.710301399230957	318259.77833723475
0.712520956993103	326521.6146448903
0.7147500514984131	332804.3900973953
0.7169892191886902	337414.87269646634
0.7192389369010925	344174.244378279
0.7214996814727783	351927.3062928116
0.723771870136261	357528.0680289825
0.7260559797286987	362215.2671482349
0.7283523678779602	366761.7637834681
0.7306615710258484	371794.28070728586
0.7329838871955872	377805.8037278443
0.7353196740150452	382319.2253447504
0.7376693487167358	384458.82902989094
0.7400332689285278	384007.0973112687
0.7424117922782898	378991.0200716765
0.7448052167892456	369407.201104437
0.7472138404846191	354102.4195410289
0.7496379613876343	330383.8199147473
0.7520779371261597	296316.53972841735
0.7545340061187744	250494.75890990873
0.7570064663887024	193476.95067095818
0.7594954967498779	129697.7265969774
0.7620013952255249	69136.25379079138
0.7645244002342224	25614.187250728468
0.7670646905899048	6245.364161045039
0.7696225643157959	7378.983771746392
0.7721980810165405	33116.69637087411
0.7747915983200073	91205.07824331555
0.7774031162261963	165574.01853543412
0.7800329327583313	245298.5828677113
0.7826811671257019	345109.0863812051
0.7853479981422424	448718.6058870791
0.7880334854125977	528949.7181960461
0.7907378077507019	553638.6735489672
0.7934610247612	503034.1571909591
0.7962033748626709	538488.0998064725
0.7989648580551147	698905.6794504885
0.801745593547821	809353.453007058
0.8045456409454346	857169.741146183
0.8073651194572449	893599.0583055345
0.8102040886878967	919787.8865831784
0.8130625486373901	949155.0751238053
0.8159406185150146	994719.8749962826
0.8188382983207703	1041909.7694538415
0.8217556476593018	1079030.1604577813
0.8246926665306091	1116323.595006979
0.8276493549346924	1154159.37426783
0.8306257724761963	1187510.318956631
0.8336219191551208	1221803.4837230006
0.8366377949714661	1255820.36075028
0.8396733403205872	1297450.6764712026
0.8427285552024841	1353465.5602074766
0.8458034992218018	1407280.7740420573
0.8488980531692505	1447911.528266696
0.8520121574401855	1485495.44392434
0.8551458716392517	1537518.3278129096
0.8582990765571594	1591886.8375453388
0.8614717125892639	1628995.1975189827
0.8646637797355652	1665798.8247705407
0.8678751587867737	1716619.2356484195
0.8711057901382446	1770539.233989814
0.8743556141853333	1817357.1539637712
0.87762451171875	1855095.8048813131
0.8809124231338501	1889482.150627519
0.8842192888259888	1927003.9768565819
0.8875449895858765	1957366.9240543328
0.8908893465995789	1960679.8395490758
0.894252359867096	1964994.1088880452
0.8976338505744934	2036056.279001796
0.9010337591171265	2154038.32848348
0.9044519662857056	2252184.780955137
0.9078882932662964	2322940.160367548
0.9113426208496094	2378442.9769116896
0.914814829826355	2406792.6596090114
0.9183048605918884	2438519.9808614003
0.9218124747276306	2466121.141633002
0.925337553024292	2305427.350466244
0.9288799166679382	1977692.6016904695
0.9324395060539246	1837737.2732452787
0.9360161423683167	1977068.8516510734
0.9396095871925354	2176810.3083906835
0.943219780921936	2194414.5617939294
0.9468464851379395	2121366.4957020814
0.9504896402359009	2199569.568099333
0.9541489481925964	2359463.6730507533
0.9578243494033813	2396712.3843930564
0.9615156054496765	2275409.4765554396
0.9652225375175476	2237614.939810415
0.9689450263977051	2444769.4023815636
0.9726828336715698	2807358.1357232323
0.9764357805252075	3074796.508188986
0.9802037477493286	3218745.4544191863
0.983986496925354	3364543.8428266556
0.9877838492393494	3529826.845121972
0.9915955662727356	3713194.5745325275
0.9954215884208679	3873903.175630994
0.9992615580558777	4001024.6143506374
1.0031154155731201	4113308.1056672176
1.0069829225540161	4241514.719851336
1.0108637809753418	4389039.982305353
1.0147579908370972	4535841.3948214175
1.018665075302124	4657238.44285436
1.022585153579712	4728302.787993965
1.0265177488327026	4768206.978792324
1.0304628610610962	4851875.80734832
1.0344202518463135	5022994.036178522
1.0383895635604858	5195112.046428151
1.0423706769943237	5315560.439819615
1.0463634729385376	5411565.235303511
1.0503677129745483	5499018.127552001
1.0543830394744873	5611378.348683879
1.058409333229065	5739410.806832211
1.0624464750289917	5853002.8144526165
1.0664942264556885	5950755.272908019
1.0705522298812866	6042942.880646077
1.0746204853057861	6149102.801296078
1.0786986351013184	6265020.307602739
1.0827864408493042	6368996.463150914
1.086883783340454	6417429.846237797
1.0909905433654785	6380947.614539915
1.0951062440872192	6214761.839616069
1.0992310047149658	5573182.563514816
1.10336434841156	4600116.623958734
1.1075061559677124	4216617.420040148
1.1116561889648438	4138732.422008508
1.115814208984375	3760451.421849484
1.1199802160263062	3456589.2687864634
1.124153733253479	3542371.841403929
1.1283347606658936	3727924.272292814
1.1325229406356812	3551907.467606738
1.1367181539535522	3790555.5486493404
1.1409201622009277	4604200.713970216
1.145128846168518	5068902.683864871
1.1493438482284546	4486256.061549829
1.1535650491714478	3200274.370183907
1.1577922105789185	2719666.4667024594
1.1620250940322876	3321912.653519243
1.1662636995315552	4273435.044381163
1.170507550239563	4967641.146174065
1.174756646156311	5725076.7856963
1.1790107488632202	6784437.725370694
1.1832695007324219	7592830.399101446
1.1875330209732056	8051396.664016013
1.191800832748413	8477156.16874802
1.1960728168487549	8977588.97292738
1.2003488540649414	9314353.335743256
1.2046287059783936	9488029.195668185
1.2089121341705322	9667849.68631701
1.2131990194320679	9897273.965550603
1.2174891233444214	10164403.424382182
1.2217823266983032	10429799.706245476
1.2260783910751343	10662195.334190657
1.230377197265625	10851399.97451477
1.2346785068511963	11014933.465482851
1.238982081413269	11200220.128288554
1.2432878017425537	11375023.593170403
1.2475954294204712	11496054.7336198
1.2519049644470215	11601312.857964292
1.256216049194336	11771489.610398125
1.2605286836624146	11929449.516153948
1.2648425102233887	12014925.888419421
1.2691574096679688	12092343.444802163
1.2734732627868652	12191839.391643152
1.2777899503707886	12287207.788277129
1.2821072340011597	12330125.664107319
1.2864248752593994	12272545.272790644
1.2907428741455078	12117640.212551622
1.2950609922409058	12090419.888421353
1.2993791103363037	12099179.965368304
1.303696870803833	11943269.618070312
1.3080145120620728	11862510.127859311
1.3123314380645752	11996586.506916769
1.3166478872299194	12274187.502450911
1.3209635019302368	12038204.69640463
1.3252781629562378	10864970.246789819
1.3295916318893433	8674928.274200791
1.3339040279388428	5436360.188939291
1.3382149934768677	2452796.5903860773
1.3425244092941284	1099729.470664423
1.3468321561813354	950691.2886049069
1.3511382341384888	760103.0486139262
1.3554422855377197	476075.095271843
1.3597444295883179	405397.2132619751
1.3640443086624146	428600.15233976446
1.3683418035507202	599008.3763520244
1.3726370334625244	1221089.5790922642
1.3769296407699585	1923109.3045403042
1.381219506263733	1526789.1386471016
1.3855066299438477	591313.8467902503
1.3897908926010132	273588.197340426
1.3940720558166504	338125.6493229431
1.3983501195907593	507668.11784278735
1.4026249647140503	936492.7141910649
1.4068963527679443	1258713.3101789814
1.4111642837524414	949690.3404363089
1.4154287576675415	656423.7590819394
1.419689416885376	633074.9569401689
1.4239463806152344	599678.4491904841
1.4281994104385376	799294.0178976929
1.4324485063552856	1038867.1086717988
1.436693549156189	1141209.6644788927
1.440934419631958	1398662.3105592602
1.4451709985733032	2183745.9443466067
1.449403166770935	3529301.0005502678
1.453631043434143	4484537.826852214
1.4578542709350586	4940695.850647887
1.4620729684829712	5498170.399757655
1.4662868976593018	5542079.7696895115
1.4704961776733398	4983592.27388039
1.4747005701065063	4672969.902636457
1.4788999557495117	5012448.148079242
1.4830944538116455	6288498.66075345
1.4872838258743286	7740670.824900997
1.491468071937561	8182167.201590322
1.4956470727920532	8046147.275613466
1.4998208284378052	8654002.551539375
1.5039892196655273	9646506.83821455
1.5081522464752197	9917589.421966424
1.5123097896575928	10335074.799648125
1.5164618492126465	11566306.665977724
1.5206083059310913	13253294.547581263
1.5247491598129272	14475017.017667303
1.5288842916488647	14725719.499804158
1.5330137014389038	15141660.009344343
1.5371372699737549	15892042.342759801
1.541254997253418	16234843.329990342
1.545366883277893	16596999.54762064
1.5494728088378906	17205960.991532985
1.5535727739334106	17547497.461026404
1.5576666593551636	17478124.204685513
1.561754584312439	17729510.510171186
1.5658363103866577	18573076.216877688
1.5699119567871094	19075735.87662786
1.5739814043045044	18604771.811258126
1.5780447721481323	17767635.427092195
1.582101821899414	18151281.10877074
1.5861525535583496	19544014.972306807
1.5901970863342285	20140036.84979379
1.5942351818084717	19807541.207772464
1.5982669591903687	19251154.32691802
1.6022924184799194	18963004.362223204
1.606311559677124	19039782.48192693
1.6103241443634033	18915427.70714899
1.6143304109573364	18368930.488256913
1.6183301210403442	17632224.929944925
1.6223233938217163	16773319.803351084
1.6263102293014526	15794746.527014283
1.6302905082702637	14891726.431150584
1.634264349937439	15625837.162571928
1.638231635093689	18151693.752050966
1.6421923637390137	19428810.6669772
1.646146535873413	18158561.829780295
1.6500942707061768	16752993.573596898
1.6540353298187256	17361610.315967727
1.6579699516296387	18377990.957703054
1.661897897720337	17291781.56298032
1.6658192873001099	13849858.041488294
1.6697341203689575	12292465.223451648
1.6736423969268799	14774312.919085106
1.677544116973877	16462409.776899137
1.6814392805099487	16073465.658576109
1.6853278875350952	15604247.973485094
1.6892099380493164	14780921.281799618
1.6930854320526123	13047521.432603236
1.696954369544983	11164669.457011119
1.7008168697357178	10729690.346165976
1.7046726942062378	11500782.066869583
1.708522081375122	12559745.551438391
1.712364912033081	13556183.133475691
1.7162011861801147	14604521.23473424
1.7200311422348022	15675763.2685463
1.723854422569275	15910627.546452383
1.7276713848114014	15319441.311215462
1.731481909751892	14313812.284905652
1.7352858781814575	13270841.51501757
1.7390835285186768	12722120.378529603
1.7428747415542603	12197561.429417763
1.7466596364974976	11154873.05565372
1.7504380941390991	9850804.48496679
1.7542102336883545	9165720.613893528
1.7579760551452637	10623252.615320591
1.7617355585098267	12281469.17584644
1.7654887437820435	11107166.760973716
1.7692357301712036	8209797.539279492
1.7729763984680176	5343356.439676631
1.776710867881775	3113081.9474390647
1.7804391384124756	2308806.647033543
1.7841613292694092	2387690.802530559
1.7878772020339966	2122850.942614275
1.7915871143341064	2322323.5518039437
1.7952908277511597	3519306.978783491
1.7989884614944458	4053432.456063417
1.8026801347732544	2652332.4604274984
1.806365728378296	1074129.1961501085
1.8100452423095703	1073046.2485396492
1.8137187957763672	1437087.85325924
1.817386507987976	1193870.584068427
1.8210482597351074	1415350.004420658
1.8247040510177612	1569309.8216012458
1.828354001045227	837271.495236762
1.8319982290267944	558061.8426828092
1.8356364965438843	1127406.288007408
1.8392690420150757	1736474.8139502069
1.8428958654403687	1745200.4919360345
1.8465168476104736	1730271.1037994542
1.8501322269439697	2045097.641983317
1.8537418842315674	1695139.6951626316
1.8573459386825562	1062079.2776821232
1.860944390296936	811073.4420594469
1.864537239074707	532695.2655138532
1.8681244850158691	509585.1819240808
1.871706247329712	1009843.0808505544
1.8752825260162354	1854866.0970379054
1.8788533210754395	3320060.5714711808
1.8824186325073242	4470320.728396761
1.8859784603118896	4064969.662585414
1.8895330429077148	3620761.1371002924
1.8930821418762207	4659256.409796376
1.8966259956359863	4670522.258466743
1.9001644849777222	2272789.853614966
1.9036977291107178	620233.0046773711
1.9072256088256836	614612.9630208384
1.9107483625411987	606383.6056875694
1.9142658710479736	333111.04540854617
1.9177782535552979	319164.2529675675
1.9212853908538818	501302.31343882007
1.9247875213623047	522726.9958147034
1.9282845258712769	559318.8266840933
1.9317764043807983	801515.811204254
1.9352631568908691	944695.613127094
1.9387450218200684	959148.340161601
1.942221760749817	1182475.0354866988
1.9456936120986938	1487761.7001307595
1.9491604566574097	1848613.553129338
1.952622413635254	1826203.1187725998
1.956079363822937	1329186.803075186
1.959531545639038	1200041.8254477913
1.962978720664978	1376156.516666236
1.966421127319336	1990127.4818686908
1.9698586463928223	3136861.9713576958
1.9732913970947266	3767837.5305062854
1.9767193794250488	4165561.2975677685
1.9801424741744995	5153271.98015316
1.9835609197616577	6191899.707249709
1.9869745969772339	6311749.372399354
1.990383505821228	5374086.75838963
1.9937876462936401	5102314.612145276
1.9971871376037598	5340813.2127776975
2.000581979751587	5920528.800819701
2.003972291946411	7701802.513250975
2.007357597351074	9369907.332353586
2.0107386112213135	10888105.020727312
2.0141148567199707	11290286.345368931
2.017486572265625	10073241.476397676
2.0208535194396973	10550504.114367455
2.0242159366607666	12623283.002808893
2.027573823928833	13854720.573431512
2.0309269428253174	14775453.769442692
2.034275770187378	16030145.018988201
2.0376198291778564	17100491.858240716
2.040959596633911	18157085.384795487
2.044294595718384	19573363.79484685
2.0476250648498535	20973990.988418773
2.0509510040283203	21135190.638534818
2.054272413253784	20308842.94311388
2.057589530944824	20546089.819044538
2.0609018802642822	21696987.613599457
2.0642096996307373	22617913.74868559
2.0675129890441895	23216587.18221265
2.0708119869232178	23482991.91123249
2.074106216430664	23318924.25614796
2.0773961544036865	23132931.75851912
2.080681324005127	23356227.707526278
2.0839622020721436	23627165.838101637
2.087238311767578	23766305.288506422
2.090510129928589	23706919.815203972
2.0937774181365967	23383899.875009593
2.0970399379730225	23218054.366320573
2.1002981662750244	23155484.827022996
2.1035518646240234	22872416.148704667
2.1068007946014404	22522232.65042552
2.1100454330444336	22572969.66811602
2.1132853031158447	22691500.339080784
2.116520881652832	22191943.08974073
2.1197516918182373	21662930.932818227
2.1229779720306396	21643496.321156837
2.12619948387146	21825387.44659595
2.1294167041778564	21887068.789792165
2.132629156112671	21854155.583292294
2.1358368396759033	21411651.714455806
2.139039993286133	20546181.554475088
2.1422386169433594	19652433.259894248
2.145432472229004	18830503.133728523
2.1486217975616455	18244383.032700505
2.151806354522705	17633647.454931926
2.1549863815307617	17548567.194585156
2.1581614017486572	17679283.93119863
2.16133189201355	16950510.418533225
2.1644976139068604	16277407.332132734
2.167658567428589	16181299.592836129
2.1708147525787354	16375988.59485397
2.173966407775879	16505090.136704437
2.1771130561828613	16256412.985257126
2.1802549362182617	15640223.269799404
2.183391809463501	14709379.177782897
2.1865241527557373	13638005.468059102
2.1896514892578125	12357939.017988034
2.1927738189697266	10239180.932492802
2.1958916187286377	7303760.598738994
2.1990041732788086	4875846.762413046
2.2021119594573975	3755764.8192047025
2.2052149772644043	3551306.9209511834
2.208312749862671	3847503.1115092766
2.2114057540893555	4490361.156140619
2.214493751525879	5029053.595325242
2.217576742172241	4955342.436216186
2.2206547260284424	4633949.407753422
2.2237277030944824	4410549.53433807
2.2267956733703613	3828721.4082168066
2.2298583984375	2999127.5674078553
2.2329163551330566	2482613.312616749
2.235969066619873	2324883.5279289666
2.2390167713165283	2198906.158008334
2.2420592308044434	1866200.8208537388
2.2450966835021973	1522830.2954644994
2.248128890991211	1602826.674332333
2.2511560916900635	1959183.8809477456
2.254178285598755	2149862.377676737
2.257194995880127	2293411.09544246
2.260206699371338	2314796.4162215097
2.2632133960723877	1963510.0889387033
2.266214609146118	1567954.2121346202
2.2692108154296875	1467351.7339042118
2.2722020149230957	1682115.659807591
2.2751877307891846	1941496.2305819762
2.278168201446533	1932175.8853835822
2.2811436653137207	1744399.0613889957
2.284113883972168	1602838.288130637
2.287078857421875	1478459.8136095223
2.290038824081421	1353098.324741004
2.2929933071136475	1346374.1455162216
2.295942783355713	1445460.1010019265
2.298887014389038	1555566.6892811717
2.301826238632202	1729517.6227931832
2.304760217666626	2185565.8667866327
2.3076889514923096	2967640.4770514052
2.310612440109253	3639205.5607772307
2.3135311603546143	3415725.345045797
2.3164443969726562	2210640.4456381304
2.319352865219116	1200177.4872178542
2.322256088256836	991253.6153699567
2.3251543045043945	1031667.3443478309
2.328047275543213	1013405.6776325669
2.330935478210449	1008333.178174841
2.3338186740875244	1006636.2315782224
2.3366971015930176	975204.1223649603
2.3395702838897705	940875.7805481659
2.3424389362335205	878620.5491362682
2.3453025817871094	782601.2246261077
2.348161458969116	746235.5854845839
2.351015567779541	884416.6575071797
2.353865146636963	1178360.9394803324
2.3567099571228027	1448608.2284838413
2.3595502376556396	1655021.6854625952
2.3623859882354736	1838902.871056579
2.3652172088623047	1753980.5837530575
2.368043899536133	1259062.020099254
2.370866537094116	754730.949113635
2.3736846446990967	631874.3302929306
2.3764986991882324	745775.6391564441
2.3793084621429443	862176.8071438513
2.3821144104003906	1005452.0945433526
2.384916305541992	1240392.907689887
2.387714147567749	1414643.7244945974
2.3905084133148193	1370675.088007581
2.393299102783203	1295864.0149183825
2.3960859775543213	1345030.1571596086
2.398869514465332	1452553.5956294292
2.4016497135162354	1464336.628904196
2.4044265747070312	1419258.279467833
2.407200336456299	1615404.0471696046
2.409970998764038	2036410.5480912263
2.4127390384674072	2313467.216380092
2.415503978729248	2422150.8612450673
2.418266534805298	2710109.236511969
2.4210267066955566	2995275.0224131015
2.4237842559814453	2744970.39161671
2.426539897918701	2347325.6036621984
2.429293394088745	2580152.2611473636
2.4320452213287354	3158318.1285706186
2.4347951412200928	3347108.443895884
2.4375438690185547	3219543.965731649
2.440291166305542	3199527.5240099
2.443037271499634	3133135.268074018
2.445782423019409	2731146.8483977546
2.4485268592834473	2215680.857843296
2.451270818710327	2094845.3197302145
2.454014539718628	2558886.8493442996
2.4567582607269287	3005248.894053179
2.4595019817352295	3013814.2897657584
2.4622461795806885	3194814.5266710226
2.4649908542633057	3266590.115358838
2.4677364826202393	2584423.655134881
2.4704833030700684	1779054.7541106634
2.473231554031372	1302125.017860019
2.4759814739227295	1031186.9299731521
2.4787333011627197	927910.4830247088
