#wavelength	surface flux
0.6450077295303345	26744.309252082796
0.6472567915916443	40830.34901599075
0.6494921445846558	50396.85311427968
0.6517150402069092	54222.56761849476
0.6539263725280762	57661.00948033103
0.6561272740364075	61034.686217448994
0.6583186388015747	64472.69870948424
0.6605015397071838	68060.5725031973
0.6626768708229065	71725.04825735404
0.6648455858230591	75259.68610257965
0.6670085787773132	77064.05809135013
0.6691668033599854	74209.77474204105
0.6713210344314575	73808.49025698368
0.6734722256660461	83233.62850746722
0.6756211519241333	93312.64852328962
0.6777685880661011	98721.84376952013
0.6799154281616211	103029.25032763895
0.6820623278617859	107255.96356612977
0.6842101216316223	111488.67482934435
0.6863595843315125	115724.33809358894
0.688511312007904	119763.10798297309
0.6906660795211792	122971.55426979634
0.6928245425224304	126100.1836658954
0.6949873566627502	131016.87277955477
0.6971551775932312	136603.47418113446
0.6993286609649658	141144.06023749977
0.7015084028244019	145147.61282327643
0.7036949396133423	149637.41231563487
0.7058889269828796	154591.35104673344
0.7080909013748169	159079.33689424655
0.710301399230957	163363.6642176592
0.712520956993103	167585.31723785086
0.7147500514984131	170243.0148305723
0.7169892191886902	171553.2872346214
0.7192389369010925	174420.75156024884
0.7214996814727783	177954.91362924685
0.723771870136261	179575.0276603705
0.7260559797286987	180317.466481426
0.7283523678779602	181090.05451032243
0.7306615710258484	182309.49859548823
0.7329838871955872	184173.85612399052
0.7353196740150452	184819.3991802556
0.7376693487167358	183562.06279455626
0.7400332689285278	180384.24543067993
0.7424117922782898	174221.7046127211
0.7448052167892456	165357.09822302114
0.7472138404846191	153433.31990904748
0.7496379613876343	137388.6999448252
0.7520779371261597	117090.77521860613
0.7545340061187744	93051.36856900624
0.7570064663887024	66882.95681899213
0.7594954967498779	41490.34273215221
0.7620013952255249	20627.13144367354
0.7645244002342224	7384.844299842626
0.7670646905899048	1942.0350302202048
0.7696225643157959	2273.472337452719
0.7721980810165405	9782.07311275425
0.7747915983200073	28102.659003303044
0.7774031162261963	54219.19525661727
0.7800329327583313	87107.82007339851
0.7826811671257019	133842.45756744305
0.7853479981422424	186797.11119100297
0.7880334854125977	232267.63149837859
0.7907378077507019	250608.7072417581
0.7934610247612	230823.8875866075
0.7962033748626709	257844.95857089906
0.7989648580551147	350917.52943386993
0.801745593547821	417649.5832140341
0.8045456409454346	450929.66881923075
0.8073651194572449	476471.52336006006
0.8102040886878967	493830.13542943733
0.8130625486373901	513323.0613906931
0.8159406185150146	546001.0372322795
0.8188382983207703	580180.3356304605
0.8217556476593018	605458.1925885273
0.8246926665306091	630469.5009081297
0.8276493549346924	655993.480598405
0.8306257724761963	677587.1419448812
0.8336219191551208	699890.2827132101
0.8366377949714661	722168.977960152
0.8396733403205872	751278.1349545735
0.8427285552024841	792827.9771224341
0.8458034992218018	831989.0227678138
0.8488980531692505	858692.6268864638
0.8520121574401855	882168.5295334044
0.8551458716392517	919049.3052573345
0.8582990765571594	960087.6437404102
0.8614717125892639	989651.4175972973
0.8646637797355652	1017301.2451838987
0.8678751587867737	1051343.470306539
0.8711057901382446	1087612.5331778217
0.8743556141853333	1119417.2355602102
0.87762451171875	1143385.0572816334
0.8809124231338501	1161020.9402144365
0.8842192888259888	1177027.427839736
0.8875449895858765	1188727.0139129886
0.8908893465995789	1180982.7311983665
0.894252359867096	1172500.6880386372
0.8976338505744934	1222137.626983823
0.9010337591171265	1316959.41153141
0.9044519662857056	1393210.9327805457
0.9078882932662964	1442669.626626183
0.9113426208496094	1479564.4447002986
0.914814829826355	1492778.2893450412
0.9183048605918884	1508822.0661803982
0.9218124747276306	1523015.9023740094
0.925337553024292	1382113.7513914646
0.9288799166679382	1106581.393398065
0.9324395060539246	975375.3197741038
0.9360161423683167	1061369.8781380428
0.9396095871925354	1204696.8346433574
0.943219780921936	1206037.6316120538
0.9468464851379395	1133942.6440154335
0.9504896402359009	1188450.1663279403
0.9541489481925964	1312918.2478688946
0.9578243494033813	1338323.1912425659
0.9615156054496765	1231602.7787945047
0.9652225375175476	1191161.698101744
0.9689450263977051	1352673.9112866046
0.9726828336715698	1638150.9039048837
0.9764357805252075	1842855.4652547606
0.9802037477493286	1951413.4277495225
0.983986496925354	2065166.717438896
0.9877838492393494	2198090.1435987353
0.9915955662727356	2349120.4898179644
0.9954215884208679	2478999.4106752914
0.9992615580558777	2578892.84154687
1.0031154155731201	2665027.415505383
1.0069829225540161	2761600.109042903
1.0108637809753418	2873326.7229015087
1.0147579908370972	2984198.111364726
1.018665075302124	3074130.9571739878
1.022585153579712	3125177.078904058
1.0265177488327026	3153956.9491673275
1.0304628610610962	3216285.9638225297
1.0344202518463135	3340117.9632468615
1.0383895635604858	3462533.841691937
1.0423706769943237	3547974.319490866
1.0463634729385376	3614938.262894715
1.0503677129745483	3675752.104068487
1.0543830394744873	3755371.4075598577
1.058409333229065	3846566.9561120872
1.0624464750289917	3926612.309608767
1.0664942264556885	3992601.226825063
1.0705522298812866	4052866.734162709
1.0746204853057861	4126696.9872488836
1.0786986351013184	4210095.374338974
1.0827864408493042	4282425.665598335
1.086883783340454	4303935.111804974
1.0909905433654785	4248078.8308753995
1.0951062440872192	4079678.232273573
1.0992310047149658	3515377.290216123
1.10336434841156	2691721.5621179882
1.1075061559677124	2367363.129259213
1.1116561889648438	2298027.792726375
1.115814208984375	1985275.6003208808
1.1199802160263062	1713247.5491691246
1.124153733253479	1713218.156880078
1.1283347606658936	1827142.1466869798
1.1325229406356812	1770840.548354113
1.1367181539535522	1981852.0815717704
1.1409201622009277	2505747.4773624544
1.145128846168518	2803564.2222997597
1.1493438482284546	2399982.788251944
1.1535650491714478	1485199.3988938215
1.1577922105789185	1116984.3249251288
1.1620250940322876	1503206.8937715178
1.1662636995315552	2149471.1754629463
1.170507550239563	2652346.029912364
1.174756646156311	3265742.031707783
1.1790107488632202	4130306.370021389
1.1832695007324219	4804771.434478806
1.1875330209732056	5199368.605609101
1.191800832748413	5574061.569756714
1.1960728168487549	6017241.09747257
1.2003488540649414	6319003.764558926
1.2046287059783936	6475098.313270291
1.2089121341705322	6617582.815892751
1.2131990194320679	6791468.150762385
1.2174891233444214	7006278.744006149
1.2217823266983032	7227602.726102699
1.2260783910751343	7422851.898487653
1.230377197265625	7574987.129933174
1.2346785068511963	7699982.891516456
1.238982081413269	7848484.683944561
1.2432878017425537	7991094.801981357
1.2475954294204712	8094082.061159351
1.2519049644470215	8188489.242962435
1.256216049194336	8315561.020029018
1.2605286836624146	8418856.640283117
1.2648425102233887	8472673.563057365
1.2691574096679688	8521704.322908899
1.2734732627868652	8586178.531360311
1.2777899503707886	8641218.789285503
1.2821072340011597	8643414.415372195
1.2864248752593994	8550079.988398794
1.2907428741455078	8361185.668081409
1.2950609922409058	8297126.931902968
1.2993791103363037	8270998.846495792
1.303696870803833	8080522.023564548
1.3080145120620728	7944000.314702185
1.3123314380645752	8015790.692652845
1.3166478872299194	8277405.261036862
1.3209635019302368	8065204.435816657
1.3252781629562378	6988497.1501257075
1.3295916318893433	5236742.488772623
1.3339040279388428	2994608.605152666
1.3382149934768677	1180949.0946806746
1.3425244092941284	433492.7533588446
1.3468321561813354	326942.9127715808
1.3511382341384888	245517.27894091696
1.3554422855377197	140137.40362083208
1.3597444295883179	113304.71719041515
1.3640443086624146	111296.11393430301
1.3683418035507202	164546.66148112985
1.3726370334625244	400783.81902185106
1.3769296407699585	683864.1138046341
1.381219506263733	546280.5008588707
1.3855066299438477	191575.24058763433
1.3897908926010132	68788.92080341687
1.3940720558166504	89216.56836676177
1.3983501195907593	154468.84896754398
1.4026249647140503	313887.3730588679
1.4068963527679443	426744.3653046316
1.4111642837524414	312484.025202299
1.4154287576675415	204745.64793746025
1.419689416885376	191460.83859397247
1.4239463806152344	175781.92229946764
1.4281994104385376	249334.48553647517
1.4324485063552856	363131.1845827001
1.436693549156189	431267.74201374035
1.440934419631958	538530.7191197145
1.4451709985733032	919916.2328064364
1.449403166770935	1654166.523188087
1.453631043434143	2195371.214467419
1.4578542709350586	2466059.967679356
1.4620729684829712	2814553.0105145653
1.4662868976593018	2825464.257883103
1.4704961776733398	2417805.9790033894
1.4747005701065063	2139391.2321169865
1.4788999557495117	2307029.6800247417
1.4830944538116455	3163068.1184730376
1.4872838258743286	4166973.509714206
1.491468071937561	4465032.874304331
1.4956470727920532	4311425.679271857
1.4998208284378052	4669128.223618285
1.5039892196655273	5383399.792404204
1.5081522464752197	5646655.503957934
1.5123097896575928	6034767.68488388
1.5164618492126465	7048128.008118406
1.5206083059310913	8421264.76975957
1.5247491598129272	9459630.368629733
1.5288842916488647	9717533.674873617
1.5330137014389038	10044195.812647553
1.5371372699737549	10681562.612292508
1.541254997253418	11097957.705494821
1.545366883277893	11504344.812819716
1.5494728088378906	12012154.316129744
1.5535727739334106	12314170.106415657
1.5576666593551636	12350662.83200973
1.561754584312439	12649075.17758095
1.5658363103866577	13361417.858323535
1.5699119567871094	13750135.51440475
1.5739814043045044	13355113.705686755
1.5780447721481323	12657508.681099007
1.582101821899414	12956102.106545154
1.5861525535583496	14099926.705051323
1.5901970863342285	14543728.656672318
1.5942351818084717	14147151.264068548
1.5982669591903687	13554823.72688257
1.6022924184799194	13176161.44096759
1.606311559677124	13096101.372580731
1.6103241443634033	12891809.658429777
1.6143304109573364	12287633.459318917
1.6183301210403442	11412077.90681293
1.6223233938217163	10354274.525273327
1.6263102293014526	9187693.367312783
1.6302905082702637	8237876.360772347
1.634264349937439	8992844.211343313
1.638231635093689	11520026.326066393
1.6421923637390137	12754800.24690505
1.646146535873413	11343844.711409178
1.6500942707061768	9819099.814457202
1.6540353298187256	10403655.14513766
1.6579699516296387	11455183.651299207
1.661897897720337	10644885.234807543
1.6658192873001099	7852589.588029583
1.6697341203689575	6405676.379553965
1.6736423969268799	8147402.900518053
1.677544116973877	9311197.817018984
1.6814392805099487	8824735.370564524
1.6853278875350952	8344632.628284525
1.6892099380493164	7654240.352425383
1.6930854320526123	6388073.026007223
1.696954369544983	5032497.282571382
1.7008168697357178	4666473.4859006945
1.7046726942062378	5254403.786149951
1.708522081375122	6137837.866338192
1.712364912033081	6991442.282843308
1.7162011861801147	7891791.516500668
1.7200311422348022	8801284.404126307
1.723854422569275	9011606.535518335
1.7276713848114014	8540762.94286343
1.731481909751892	7827060.295617176
1.7352858781814575	7149518.926378616
1.7390835285186768	6874828.385062869
1.7428747415542603	6650557.854083901
1.7466596364974976	6043007.284531674
1.7504380941390991	5253418.145067817
1.7542102336883545	4869410.985561799
1.7579760551452637	5786983.347676237
1.7617355585098267	6749194.891391849
1.7654887437820435	5963693.485305625
1.7692357301712036	4208613.210969788
1.7729763984680176	2560089.0714611015
1.776710867881775	1374422.1707696558
1.7804391384124756	968771.3033263861
1.7841613292694092	999458.3826007539
1.7878772020339966	879414.3261689367
1.7915871143341064	995174.7726195465
1.7952908277511597	1682588.2046005542
1.7989884614944458	2063984.7126865904
1.8026801347732544	1316281.423049773
1.806365728378296	449572.09023260657
1.8100452423095703	411359.4359814325
1.8137187957763672	556299.8324525539
1.817386507987976	461733.1996905041
1.8210482597351074	560300.137135114
1.8247040510177612	616776.362962169
1.828354001045227	309101.65658962744
1.8319982290267944	184310.75577613586
1.8356364965438843	405678.47868148825
1.8392690420150757	650753.580559536
1.8428958654403687	650425.9920073908
1.8465168476104736	674858.2577354826
1.8501322269439697	884281.8908995574
1.8537418842315674	764630.0713674345
1.8573459386825562	461895.60865768755
1.860944390296936	334400.3839125324
1.864537239074707	200457.10520468975
1.8681244850158691	162370.08473797693
1.871706247329712	344571.9271319488
1.8752825260162354	737889.5470687313
1.8788533210754395	1561666.095687195
1.8824186325073242	2232376.9297802844
1.8859784603118896	1991756.0836332696
1.8895330429077148	1712386.4386629898
1.8930821418762207	2299433.7566109705
1.8966259956359863	2363072.741870022
1.9001644849777222	1099183.1902464896
1.9036977291107178	212218.67112318348
1.9072256088256836	170166.99165449015
1.9107483625411987	168809.08844906095
1.9142658710479736	92049.91322980585
1.9177782535552979	96571.25265159491
1.9212853908538818	160728.74791883092
1.9247875213623047	169126.7112404688
1.9282845258712769	183390.7798503277
1.9317764043807983	274308.6160829213
1.9352631568908691	334502.1597193558
1.9387450218200684	351973.9899211594
1.942221760749817	454688.48841823975
1.9456936120986938	613676.662222706
1.9491604566574097	830953.1740630673
1.952622413635254	841065.5168865176
1.956079363822937	592732.7046003604
1.959531545639038	519825.95099023974
1.962978720664978	610845.7337718952
1.966421127319336	947775.3149583571
1.9698586463928223	1578387.8888105021
1.9732913970947266	1915302.7868662092
1.9767193794250488	2089415.266112849
1.9801424741744995	2630407.4901381084
1.9835609197616577	3271589.9246478835
1.9869745969772339	3365013.635443613
1.990383505821228	2843917.1943425923
1.9937876462936401	2761662.9666802473
1.9971871376037598	2943178.737279423
2.000581979751587	3272553.144918512
2.003972291946411	4366899.420889733
2.007357597351074	5516523.457073019
2.0107386112213135	6616068.201719639
2.0141148567199707	6832350.842640268
2.017486572265625	5884879.012778646
2.0208535194396973	6001325.368624683
2.0242159366607666	7141101.169615509
2.027573823928833	8032998.245261622
2.0309269428253174	8940976.80055308
2.034275770187378	9767256.456154918
2.0376198291778564	10471179.767818475
2.040959596633911	11597967.914891219
2.044294595718384	13031130.058706192
2.0476250648498535	14261843.733466396
2.0509510040283203	14326208.500525255
2.054272413253784	13442546.062134156
2.057589530944824	13560996.632110888
2.0609018802642822	14627647.31286912
2.0642096996307373	15483442.442718495
2.0675129890441895	15990097.891413022
2.0708119869232178	16176007.005493704
2.074106216430664	15987043.512471821
2.0773961544036865	15789339.934561472
2.080681324005127	15936219.845133044
2.0839622020721436	16088592.28897765
2.087238311767578	16124879.428962192
2.090510129928589	16046594.73348725
2.0937774181365967	15747965.073607253
2.0970399379730225	15538694.667458558
2.1002981662750244	15405698.29843264
2.1035518646240234	15099759.812233925
2.1068007946014404	14725762.339229029
2.1100454330444336	14654507.096110195
2.1132853031158447	14631302.528233768
2.116520881652832	14106762.671624048
2.1197516918182373	13562562.615355859
2.1229779720306396	13447694.597761836
2.12619948387146	13546971.965660678
2.1294167041778564	13577281.680448128
2.132629156112671	13514485.665054917
2.1358368396759033	13082812.45797314
2.139039993286133	12303615.504590778
2.1422386169433594	11502984.877572423
2.145432472229004	10729970.062115854
2.1486217975616455	10176040.01652062
2.151806354522705	9637952.54958375
2.1549863815307617	9578055.140485473
2.1581614017486572	9722983.319043854
2.16133189201355	9091894.476070281
2.1644976139068604	8484439.396036655
2.167658567428589	8412756.525833512
2.1708147525787354	8648887.259497533
2.173966407775879	8888535.201965274
2.1771130561828613	8780604.080034414
2.1802549362182617	8282400.14744216
2.183391809463501	7541680.697863965
2.1865241527557373	6771098.152828528
2.1896514892578125	5927809.433749645
2.1927738189697266	4663116.291245218
2.1958916187286377	3046179.538972637
2.1990041732788086	1810323.200832561
2.2021119594573975	1310554.4327984795
2.2052149772644043	1293284.0200381626
2.208312749862671	1496451.1936642162
2.2114057540893555	1782295.8677606164
2.214493751525879	1962737.2791913457
2.217576742172241	1872716.3363546305
2.2206547260284424	1692670.367266012
2.2237277030944824	1589986.4715301946
2.2267956733703613	1374844.4147238294
2.2298583984375	1054913.796578746
2.2329163551330566	845612.1403464952
2.235969066619873	774913.0047114529
2.2390167713165283	720857.9323077975
2.2420592308044434	588278.2902048415
2.2450966835021973	441598.1326537973
2.248128890991211	460002.58675465686
2.2511560916900635	606843.1883119828
2.254178285598755	695369.7500207914
2.257194995880127	757682.2899712275
2.260206699371338	771430.002230811
2.2632133960723877	649293.0260176022
2.266214609146118	518181.7855871802
2.2692108154296875	491628.0362067326
2.2722020149230957	575569.0089743608
2.2751877307891846	676647.5194855282
2.278168201446533	675591.5489451406
2.2811436653137207	606376.2385987854
2.284113883972168	559251.7764877733
2.287078857421875	517546.3702041734
2.290038824081421	467922.05897369876
2.2929933071136475	464394.1890356342
2.295942783355713	502087.1058492596
2.298887014389038	530449.7196163173
2.301826238632202	582694.2560060173
2.304760217666626	811750.1231939143
2.3076889514923096	1262369.0336494443
2.310612440109253	1658913.1020533908
2.3135311603546143	1551862.5886287584
2.3164443969726562	933408.6197349392
2.319352865219116	443487.56162279606
2.322256088256836	362791.17200307205
2.3251543045043945	394732.7371988511
2.328047275543213	390355.3358103691
2.330935478210449	382828.9353078412
2.3338186740875244	375032.67101720726
2.3366971015930176	355273.00887965335
2.3395702838897705	335586.8753719458
2.3424389362335205	306035.02675178513
2.3453025817871094	264148.71888955263
2.348161458969116	248785.05548176437
2.351015567779541	304917.31704640156
2.353865146636963	421982.10340832983
2.3567099571228027	527134.8671069823
2.3595502376556396	606948.469826176
2.3623859882354736	678024.5855818222
2.3652172088623047	639034.7926149672
2.368043899536133	441653.46010764624
2.370866537094116	251856.1600817334
2.3736846446990967	213430.03082849787
2.3764986991882324	266388.5621031113
2.3793084621429443	326832.59129359707
2.3821144104003906	398845.8245711776
2.384916305541992	498196.3697203893
2.387714147567749	559329.5895800834
2.3905084133148193	524089.7273159252
2.393299102783203	484874.27523007407
2.3960859775543213	509894.61293545255
2.398869514465332	563576.173850052
2.4016497135162354	573397.3458474311
2.4044265747070312	558502.8775054124
2.407200336456299	656730.5226651983
2.409970998764038	861356.8017935561
2.4127390384674072	994857.2211510111
2.415503978729248	1040663.11091195
2.418266534805298	1177377.0230703629
2.4210267066955566	1325434.938248637
2.4237842559814453	1212413.20602019
2.426539897918701	1036714.4565708167
2.429293394088745	1202050.7297744597
2.4320452213287354	1531851.0950418042
2.4347951412200928	1615215.8353711271
2.4375438690185547	1534310.191979147
2.440291166305542	1567591.3267714498
2.443037271499634	1589515.3850626363
2.445782423019409	1378578.3235046251
2.4485268592834473	1079586.9995337357
2.451270818710327	1021396.5305936062
2.454014539718628	1280049.665936854
2.4567582607269287	1511277.9086174818
2.4595019817352295	1547223.6504398875
2.4622461795806885	1688259.2357305337
2.4649908542633057	1729689.261436398
2.4677364826202393	1350475.6235570584
2.4704833030700684	914071.6839736823
2.473231554031372	672369.3128397663
2.4759814739227295	543945.3115626038
2.4787333011627197	489903.41067854984
2.481487512588501	530534.2674732098
