#wavelength	surface flux
0.6450077295303345	4103.129844103453
0.6472567915916443	6407.551116633762
0.6494921445846558	8247.395118947441
0.6517150402069092	9328.401644611937
0.6539263725280762	10407.958731390805
0.6561272740364075	11531.070483252957
0.6583186388015747	12725.54444899677
0.6605015397071838	14010.719695440386
0.6626768708229065	15368.994643244745
0.6648455858230591	16749.621642819337
0.6670085787773132	17738.492226402872
0.6691668033599854	17555.37597261763
0.6713210344314575	18006.50602468361
0.6734722256660461	21040.98767869277
0.6756211519241333	24311.65358128573
0.6777685880661011	26399.45804375974
0.6799154281616211	28216.127077616413
0.6820623278617859	30022.278399033858
0.6842101216316223	31829.642140619017
0.6863595843315125	33629.493874293126
0.688511312007904	35337.611752565375
0.6906660795211792	36695.205709878486
0.6928245425224304	37955.59419028998
0.6949873566627502	39838.538458803254
0.6971551775932312	41936.04916915432
0.6993286609649658	43546.49821965763
0.7015084028244019	44836.68314365173
0.7036949396133423	46212.50548827966
0.7058889269828796	47642.56589669965
0.7080909013748169	48737.83118409664
0.710301399230957	49582.78490810268
0.712520956993103	50214.73050312259
0.7147500514984131	50065.909884630564
0.7169892191886902	49204.21479834917
0.7192389369010925	48714.21217763413
0.7214996814727783	48302.664915903886
0.723771870136261	46940.32052539155
0.7260559797286987	45039.63451857867
0.7283523678779602	43085.41415374031
0.7306615710258484	41130.1692952024
0.7329838871955872	39197.72759916774
0.7353196740150452	36843.88328320959
0.7376693487167358	33942.094957576395
0.7400332689285278	30694.314233449768
0.7424117922782898	27103.69588478434
0.7448052167892456	23419.4057597451
0.7472138404846191	19790.918315302348
0.7496379613876343	16239.97071640319
0.7520779371261597	12905.894499414033
0.7545340061187744	9893.766006282609
0.7570064663887024	7256.707581727772
0.7594954967498779	4991.071524733247
0.7620013952255249	3054.9822520715734
0.7645244002342224	1517.8107102616368
0.7670646905899048	655.9900253245082
0.7696225643157959	701.3646034840849
0.7721980810165405	1894.982922320259
0.7747915983200073	4196.504321483174
0.7774031162261963	7009.021060448095
0.7800329327583313	10533.552936225547
0.7826811671257019	16009.411588889448
0.7853479981422424	23325.29524440727
0.7880334854125977	31403.992718505033
0.7907378077507019	36688.46573924914
0.7934610247612	36945.89337454995
0.7962033748626709	47312.16382276611
0.7989648580551147	72194.4558943714
0.801745593547821	94925.69693778142
0.8045456409454346	112879.67727502441
0.8073651194572449	129910.34753277925
0.8102040886878967	145087.3144255532
0.8130625486373901	161908.9894891305
0.8159406185150146	185060.4841098303
0.8188382983207703	210119.95689298774
0.8217556476593018	232221.86005941938
0.8246926665306091	255065.70465961364
0.8276493549346924	278817.7609637767
0.8306257724761963	301030.3923529478
0.8336219191551208	324059.8983296364
0.8366377949714661	347769.5961447267
0.8396733403205872	376996.72304879915
0.8427285552024841	415093.71638739796
0.8458034992218018	450217.12630215514
0.8488980531692505	466105.56222839403
0.8520121574401855	476724.1803248368
0.8551458716392517	522109.53831398283
0.8582990765571594	583213.451638764
0.8614717125892639	624921.2311114074
0.8646637797355652	659135.5888633213
0.8678751587867737	696669.9877594967
0.8711057901382446	736741.4904690369
0.8743556141853333	774921.6929897197
0.87762451171875	807183.5570646841
0.8809124231338501	829543.0582878191
0.8842192888259888	844957.6542556427
0.8875449895858765	853326.8327531569
0.8908893465995789	831475.0911594355
0.894252359867096	804192.0127929817
0.8976338505744934	862080.0660104352
0.9010337591171265	984703.0473316142
0.9044519662857056	1076102.9052324549
0.9078882932662964	1128688.1864695037
0.9113426208496094	1166377.218410487
0.914814829826355	1178308.166053954
0.9183048605918884	1193106.693175758
0.9218124747276306	1204834.3625509131
0.925337553024292	1051930.9048155663
0.9288799166679382	764335.0640196915
0.9324395060539246	622946.140920079
0.9360161423683167	694215.1896190362
0.9396095871925354	826409.7254580086
0.943219780921936	821845.6933703398
0.9468464851379395	741529.6884404498
0.9504896402359009	787055.616631865
0.9541489481925964	909178.3626191035
0.9578243494033813	933924.6837957986
0.9615156054496765	822177.4472263852
0.9652225375175476	773076.9720028563
0.9689450263977051	929191.418406031
0.9726828336715698	1213591.6911914076
0.9764357805252075	1418426.1099134935
0.9802037477493286	1528301.273647435
0.983986496925354	1644924.7362472063
0.9877838492393494	1790342.6838812844
0.9915955662727356	1962400.6084229255
0.9954215884208679	2106023.0148929534
0.9992615580558777	2212446.0417418666
1.0031154155731201	2305957.145631965
1.0069829225540161	2411734.2423318126
1.0108637809753418	2534654.464244081
1.0147579908370972	2657077.604723615
1.018665075302124	2755606.1460418957
1.022585153579712	2817078.056155053
1.0265177488327026	2864545.250434201
1.0304628610610962	2939565.590990395
1.0344202518463135	3045777.0217101225
1.0383895635604858	3141118.454314576
1.0423706769943237	3211907.7158687375
1.0463634729385376	3269932.792974675
1.0503677129745483	3327241.363333473
1.0543830394744873	3396868.946379202
1.058409333229065	3470415.5417546486
1.0624464750289917	3532352.986345123
1.0664942264556885	3578852.561307203
1.0705522298812866	3618584.57971463
1.0746204853057861	3674917.2871157867
1.0786986351013184	3742480.70163592
1.0827864408493042	3794947.1456510923
1.086883783340454	3775187.510760009
1.0909905433654785	3641611.19915085
1.0951062440872192	3382991.529781477
1.0992310047149658	2745685.720085271
1.10336434841156	1880192.9964824251
1.1075061559677124	1507056.2072152486
1.1116561889648438	1397603.7963804551
1.115814208984375	1109935.3848531959
1.1199802160263062	898386.3740223208
1.124153733253479	906081.7006367284
1.1283347606658936	998789.9688686997
1.1325229406356812	1000722.6628405553
1.1367181539535522	1187945.3975605273
1.1409201622009277	1544353.1431093246
1.145128846168518	1738884.718786342
1.1493438482284546	1462302.5502556304
1.1535650491714478	809800.5819225896
1.1577922105789185	525566.6419125354
1.1620250940322876	768343.4289354215
1.1662636995315552	1201385.3584924103
1.170507550239563	1572083.0781888752
1.174756646156311	2109030.6131424303
1.1790107488632202	2903605.807189783
1.1832695007324219	3575787.800889171
1.1875330209732056	4001173.6882956345
1.191800832748413	4419437.642722105
1.1960728168487549	4919527.257932438
1.2003488540649414	5276612.935349811
1.2046287059783936	5471816.349991152
1.2089121341705322	5598333.537580169
1.2131990194320679	5745361.499094505
1.2174891233444214	5980295.277814006
1.2217823266983032	6237648.1920071505
1.2260783910751343	6463706.181888822
1.230377197265625	6633017.885218161
1.2346785068511963	6762592.301793099
1.238982081413269	6919870.068227925
1.2432878017425537	7077354.856024239
1.2475954294204712	7206549.515747767
1.2519049644470215	7327969.308558417
1.256216049194336	7455235.01021177
1.2605286836624146	7541449.158468202
1.2648425102233887	7579322.546041923
1.2691574096679688	7613614.648221301
1.2734732627868652	7655830.247279409
1.2777899503707886	7667772.961785434
1.2821072340011597	7616027.3812612705
1.2864248752593994	7458685.7679224685
1.2907428741455078	7179776.028654212
1.2950609922409058	7059787.043947719
1.2993791103363037	6995992.987668558
1.303696870803833	6714711.423392302
1.3080145120620728	6486228.783007099
1.3123314380645752	6524303.972401389
1.3166478872299194	6808738.586902065
1.3209635019302368	6542478.241042114
1.3252781629562378	5342998.077880916
1.3295916318893433	3700284.795039858
1.3339040279388428	1921425.134925997
1.3382149934768677	665624.0295819341
1.3425244092941284	211718.5754324003
1.3468321561813354	140386.30064058988
1.3511382341384888	100471.22173034718
1.3554422855377197	53549.85077295811
1.3597444295883179	41542.499151806776
1.3640443086624146	39459.764448515314
1.3683418035507202	60200.37961876339
1.3726370334625244	157988.51821725603
1.3769296407699585	275756.62270280713
1.381219506263733	219428.226199679
1.3855066299438477	74568.03995944966
1.3897908926010132	24923.6950701593
1.3940720558166504	33153.833872985204
1.3983501195907593	63145.95875825843
1.4026249647140503	130352.97040242457
1.4068963527679443	173854.90207936298
1.4111642837524414	126424.08764908164
1.4154287576675415	83912.22824378265
1.419689416885376	78711.87500275123
1.4239463806152344	71220.85543338292
1.4281994104385376	102635.84670300137
1.4324485063552856	159920.89619847134
1.436693549156189	199379.95771649768
1.440934419631958	251055.37681983568
1.4451709985733032	448142.7775826122
1.449403166770935	845250.8283866419
1.453631043434143	1148068.6937628933
1.4578542709350586	1307542.6396570625
1.4620729684829712	1508389.2804801618
1.4662868976593018	1494780.4047888028
1.4704961776733398	1194830.851906268
1.4747005701065063	960135.1185504019
1.4788999557495117	993237.9681661214
1.4830944538116455	1381845.3899359556
1.4872838258743286	1791476.975255948
1.491468071937561	1733042.5244440509
1.4956470727920532	1489953.1112175775
1.4998208284378052	1707600.2269141236
1.5039892196655273	2213895.411315534
1.5081522464752197	2406753.8966151737
1.5123097896575928	2569434.4630750646
1.5164618492126465	3079938.8428663793
1.5206083059310913	3848098.5693418253
1.5247491598129272	4695883.390944652
1.5288842916488647	5291009.899868208
1.5330137014389038	5570691.04483548
1.5371372699737549	6074245.445935176
1.541254997253418	6944331.039367682
1.545366883277893	7605399.052224378
1.5494728088378906	7960067.193748918
1.5535727739334106	8361200.902614997
1.5576666593551636	8863237.940240484
1.561754584312439	9557214.546955062
1.5658363103866577	10290458.368804421
1.5699119567871094	10573544.954460021
1.5739814043045044	10435666.857203946
1.5780447721481323	10279697.066700395
1.582101821899414	10538982.925593013
1.5861525535583496	11025181.088462569
1.5901970863342285	11098936.447231982
1.5942351818084717	10737845.240360519
1.5982669591903687	10313361.91070528
1.6022924184799194	9937269.257418362
1.606311559677124	9590064.960878221
1.6103241443634033	9315309.468306405
1.6143304109573364	8830860.196150566
1.6183301210403442	7955130.571918903
1.6223233938217163	6863182.350915548
1.6263102293014526	5703782.54022967
1.6302905082702637	4838470.3700446645
1.634264349937439	5428915.612159834
1.638231635093689	7472109.231733643
1.6421923637390137	8470722.573635967
1.646146535873413	7223559.874558279
1.6500942707061768	5841901.256838163
1.6540353298187256	6226410.823774946
1.6579699516296387	7061556.495457939
1.661897897720337	6509194.946849869
1.6658192873001099	4564087.033870779
1.6697341203689575	3498595.5361806974
1.6736423969268799	4529166.847145905
1.677544116973877	5172986.142079761
1.6814392805099487	4733395.546492604
1.6853278875350952	4340468.695113696
1.6892099380493164	3869566.607222935
1.6930854320526123	3127231.64685352
1.696954369544983	2349292.173829588
1.7008168697357178	2105088.1553943125
1.7046726942062378	2433161.532461205
1.708522081375122	2968876.263905722
1.712364912033081	3505280.6489893226
1.7162011861801147	4060944.5387163516
1.7200311422348022	4591333.680165028
1.723854422569275	4674636.656973438
1.7276713848114014	4357088.034714321
1.731481909751892	3956185.7023564246
1.7352858781814575	3615916.7065461446
1.7390835285186768	3514100.110747415
1.7428747415542603	3450464.0856488585
1.7466596364974976	3171234.3972602324
1.7504380941390991	2775370.9981583925
1.7542102336883545	2553079.6651542275
1.7579760551452637	2919376.356397464
1.7617355585098267	3263165.7086141803
1.7654887437820435	2837771.079793012
1.7692357301712036	2054833.590612534
1.7729763984680176	1297658.671044757
1.776710867881775	714774.2022649265
1.7804391384124756	503722.3724044835
1.7841613292694092	504995.733050942
1.7878772020339966	440888.2299691274
1.7915871143341064	486454.40618434746
1.7952908277511597	787057.3232013402
1.7989884614944458	946740.3930622822
1.8026801347732544	602271.5322023326
1.806365728378296	203723.55446867654
1.8100452423095703	168341.30832095892
1.8137187957763672	220962.27317630293
1.817386507987976	180398.38036150445
1.8210482597351074	214908.81010563608
1.8247040510177612	236922.98749761345
1.828354001045227	119427.34404830619
1.8319982290267944	75222.06924807675
1.8356364965438843	167233.0773752565
1.8392690420150757	268284.08167573495
1.8428958654403687	278874.45872474473
1.8465168476104736	311987.41295671766
1.8501322269439697	424180.25723520597
1.8537418842315674	373673.97461460717
1.8573459386825562	235682.9580685348
1.860944390296936	176777.81369352443
1.864537239074707	99839.81460449907
1.8681244850158691	66983.19295881057
1.871706247329712	145015.26602974857
1.8752825260162354	332880.21771998855
1.8788533210754395	752587.7048428591
1.8824186325073242	1112933.2489854614
1.8859784603118896	999318.8323402277
1.8895330429077148	816907.5907007862
1.8930821418762207	1025322.606795759
1.8966259956359863	1024209.9815192481
1.9001644849777222	464295.70683854574
1.9036977291107178	80638.96207377069
1.9072256088256836	60616.15457855996
1.9107483625411987	60639.70609500322
1.9142658710479736	32698.61210976632
1.9177782535552979	37827.005599091855
1.9212853908538818	66528.42017787354
1.9247875213623047	68437.08003836774
1.9282845258712769	66362.48553113731
1.9317764043807983	86969.3120569884
1.9352631568908691	98351.28581277291
1.9387450218200684	98972.59343793955
1.942221760749817	123129.88657259278
1.9456936120986938	190140.86275761604
1.9491604566574097	288840.209807686
1.952622413635254	293380.8724146984
1.956079363822937	200088.3024447032
1.959531545639038	181871.5735454857
1.962978720664978	256767.59807177752
1.966421127319336	391050.86460174416
1.9698586463928223	561810.4715271844
1.9732913970947266	624005.3369402942
1.9767193794250488	558344.0076377259
1.9801424741744995	611879.4412085451
1.9835609197616577	904177.870684948
1.9869745969772339	1098391.6153826138
1.990383505821228	1043889.9903443048
1.9937876462936401	1129283.77734716
1.9971871376037598	1231783.8015330073
2.000581979751587	1323827.0298827973
2.003972291946411	1663286.1467255563
2.007357597351074	2022632.5133399442
2.0107386112213135	2399111.806593597
2.0141148567199707	2400704.7681780565
2.017486572265625	1880187.4886137322
2.0208535194396973	1560951.2369440456
2.0242159366607666	1524766.8399079917
2.027573823928833	1812119.131512753
2.0309269428253174	2290773.950890772
2.034275770187378	2480270.8862710893
2.0376198291778564	2775237.913591334
2.040959596633911	3411284.984394972
2.044294595718384	4027474.813219316
2.0476250648498535	4582704.187909921
2.0509510040283203	4715267.436425301
2.054272413253784	4325022.867912178
2.057589530944824	4319620.127156187
2.0609018802642822	4792774.074660748
2.0642096996307373	5100319.406359318
2.0675129890441895	5182164.843687118
2.0708119869232178	5171611.048444649
2.074106216430664	5109771.207270118
2.0773961544036865	5100721.218275571
2.080681324005127	5151693.163179028
2.0839622020721436	5159487.772155226
2.087238311767578	5134550.2323868405
2.090510129928589	5103277.2607370885
2.0937774181365967	5033520.11684852
2.0970399379730225	4964288.681006673
2.1002981662750244	4893055.206601397
2.1035518646240234	4774039.814100675
2.1068007946014404	4619806.5564705515
2.1100454330444336	4551854.955313674
2.1132853031158447	4539936.627536359
2.116520881652832	4423051.0222238
2.1197516918182373	4280014.49903438
2.1229779720306396	4215721.957243451
2.12619948387146	4208177.067863453
2.1294167041778564	4192064.4931660695
2.132629156112671	4142397.364206891
2.1358368396759033	4001608.155150161
2.139039993286133	3803515.389384864
2.1422386169433594	3618606.526541753
2.145432472229004	3433285.3877104777
2.1486217975616455	3270874.8437899915
2.151806354522705	3072651.4224890345
2.1549863815307617	3015939.7937260033
2.1581614017486572	3056045.1982889352
2.16133189201355	2893462.4163376605
2.1644976139068604	2722290.8884149347
2.167658567428589	2694968.6578478497
2.1708147525787354	2792688.7861973206
2.173966407775879	2929055.767544597
2.1771130561828613	2895038.7202681215
2.1802549362182617	2640382.8958454155
2.183391809463501	2345138.2801028145
2.1865241527557373	2128123.2021526173
2.1896514892578125	1875134.2954785228
2.1927738189697266	1486202.9533825566
2.1958916187286377	1030717.4096652404
2.1990041732788086	677790.2960003499
2.2021119594573975	522599.26290447806
2.2052149772644043	501823.64501716755
2.208312749862671	513347.58728960605
2.2114057540893555	569321.3149844718
2.214493751525879	651860.6901852007
2.217576742172241	654763.0601795205
2.2206547260284424	602634.9226731926
2.2237277030944824	571073.130909729
2.2267956733703613	516722.40156085865
2.2298583984375	423675.6400393275
2.2329163551330566	354361.7953626497
2.235969066619873	325610.9919336842
2.2390167713165283	294350.4305707224
2.2420592308044434	218757.92766165876
2.2450966835021973	125115.34695769209
2.248128890991211	105541.65284305123
2.2511560916900635	162047.70361006772
2.254178285598755	205737.2950250155
2.257194995880127	247103.6168971516
2.260206699371338	284908.1109277049
2.2632133960723877	261954.7992535987
2.266214609146118	217086.16890950594
2.2692108154296875	205594.14934305268
2.2722020149230957	237903.75081507445
2.2751877307891846	279549.4857522659
2.278168201446533	277865.63998470077
2.2811436653137207	240584.55054328288
2.284113883972168	211051.3119693553
2.287078857421875	192352.5498726947
2.290038824081421	178746.13212827334
2.2929933071136475	186919.86589298723
2.295942783355713	203532.06603256974
2.298887014389038	191799.20859032855
2.301826238632202	171162.97945348543
2.304760217666626	239412.91214882646
2.3076889514923096	404860.0598143197
2.310612440109253	540976.7294264346
2.3135311603546143	515698.4815711587
2.3164443969726562	319043.7184006487
2.319352865219116	158413.87369649793
2.322256088256836	144955.53465204957
2.3251543045043945	170423.94333960462
2.328047275543213	173012.11814858
2.330935478210449	167571.02709037135
2.3338186740875244	159731.90546950523
2.3366971015930176	145035.9284971869
2.3395702838897705	132540.41507589535
2.3424389362335205	116867.05343509269
2.3453025817871094	96386.32033177762
2.348161458969116	92333.13078755459
2.351015567779541	123500.56081627526
2.353865146636963	181219.9259066962
2.3567099571228027	230509.5865668902
2.3595502376556396	266282.088553119
2.3623859882354736	297454.36284586944
2.3652172088623047	276479.12442677206
2.368043899536133	183644.56911895858
2.370866537094116	98078.05677599525
2.3736846446990967	82905.08751658942
2.3764986991882324	110903.70800448538
2.3793084621429443	145221.750204075
2.3821144104003906	182248.7916175137
2.384916305541992	228470.55646505335
2.387714147567749	256520.06396663212
2.3905084133148193	238246.7351918382
2.393299102783203	219228.3544086763
2.3960859775543213	233503.69858241646
2.398869514465332	262316.12660136726
2.4016497135162354	268195.4522394928
2.4044265747070312	261560.9985852985
2.407200336456299	316555.73681088554
2.409970998764038	431178.20962161437
2.4127390384674072	505443.0515429514
2.415503978729248	517083.3715816145
2.418266534805298	558394.4504847396
2.4210267066955566	615687.7964105753
2.4237842559814453	574929.6399132834
2.426539897918701	521162.6743023044
2.429293394088745	637078.2965486224
2.4320452213287354	826042.2388672244
2.4347951412200928	870982.106497343
2.4375438690185547	831159.4860109197
2.440291166305542	871461.6086510633
2.443037271499634	903049.7841163599
2.445782423019409	782596.2248455562
2.4485268592834473	604498.5141526764
2.451270818710327	575647.04962235
2.454014539718628	725629.5050906972
2.4567582607269287	851092.6609348641
2.4595019817352295	883429.1563564508
2.4622461795806885	973509.6990704829
2.4649908542633057	992375.9305155542
2.4677364826202393	778596.5169115864
2.4704833030700684	535161.7644512703
2.473231554031372	405235.4515217311
2.4759814739227295	337849.9751606507
2.4787333011627197	304741.24341657263
2.481487512588501	320267.588004234
2.4842441082000732	337394.0189312611
