#wavelength	surface flux
0.6450077295303345	132125.65372841954
0.6472567915916443	208099.5441481312
0.6494921445846558	271487.31041995797
0.6517150402069092	311558.8376888342
0.6539263725280762	352764.4134173586
0.6561272740364075	396598.7721762775
0.6583186388015747	442799.58775435283
0.6605015397071838	490776.66358254076
0.6626768708229065	539229.2828585064
0.6648455858230591	582226.6516513418
0.6670085787773132	586625.6970100855
0.6691668033599854	507536.1740312521
0.6713210344314575	470588.3489802121
0.6734722256660461	623648.0330461818
0.6756211519241333	824439.6809220699
0.6777685880661011	944555.6645794297
0.6799154281616211	1027387.8622231905
0.6820623278617859	1101483.464646524
0.6842101216316223	1171957.1571217275
0.6863595843315125	1239616.7017937745
0.688511312007904	1303399.3361031138
0.6906660795211792	1360442.633222714
0.6928245425224304	1412451.5463608988
0.6949873566627502	1467604.6383223466
0.6971551775932312	1523048.4540936574
0.6993286609649658	1569646.9406650674
0.7015084028244019	1608021.7383454298
0.7036949396133423	1638255.188089643
0.7058889269828796	1658008.1456364638
0.7080909013748169	1667382.2943498772
0.710301399230957	1667427.794858502
0.712520956993103	1656758.2542112763
0.7147500514984131	1631563.846853016
0.7169892191886902	1591647.1292771676
0.7192389369010925	1540206.5437713822
0.7214996814727783	1477357.0585991074
0.723771870136261	1401607.0728085143
0.7260559797286987	1315222.1163303836
0.7283523678779602	1220324.5197034383
0.7306615710258484	1124845.9945017328
0.7329838871955872	1032701.5045801859
0.7353196740150452	929203.3021142187
0.7376693487167358	812835.084143768
0.7400332689285278	695161.032416105
0.7424117922782898	579929.6811745269
0.7448052167892456	470232.2084186643
0.7472138404846191	367854.2607508103
0.7496379613876343	274565.5184670926
0.7520779371261597	193676.89346747933
0.7545340061187744	127404.64991737854
0.7570064663887024	76774.75036726405
0.7594954967498779	41516.231777680514
0.7620013952255249	19511.878287978652
0.7645244002342224	7502.211008679982
0.7670646905899048	2541.1439710726113
0.7696225643157959	2742.4694464849076
0.7721980810165405	9319.774332029494
0.7747915983200073	25767.980078988818
0.7774031162261963	52240.8571060758
0.7800329327583313	97201.59294912493
0.7826811671257019	184282.45998330344
0.7853479981422424	314320.4353329727
0.7880334854125977	467872.3734514197
0.7907378077507019	576906.7461156502
0.7934610247612	596850.4875210698
0.7962033748626709	813561.5159605443
0.7989648580551147	1329469.8249016893
0.801745593547821	1833609.8845980898
0.8045456409454346	2263144.6120297494
0.8073651194572449	2703632.9915199243
0.8102040886878967	3164621.607390541
0.8130625486373901	3678233.7297531087
0.8159406185150146	4232190.307821102
0.8188382983207703	4828228.784556944
0.8217556476593018	5569533.439712465
0.8246926665306091	6392476.423505191
0.8276493549346924	7178718.953890547
0.8306257724761963	8017813.651054193
0.8336219191551208	8976884.01544004
0.8366377949714661	9966496.070368363
0.8396733403205872	10969846.647073932
0.8427285552024841	12058786.083380183
0.8458034992218018	13036837.950648963
0.8488980531692505	13014873.608725952
0.8520121574401855	12675385.182869751
0.8551458716392517	14733515.427464966
0.8582990765571594	17588187.952208526
0.8614717125892639	18075484.80526839
0.8646637797355652	18100121.783810627
0.8678751587867737	19520747.65570457
0.8711057901382446	21209000.207028434
0.8743556141853333	22759145.127075814
0.87762451171875	24560757.927911013
0.8809124231338501	26301138.044452906
0.8842192888259888	27990522.964536957
0.8875449895858765	29196269.89839419
0.8908893465995789	28312501.63386319
0.894252359867096	27371814.174065582
0.8976338505744934	31580683.87430314
0.9010337591171265	39086447.36601491
0.9044519662857056	44835846.13159034
0.9078882932662964	48871543.918494776
0.9113426208496094	52198488.73763168
0.914814829826355	54634050.56764594
0.9183048605918884	56869750.13554109
0.9218124747276306	57408593.78571863
0.925337553024292	52312000.7251948
0.9288799166679382	46358110.406125076
0.9324395060539246	46519370.97420008
0.9360161423683167	50758645.37641462
0.9396095871925354	54557192.027842194
0.943219780921936	55060428.967730336
0.9468464851379395	52361419.92578592
0.9504896402359009	54804563.85663714
0.9541489481925964	65148375.262266375
0.9578243494033813	70086286.16498014
0.9615156054496765	63539277.429132916
0.9652225375175476	56347526.66837902
0.9689450263977051	62780655.57414941
0.9726828336715698	78696509.88422123
0.9764357805252075	87237518.60851623
0.9802037477493286	90244398.1096556
0.983986496925354	96830397.31672895
0.9877838492393494	100547309.57918349
0.9915955662727356	96971116.50621392
0.9954215884208679	90581005.0946479
0.9992615580558777	81706195.88104223
1.0031154155731201	76130197.22345136
1.0069829225540161	80009426.5059566
1.0108637809753418	89651531.75245166
1.0147579908370972	100154849.99073246
1.018665075302124	107774442.15818152
1.022585153579712	110982901.15017429
1.0265177488327026	113989609.24998719
1.0304628610610962	121706572.82189061
1.0344202518463135	131431757.52878374
1.0383895635604858	138914481.67289054
1.0423706769943237	144655876.48170465
1.0463634729385376	150226222.68893808
1.0503677129745483	155504278.94558135
1.0543830394744873	162257082.13382405
1.058409333229065	170221011.79064372
1.0624464750289917	176480855.07997665
1.0664942264556885	180756824.70609877
1.0705522298812866	184748902.72670135
1.0746204853057861	189878669.08860987
1.0786986351013184	194483864.92754602
1.0827864408493042	197232261.45549902
1.086883783340454	191490548.6187854
1.0909905433654785	171985749.89485997
1.0951062440872192	149734936.32058042
1.0992310047149658	119653407.19075598
1.10336434841156	79922981.97630918
1.1075061559677124	58508285.79496126
1.1116561889648438	51533884.4288307
1.115814208984375	45341195.00662772
1.1199802160263062	47056891.86606191
1.124153733253479	51348433.06886309
1.1283347606658936	46061458.57050612
1.1325229406356812	35582851.87365133
1.1367181539535522	41115742.75553742
1.1409201622009277	61414657.23644333
1.145128846168518	75277015.50067449
1.1493438482284546	70560999.17071325
1.1535650491714478	55809514.439219
1.1577922105789185	49113279.60946755
1.1620250940322876	49437859.61724621
1.1662636995315552	53694521.07253898
1.170507550239563	59141194.96583053
1.174756646156311	64948857.46695878
1.1790107488632202	78823825.37414086
1.1832695007324219	94005702.54699631
1.1875330209732056	99927134.85512342
1.191800832748413	115961091.90237504
1.1960728168487549	144219779.89483798
1.2003488540649414	160094641.1581134
1.2046287059783936	167027740.7423327
1.2089121341705322	171347797.78851038
1.2131990194320679	177418988.5883198
1.2174891233444214	191088249.20245245
1.2217823266983032	203122594.33677095
1.2260783910751343	210133923.32045007
1.230377197265625	216250204.58519188
1.2346785068511963	217642470.3281179
1.238982081413269	207006998.5344811
1.2432878017425537	192466751.1231829
1.2475954294204712	185919798.6274349
1.2519049644470215	184285078.32308695
1.256216049194336	204223347.4735394
1.2605286836624146	233680017.23145548
1.2648425102233887	243772473.70143476
1.2691574096679688	251165781.78455746
1.2734732627868652	262231222.3524716
1.2777899503707886	262814273.78551167
1.2821072340011597	253890583.67958272
1.2864248752593994	249518992.1363238
1.2907428741455078	248668677.15700263
1.2950609922409058	243606867.6006771
1.2993791103363037	226181962.12157288
1.303696870803833	211387633.9320683
1.3080145120620728	210795603.74001688
1.3123314380645752	211325759.06345385
1.3166478872299194	208665382.47037396
1.3209635019302368	189194970.54715857
1.3252781629562378	154719132.8024051
1.3295916318893433	109876947.70153247
1.3339040279388428	54135847.61511591
1.3382149934768677	17518277.920251124
1.3425244092941284	8218316.033091084
1.3468321561813354	7100003.112920477
1.3511382341384888	6528428.438878092
1.3554422855377197	5221083.111928244
1.3597444295883179	6249828.473732481
1.3640443086624146	9044768.86322662
1.3683418035507202	8691129.218028517
1.3726370334625244	7558734.16616812
1.3769296407699585	8806984.353729067
1.381219506263733	7561365.999150372
1.3855066299438477	4425808.582503072
1.3897908926010132	4288663.860523945
1.3940720558166504	5779248.622183124
1.3983501195907593	5637195.258191258
1.4026249647140503	5821353.810405028
1.4068963527679443	7057052.732771909
1.4111642837524414	7237192.18615569
1.4154287576675415	7178226.849077149
1.419689416885376	6824881.101777993
1.4239463806152344	6324794.675968022
1.4281994104385376	5504039.316563756
1.4324485063552856	4636799.6735865045
1.436693549156189	5889029.370245737
1.440934419631958	8905832.561080202
1.4451709985733032	13654980.378295124
1.449403166770935	19113848.026273143
1.453631043434143	19675426.432101812
1.4578542709350586	18301657.063894123
1.4620729684829712	21839385.162353512
1.4662868976593018	25110591.459264472
1.4704961776733398	19741104.404667966
1.4747005701065063	13253123.780209797
1.4788999557495117	16363255.909855835
1.4830944538116455	25632871.051219173
1.4872838258743286	29287280.31244542
1.491468071937561	25197533.194576696
1.4956470727920532	25381758.793255437
1.4998208284378052	32882581.79255882
1.5039892196655273	36462122.265624136
1.5081522464752197	32576062.290056776
1.5123097896575928	34128755.67416841
1.5164618492126465	47125402.75649304
1.5206083059310913	61004534.12006464
1.5247491598129272	65012582.4960352
1.5288842916488647	64621065.31029587
1.5330137014389038	68997558.53179331
1.5371372699737549	72643426.74157915
1.541254997253418	71915789.45281295
1.545366883277893	74836828.80643564
1.5494728088378906	79483092.52100551
1.5535727739334106	81828593.5352574
1.5576666593551636	85767149.66811599
1.561754584312439	91746306.65528937
1.5658363103866577	97406275.10930455
1.5699119567871094	99771693.04084006
1.5739814043045044	99326003.80222104
1.5780447721481323	100897146.4085399
1.582101821899414	105579631.36502758
1.5861525535583496	109229395.62453093
1.5901970863342285	108062159.72287358
1.5942351818084717	104078245.69364014
1.5982669591903687	103143793.9881934
1.6022924184799194	102574237.80295362
1.606311559677124	98887058.57883273
1.6103241443634033	97153992.52469376
1.6143304109573364	94906360.41073382
1.6183301210403442	89027441.602255
1.6223233938217163	84784655.4512515
1.6263102293014526	82718758.84371434
1.6302905082702637	82596236.59318733
1.634264349937439	85949088.54703155
1.638231635093689	90610862.12150867
1.6421923637390137	91663772.25992544
1.646146535873413	85359047.52432668
1.6500942707061768	79092557.73798212
1.6540353298187256	79396540.98921955
1.6579699516296387	79794417.07578705
1.661897897720337	74109648.18498328
1.6658192873001099	58531414.20199943
1.6697341203689575	48285648.782943174
1.6736423969268799	56004247.425075226
1.677544116973877	63915574.46192967
1.6814392805099487	63698469.88945613
1.6853278875350952	59816448.130421825
1.6892099380493164	53987780.78808168
1.6930854320526123	48346099.81083911
1.696954369544983	44818523.17204384
1.7008168697357178	44042180.96358068
1.7046726942062378	44229848.17344581
1.708522081375122	45511894.409347765
1.712364912033081	45619866.072725974
1.7162011861801147	44123794.17881205
1.7200311422348022	44762718.912165664
1.723854422569275	44816055.43451424
1.7276713848114014	41131343.91884812
1.731481909751892	36067533.36593592
1.7352858781814575	33688622.06804713
1.7390835285186768	34410143.3319908
1.7428747415542603	33808451.01722854
1.7466596364974976	28671139.81101648
1.7504380941390991	23599097.281904653
1.7542102336883545	23838834.968443245
1.7579760551452637	28062976.437164053
1.7617355585098267	32962270.52216686
1.7654887437820435	33134792.71324613
1.7692357301712036	26142891.951510124
1.7729763984680176	18209474.18398504
1.776710867881775	12715665.504667785
1.7804391384124756	10690150.375051823
1.7841613292694092	10912831.344769524
1.7878772020339966	10767726.93079066
1.7915871143341064	13714169.603844821
1.7952908277511597	17090351.0189069
1.7989884614944458	15726871.503890187
1.8026801347732544	11450519.801906405
1.806365728378296	8234024.369843581
1.8100452423095703	7367869.07618378
1.8137187957763672	6666018.834266042
1.817386507987976	5380272.995850163
1.8210482597351074	8014706.70847375
1.8247040510177612	12934513.5508962
1.828354001045227	12148513.290369285
1.8319982290267944	8009659.200468563
1.8356364965438843	8225550.390637469
1.8392690420150757	11616163.663409367
1.8428958654403687	12809982.503708398
1.8465168476104736	11621683.095273806
1.8501322269439697	10238750.098899579
1.8537418842315674	8754162.697480474
1.8573459386825562	8063149.150334955
1.860944390296936	6611014.95320615
1.864537239074707	3900329.721838343
1.8681244850158691	2991816.4387660087
1.871706247329712	4859122.710208184
1.8752825260162354	7743540.498912086
1.8788533210754395	8740551.900621848
1.8824186325073242	8959325.947904902
1.8859784603118896	11882272.831195457
1.8895330429077148	15277595.984745478
1.8930821418762207	13703508.682935664
1.8966259956359863	10339223.001820624
1.9001644849777222	8914198.844564332
1.9036977291107178	7444861.764116157
1.9072256088256836	9321719.228288194
1.9107483625411987	11541526.833193945
1.9142658710479736	8657938.393955594
1.9177782535552979	7422569.279066504
1.9212853908538818	7031617.458883159
1.9247875213623047	3797342.2839894868
1.9282845258712769	2734816.92071855
1.9317764043807983	5746197.075985211
1.9352631568908691	10414672.049423596
1.9387450218200684	11083957.916276652
1.942221760749817	7353630.704319248
1.9456936120986938	4823634.832789336
1.9491604566574097	4453852.559249476
1.952622413635254	5598885.613006334
1.956079363822937	9299715.699033018
1.959531545639038	12961913.02634775
1.962978720664978	11583990.924378626
1.966421127319336	9162915.512760581
1.9698586463928223	10616350.697580213
1.9732913970947266	11884022.364457138
1.9767193794250488	12037748.965279464
1.9801424741744995	12806568.670663668
1.9835609197616577	13091381.601916771
1.9869745969772339	14427837.893083235
1.990383505821228	15690425.864098415
1.9937876462936401	15298815.479557915
1.9971871376037598	13481655.085088072
2.000581979751587	11695158.863946494
2.003972291946411	13973044.343445221
2.007357597351074	17263388.372674543
2.0107386112213135	18446536.319178443
2.0141148567199707	17873674.167989075
2.017486572265625	15906745.054389577
2.0208535194396973	16363272.69372662
2.0242159366607666	18735299.926821332
2.027573823928833	19047390.622530233
2.0309269428253174	18454341.947884712
2.034275770187378	20028192.6458544
2.0376198291778564	23555372.26672018
2.040959596633911	26493721.970081333
2.044294595718384	27460317.61344703
2.0476250648498535	27480623.007820137
2.0509510040283203	26435777.708645243
2.054272413253784	24718652.593960445
2.057589530944824	25190902.133280255
2.0609018802642822	27618213.512525078
2.0642096996307373	29283778.11403372
2.0675129890441895	29736604.169416636
2.0708119869232178	29634570.357111085
2.074106216430664	29240905.696088392
2.0773961544036865	29460224.77486449
2.080681324005127	30087517.362862185
2.0839622020721436	30094811.596000284
2.087238311767578	29584486.3366603
2.090510129928589	29184254.345381785
2.0937774181365967	29254283.761185106
2.0970399379730225	29229468.445235495
2.1002981662750244	28422250.799901832
2.1035518646240234	27722981.579078004
2.1068007946014404	27823698.66925872
2.1100454330444336	27991533.509912446
2.1132853031158447	27673636.768091194
2.116520881652832	26825489.393782414
2.1197516918182373	26013140.67753198
2.1229779720306396	25662688.57746115
2.12619948387146	25358322.024149038
2.1294167041778564	25136575.717386287
2.132629156112671	25188675.249125905
2.1358368396759033	24679006.58747346
2.139039993286133	23767480.565085035
2.1422386169433594	23076883.51297892
2.145432472229004	22464839.127625342
2.1486217975616455	21970277.032454796
2.151806354522705	21346552.892345104
2.1549863815307617	21212989.878324974
2.1581614017486572	21746060.724781785
2.16133189201355	21994947.729188327
2.1644976139068604	21726855.541260492
2.167658567428589	20773919.224538907
2.1708147525787354	19718876.40864336
2.173966407775879	19536526.578793637
2.1771130561828613	19827727.83484907
2.1802549362182617	19484442.568342004
2.183391809463501	18359553.860755995
2.1865241527557373	17264629.252979722
2.1896514892578125	16435458.852409586
2.1927738189697266	15036376.777334131
2.1958916187286377	12361238.989419613
2.1990041732788086	9330160.035553547
2.2021119594573975	7630474.343540729
2.2052149772644043	7326770.886630323
2.208312749862671	7636682.468392735
2.2114057540893555	8686921.049859878
2.214493751525879	9804888.059045874
2.217576742172241	9565442.314989347
2.2206547260284424	8721072.281543158
2.2237277030944824	8005074.896128244
2.2267956733703613	6917451.206908917
2.2298583984375	6012917.47291949
2.2329163551330566	5802560.088983334
2.235969066619873	6078552.007283654
2.2390167713165283	6122622.842805036
2.2420592308044434	5584738.239100909
2.2450966835021973	5031167.484495477
2.248128890991211	4885437.465900007
2.2511560916900635	5127137.962648663
2.254178285598755	5835282.966541074
2.257194995880127	6921957.55595556
2.260206699371338	6660333.240811825
2.2632133960723877	4708203.76329477
2.266214609146118	3914070.943274558
2.2692108154296875	5269808.748378335
2.2722020149230957	6601778.736410086
2.2751877307891846	6489855.530779634
2.278168201446533	5948964.962337353
2.2811436653137207	5835869.466023385
2.284113883972168	5516763.166271396
2.287078857421875	4725462.963900715
2.290038824081421	4226236.241117379
2.2929933071136475	4304679.580910253
2.295942783355713	4472358.409455727
2.298887014389038	4728248.025251597
2.301826238632202	5394896.705954252
2.304760217666626	6570657.001308632
2.3076889514923096	8059922.048643208
2.310612440109253	9413259.272901587
2.3135311603546143	10152565.302325595
2.3164443969726562	8896951.254420415
2.319352865219116	5680190.530273063
2.322256088256836	3531584.7004016167
2.3251543045043945	3165389.395968942
2.328047275543213	3091795.0506680757
2.330935478210449	3005588.7968271878
2.3338186740875244	2802760.2073596218
2.3366971015930176	2506867.8615805064
2.3395702838897705	2330567.382669757
2.3424389362335205	2278704.2170305364
2.3453025817871094	2230886.278160768
2.348161458969116	2196083.6497704773
2.351015567779541	2702738.1676232573
2.353865146636963	4231986.393551958
2.3567099571228027	6113765.762434902
2.3595502376556396	7238220.4013260575
2.3623859882354736	7045798.29525785
2.3652172088623047	5498874.010812773
2.368043899536133	3498031.0722663617
2.370866537094116	2304480.805469521
2.3736846446990967	2230320.5864734603
2.3764986991882324	2478537.9313834244
2.3793084621429443	2521348.3302304656
2.3821144104003906	2702816.5259750923
2.384916305541992	3281607.2092437646
2.387714147567749	3837332.3434798266
2.3905084133148193	3867183.8435455295
2.393299102783203	3580648.1887787543
2.3960859775543213	3284159.4933387972
2.398869514465332	3300797.994963954
2.4016497135162354	3947877.3065351285
2.4044265747070312	5017543.511944917
2.407200336456299	5795395.588403713
2.409970998764038	5878249.091886897
2.4127390384674072	5716864.019070808
2.415503978729248	5713469.529164244
2.418266534805298	5817397.582826228
2.4210267066955566	5806459.348192104
2.4237842559814453	5524826.503587606
2.426539897918701	5504611.621065653
2.429293394088745	6323154.70030101
2.4320452213287354	7126886.666266678
2.4347951412200928	6857116.826983349
2.4375438690185547	6110132.119127201
2.440291166305542	5821432.046219147
2.443037271499634	5863176.930176177
2.445782423019409	6113138.967394318
2.4485268592834473	6582094.963859304
2.451270818710327	6717997.888541098
2.454014539718628	6518045.7040011315
2.4567582607269287	6415363.505608578
2.4595019817352295	6418689.5239336975
2.4622461795806885	7114075.060025351
2.4649908542633057	8039221.894721124
2.4677364826202393	7556507.066651782
2.4704833030700684	5750331.210277064
2.473231554031372	3910724.5221883226
2.4759814739227295	2810208.728633322
2.4787333011627197	2400300.3096097014
2.481487512588501	2461469.3346770573
