#wavelength	surface flux
0.6450077295303345	721123.2721544413
0.6472567915916443	1127890.4749852596
0.6494921445846558	1452951.474693204
0.6517150402069092	1641931.55956382
0.6539263725280762	1831491.7807444765
0.6561272740364075	2029380.3084595997
0.6583186388015747	2231954.580677561
0.6605015397071838	2431282.4921280397
0.6626768708229065	2610060.530487941
0.6648455858230591	2719538.109779894
0.6670085787773132	2567519.2413300006
0.6691668033599854	1990816.742899895
0.6713210344314575	1690172.8192024603
0.6734722256660461	2411769.158649275
0.6756211519241333	3469588.714945438
0.6777685880661011	4139367.1750424886
0.6799154281616211	4548139.71380601
0.6820623278617859	4870547.152834333
0.6842101216316223	5159130.611197565
0.6863595843315125	5419306.705714145
0.688511312007904	5638949.214855507
0.6906660795211792	5826432.060941651
0.6928245425224304	6029558.159034776
0.6949873566627502	6286957.375654727
0.6971551775932312	6571126.22758077
0.6993286609649658	6796791.9215893755
0.7015084028244019	6937331.1662575845
0.7036949396133423	7022751.111835409
0.7058889269828796	7064284.936760551
0.7080909013748169	7063196.091183998
0.710301399230957	7020529.492737833
0.712520956993103	6934301.543585827
0.7147500514984131	6796102.515783702
0.7169892191886902	6605501.99808173
0.7192389369010925	6371091.939549633
0.7214996814727783	6094534.29060803
0.723771870136261	5775728.97836933
0.7260559797286987	5421680.918934302
0.7283523678779602	5037403.577880948
0.7306615710258484	4645914.640814222
0.7329838871955872	4259168.597645075
0.7353196740150452	3840155.6249602465
0.7376693487167358	3387644.4144768347
0.7400332689285278	2933676.6849011704
0.7424117922782898	2487719.3134694663
0.7448052167892456	2058413.27175478
0.7472138404846191	1650990.7647780967
0.7496379613876343	1270524.291441697
0.7520779371261597	927720.302476979
0.7545340061187744	631637.6345152495
0.7570064663887024	390216.9283275403
0.7594954967498779	210113.7066188345
0.7620013952255249	92525.79538629402
0.7645244002342224	30255.006112550647
0.7670646905899048	7514.571276384672
0.7696225643157959	8401.214243173485
0.7721980810165405	37977.2289454277
0.7747915983200073	119155.9634207612
0.7774031162261963	251923.96648843953
0.7800329327583313	464039.23448734113
0.7826811671257019	851538.561242833
0.7853479981422424	1397398.493536106
0.7880334854125977	1998603.5451204497
0.7907378077507019	2391649.4799351036
0.7934610247612	2406856.9306513434
0.7962033748626709	3138423.691540965
0.7989648580551147	4972262.592560536
0.801745593547821	6719078.0337339435
0.8045456409454346	8145306.332387233
0.8073651194572449	9591700.266743373
0.8102040886878967	11109143.692941489
0.8130625486373901	12717873.291177254
0.8159406185150146	14107314.06497248
0.8188382983207703	15501467.485921014
0.8217556476593018	18011430.726990376
0.8246926665306091	21147132.170260157
0.8276493549346924	23885522.173569154
0.8306257724761963	26617410.66367753
0.8336219191551208	29653828.474950444
0.8366377949714661	32777298.402509805
0.8396733403205872	35938732.20490784
0.8427285552024841	39290812.19500008
0.8458034992218018	42111428.12232649
0.8488980531692505	41294307.99322216
0.8520121574401855	39345513.00402991
0.8551458716392517	45684400.52265542
0.8582990765571594	52965515.413191535
0.8614717125892639	48045189.399096616
0.8646637797355652	41423547.963025704
0.8678751587867737	43262489.5235148
0.8711057901382446	46857167.175298095
0.8743556141853333	50040261.801207446
0.87762451171875	55009453.15922513
0.8809124231338501	59570667.532631256
0.8842192888259888	63588999.6799517
0.8875449895858765	66167386.378874466
0.8908893465995789	64593952.911189176
0.894252359867096	65546481.25469866
0.8976338505744934	77242170.39604229
0.9010337591171265	93679926.40690908
0.9044519662857056	106179432.96580255
0.9078882932662964	115440360.82058033
0.9113426208496094	124138307.44846198
0.914814829826355	130726616.49690191
0.9183048605918884	136153078.91849566
0.9218124747276306	138638349.04957077
0.925337553024292	132074145.16431354
0.9288799166679382	125469129.21413784
0.9324395060539246	128784217.28052531
0.9360161423683167	137659580.87831143
0.9396095871925354	144667212.3072775
0.943219780921936	146109787.51702964
0.9468464851379395	144347137.2164678
0.9504896402359009	152535064.58723614
0.9541489481925964	173182141.02886254
0.9578243494033813	183618965.4258734
0.9615156054496765	172182930.17103055
0.9652225375175476	157977395.12284952
0.9689450263977051	170124391.78756014
0.9726828336715698	201428325.00436264
0.9764357805252075	217710807.13254592
0.9802037477493286	219892135.27603194
0.983986496925354	222986642.20177725
0.9877838492393494	209899545.66192803
0.9915955662727356	179039213.99934053
0.9954215884208679	156412226.14518836
0.9992615580558777	139682148.9693334
1.0031154155731201	128508306.41042663
1.0069829225540161	133771810.26375718
1.0108637809753418	149501396.1050172
1.0147579908370972	167314960.85184377
1.018665075302124	179911546.26851237
1.022585153579712	182744082.11299366
1.0265177488327026	184345297.21751457
1.0304628610610962	197286823.4822862
1.0344202518463135	216822791.79888666
1.0383895635604858	230878370.57187927
1.0423706769943237	239015188.6897485
1.0463634729385376	248427024.91765523
1.0503677129745483	258315202.68524575
1.0543830394744873	268808992.38685584
1.058409333229065	280147604.3648371
1.0624464750289917	289244855.1419722
1.0664942264556885	297780346.94307905
1.0705522298812866	307853471.9767775
1.0746204853057861	319740089.97715425
1.0786986351013184	329977505.97647715
1.0827864408493042	336649213.8614705
1.086883783340454	332729762.0971836
1.0909905433654785	312756510.5600805
1.0951062440872192	288408554.1543077
1.0992310047149658	246113871.46703488
1.10336434841156	184436761.20289066
1.1075061559677124	150112665.56910297
1.1116561889648438	138103043.93628258
1.115814208984375	129956622.53143537
1.1199802160263062	137478309.22503713
1.124153733253479	147174898.75541377
1.1283347606658936	132996613.70737752
1.1325229406356812	102788444.18544544
1.1367181539535522	102017501.58366154
1.1409201622009277	138651125.2273035
1.145128846168518	176140505.6712019
1.1493438482284546	178136056.42195007
1.1535650491714478	155586556.60643753
1.1577922105789185	144726366.54079628
1.1620250940322876	139434009.66717908
1.1662636995315552	134485061.37061936
1.170507550239563	131376502.47079022
1.174756646156311	131538790.69579978
1.1790107488632202	151844072.71653605
1.1832695007324219	185839437.54840353
1.1875330209732056	206886827.5810593
1.191800832748413	237107298.82932213
1.1960728168487549	279413610.5699699
1.2003488540649414	298682785.088659
1.2046287059783936	308534529.14609706
1.2089121341705322	317004219.7015914
1.2131990194320679	327669601.52808857
1.2174891233444214	350311183.1700517
1.2217823266983032	369069155.0925685
1.2260783910751343	379317604.1367252
1.230377197265625	386502542.7284322
1.2346785068511963	382288919.25674707
1.238982081413269	351734710.07306516
1.2432878017425537	313031965.92182106
1.2475954294204712	296189728.10365546
1.2519049644470215	292758057.41105473
1.256216049194336	333363053.79450786
1.2605286836624146	395859958.2466152
1.2648425102233887	420775202.4069048
1.2691574096679688	437415712.4938715
1.2734732627868652	456774194.26289433
1.2777899503707886	459110557.2306834
1.2821072340011597	448471089.5724929
1.2864248752593994	441966476.6427139
1.2907428741455078	439869958.12717175
1.2950609922409058	434370781.04015607
1.2993791103363037	413977165.4284125
1.303696870803833	397152022.99184334
1.3080145120620728	398352185.0117575
1.3123314380645752	400175465.57002157
1.3166478872299194	394038412.9169339
1.3209635019302368	361142537.906666
1.3252781629562378	306663707.32796127
1.3295916318893433	227696053.86133212
1.3339040279388428	119173458.5822463
1.3382149934768677	44444418.660344206
1.3425244092941284	24552426.234299906
1.3468321561813354	22799575.03489428
1.3511382341384888	21888863.62695387
1.3554422855377197	18356660.33370168
1.3597444295883179	22165897.237408273
1.3640443086624146	31057079.250438463
1.3683418035507202	29821934.742690604
1.3726370334625244	26894454.869578034
1.3769296407699585	30356551.196247377
1.381219506263733	25267694.06996438
1.3855066299438477	15851924.51659046
1.3897908926010132	15485264.539318638
1.3940720558166504	19056737.09697712
1.3983501195907593	19089422.4655782
1.4026249647140503	20246067.050323464
1.4068963527679443	23904197.020471778
1.4111642837524414	25635558.890947573
1.4154287576675415	26342353.02891286
1.419689416885376	24752690.553132717
1.4239463806152344	22704891.046647258
1.4281994104385376	20290028.278730102
1.4324485063552856	17097561.89833613
1.436693549156189	18930489.53135379
1.440934419631958	25111898.16020831
1.4451709985733032	34906932.6564032
1.449403166770935	46265021.72304306
1.453631043434143	46969569.320134625
1.4578542709350586	43312788.93248331
1.4620729684829712	49944487.66430543
1.4662868976593018	56475663.999472655
1.4704961776733398	46983629.912486464
1.4747005701065063	35852843.11419372
1.4788999557495117	41819478.05476307
1.4830944538116455	59107953.56785969
1.4872838258743286	66778675.72343242
1.491468071937561	59364431.43778382
1.4956470727920532	58778267.51204836
1.4998208284378052	70826474.06156443
1.5039892196655273	76553496.34301698
1.5081522464752197	70365485.70869887
1.5123097896575928	73860803.47356376
1.5164618492126465	96189715.80719757
1.5206083059310913	118679382.82899857
1.5247491598129272	123580771.5764933
1.5288842916488647	121517401.3926645
1.5330137014389038	128253243.41494036
1.5371372699737549	133170015.43548334
1.541254997253418	130660849.33382416
1.545366883277893	134600539.61339712
1.5494728088378906	141229146.7946854
1.5535727739334106	144404977.6188458
1.5576666593551636	150685917.06196693
1.561754584312439	160039670.51636767
1.5658363103866577	168890817.7083375
1.5699119567871094	172368593.4777271
1.5739814043045044	171996148.4039387
1.5780447721481323	175778077.12812904
1.582101821899414	183651642.76529154
1.5861525535583496	188812462.678392
1.5901970863342285	186908665.7323802
1.5942351818084717	181907952.14370266
1.5982669591903687	182500562.6246102
1.6022924184799194	183912595.4615288
1.606311559677124	179640740.19552124
1.6103241443634033	177690723.30573824
1.6143304109573364	176315772.57357255
1.6183301210403442	170179906.26055223
1.6223233938217163	165973048.95248213
1.6263102293014526	164573106.8205761
1.6302905082702637	163932817.76395732
1.634264349937439	165580111.69787008
1.638231635093689	169322616.00253558
1.6421923637390137	171048973.5466757
1.646146535873413	165951910.6161684
1.6500942707061768	159094830.6770154
1.6540353298187256	156649204.22588024
1.6579699516296387	154577687.65131614
1.661897897720337	146725573.6601283
1.6658192873001099	127558691.99025798
1.6697341203689575	115935559.73414695
1.6736423969268799	127223307.25855684
1.677544116973877	138302723.44953123
1.6814392805099487	137527289.75319073
1.6853278875350952	131338775.78745556
1.6892099380493164	121857671.09121062
1.6930854320526123	111521869.88275851
1.696954369544983	106112017.29662098
1.7008168697357178	106074284.23574302
1.7046726942062378	105814859.68228908
1.708522081375122	104598789.96645772
1.712364912033081	101255881.07321782
1.7162011861801147	97457565.81326179
1.7200311422348022	97061603.3288114
1.723854422569275	95867828.59846957
1.7276713848114014	88915983.28932376
1.731481909751892	77706059.44676992
1.7352858781814575	71452381.68629153
1.7390835285186768	72614258.08550315
1.7428747415542603	71207194.21353851
1.7466596364974976	61549028.07296525
1.7504380941390991	52850654.87457912
1.7542102336883545	52789526.20851877
1.7579760551452637	59726514.42540735
1.7617355585098267	70667279.80499236
1.7654887437820435	73057207.24187718
1.7692357301712036	59435484.0127737
1.7729763984680176	43264340.62731828
1.776710867881775	31626658.738439444
1.7804391384124756	27082149.069368742
1.7841613292694092	27355366.902309634
1.7878772020339966	26540663.18158569
1.7915871143341064	32722211.99380232
1.7952908277511597	40621185.24662009
1.7989884614944458	38037943.80964778
1.8026801347732544	28173298.827648584
1.806365728378296	20197197.19381453
1.8100452423095703	18366229.71971424
1.8137187957763672	17685154.672200542
1.817386507987976	15283636.586443538
1.8210482597351074	21486011.57214755
1.8247040510177612	32755174.426664375
1.828354001045227	30963363.957585543
1.8319982290267944	21752886.15688294
1.8356364965438843	22301247.62421036
1.8392690420150757	28992463.49397574
1.8428958654403687	30076080.001392644
1.8465168476104736	27039445.363225877
1.8501322269439697	25018280.159323145
1.8537418842315674	21922770.21572683
1.8573459386825562	19495474.781277608
1.860944390296936	16425037.42720257
1.864537239074707	11386781.293875296
1.8681244850158691	10103717.329740154
1.871706247329712	14882935.21524619
1.8752825260162354	21085782.814599648
1.8788533210754395	21958585.593298476
1.8824186325073242	21121051.512226418
1.8859784603118896	26283391.21242488
1.8895330429077148	33153540.87098935
1.8930821418762207	30930177.711465515
1.8966259956359863	24772261.796601173
1.9001644849777222	21466405.13999132
1.9036977291107178	17943789.19538525
1.9072256088256836	22073759.07375168
1.9107483625411987	26984548.79834328
1.9142658710479736	21261929.106943946
1.9177782535552979	19234591.475137524
1.9212853908538818	18153500.147648733
1.9247875213623047	10432280.451528681
1.9282845258712769	8214986.301494484
1.9317764043807983	15329076.928091897
1.9352631568908691	25494931.2361858
1.9387450218200684	26745079.98742459
1.942221760749817	18718453.913586993
1.9456936120986938	13315134.635259185
1.9491604566574097	12503382.950013839
1.952622413635254	15205342.564174421
1.956079363822937	23627734.671973772
1.959531545639038	31233011.156883534
1.962978720664978	27376216.981049296
1.966421127319336	21747357.49235784
1.9698586463928223	24475299.003835537
1.9732913970947266	26461856.988828648
1.9767193794250488	26046937.995676212
1.9801424741744995	27097437.569750763
1.9835609197616577	27445884.72003693
1.9869745969772339	30053225.106737554
1.990383505821228	32456376.16094861
1.9937876462936401	31256697.34668806
1.9971871376037598	27548931.1809875
2.000581979751587	24560275.910258308
2.003972291946411	28933744.48153184
2.007357597351074	34479248.33698879
2.0107386112213135	36282309.75137208
2.0141148567199707	35384637.26463401
2.017486572265625	31870943.44621181
2.0208535194396973	32636966.947642416
2.0242159366607666	37068086.585021004
2.027573823928833	37643710.51840869
2.0309269428253174	36609592.614356734
2.034275770187378	39366212.11755286
2.0376198291778564	45051663.28301869
2.040959596633911	49894353.886619784
2.044294595718384	51546814.85524121
2.0476250648498535	51889403.29961257
2.0509510040283203	50608547.06759287
2.054272413253784	47371585.8838905
2.057589530944824	47802854.29174137
2.0609018802642822	52428405.64502779
2.0642096996307373	55699527.67618493
2.0675129890441895	56541637.48136312
2.0708119869232178	56508767.05647104
2.074106216430664	56047458.93546916
2.0773961544036865	56857579.40710036
2.080681324005127	58352833.16508878
2.0839622020721436	58545405.47827161
2.087238311767578	57723043.6469967
2.090510129928589	56951402.92241897
2.0937774181365967	57193859.77412082
2.0970399379730225	57659082.57129362
2.1002981662750244	56598109.44071168
2.1035518646240234	55419909.153358825
2.1068007946014404	55695720.37277982
2.1100454330444336	56134847.151010565
2.1132853031158447	55809337.770144865
2.116520881652832	54795091.99817942
2.1197516918182373	53872373.77633673
2.1229779720306396	53557866.679490946
2.12619948387146	53103462.474956095
2.1294167041778564	52577675.27097131
2.132629156112671	52578393.20101944
2.1358368396759033	52015558.056758195
2.139039993286133	50838994.67758121
2.1422386169433594	50020638.60495124
2.145432472229004	49388209.26251103
2.1486217975616455	48702742.6012473
2.151806354522705	47812724.65987143
2.1549863815307617	47634399.279666744
2.1581614017486572	48266890.657307774
2.16133189201355	48560608.58186455
2.1644976139068604	48247197.710472696
2.167658567428589	46915629.97721423
2.1708147525787354	45084260.5930392
2.173966407775879	44123332.36766428
2.1771130561828613	43929812.84144356
2.1802549362182617	43306019.75117726
2.183391809463501	41843574.918097146
2.1865241527557373	40288410.60198824
2.1896514892578125	39006260.098572396
2.1927738189697266	36909363.44057109
2.1958916187286377	32829049.252774373
2.1990041732788086	28113259.950904824
2.2021119594573975	25282961.151877433
2.2052149772644043	24108618.291146807
2.208312749862671	23628043.698610846
2.2114057540893555	24992692.873530988
2.214493751525879	27229747.952988677
2.217576742172241	27387736.09406443
2.2206547260284424	26450722.30966532
2.2237277030944824	25242609.097316753
2.2267956733703613	22754367.91078814
2.2298583984375	20659962.911453415
2.2329163551330566	20302754.64482502
2.235969066619873	21057694.537968382
2.2390167713165283	21209216.581503823
2.2420592308044434	19988697.37914275
2.2450966835021973	18689663.87137292
2.248128890991211	18332912.333187237
2.2511560916900635	18900736.760167204
2.254178285598755	20432135.42675429
2.257194995880127	22508736.27337058
2.260206699371338	21564906.67571915
2.2632133960723877	17013750.24989502
2.266214609146118	15005866.765492572
2.2692108154296875	17904970.476591554
2.2722020149230957	20865985.76608001
2.2751877307891846	20783751.325934142
2.278168201446533	19874380.138202514
2.2811436653137207	19573065.818271905
2.284113883972168	18531293.221952155
2.287078857421875	16685275.351251274
2.290038824081421	15771054.561012883
2.2929933071136475	16006413.488340944
2.295942783355713	16169867.133868294
2.298887014389038	16519878.560341468
2.301826238632202	17717361.50977853
2.304760217666626	19056409.44649857
2.3076889514923096	20742830.361298814
2.310612440109253	23756772.6533522
2.3135311603546143	26179067.616768386
2.3164443969726562	23767882.182577875
2.319352865219116	17113184.00456171
2.322256088256836	12293491.208338032
2.3251543045043945	10487373.735574495
2.328047275543213	9788905.877675898
2.330935478210449	10234606.262106191
2.3338186740875244	10473176.966843104
2.3366971015930176	9901122.348182006
2.3395702838897705	9411200.33354008
2.3424389362335205	9343748.554652408
2.3453025817871094	9446344.386973329
2.348161458969116	9522787.841802606
2.351015567779541	10831126.688565137
2.353865146636963	14583723.26673038
2.3567099571228027	19007729.494487338
2.3595502376556396	21373742.628722493
2.3623859882354736	20637180.084103737
2.3652172088623047	17090784.164680928
2.368043899536133	12491794.505153183
2.370866537094116	9548345.945341736
2.3736846446990967	9626809.882724665
2.3764986991882324	10612605.870599028
2.3793084621429443	10353178.191196963
2.3821144104003906	9741344.116155326
2.384916305541992	10538552.003221441
2.387714147567749	12538464.088804713
2.3905084133148193	13624777.749967005
2.393299102783203	13232906.102188876
2.3960859775543213	12329133.202262182
2.398869514465332	12171231.097190535
2.4016497135162354	13523795.920558983
2.4044265747070312	15735988.59633479
2.407200336456299	17137674.35312148
2.409970998764038	16757646.646866273
2.4127390384674072	15622104.820673464
2.415503978729248	14892234.657456735
2.418266534805298	14562890.776579037
2.4210267066955566	14376653.98374832
2.4237842559814453	14212628.555375135
2.426539897918701	14587430.910624858
2.429293394088745	16035622.148001716
2.4320452213287354	17264011.77531163
2.4347951412200928	16602611.228729011
2.4375438690185547	14839132.205148237
2.440291166305542	13867772.002586767
2.443037271499634	14086139.792859618
2.445782423019409	15493287.642828023
2.4485268592834473	17205595.0876646
2.451270818710327	16951425.33962984
2.454014539718628	15492886.222911544
2.4567582607269287	14941550.174867842
2.4595019817352295	14804665.335187707
2.4622461795806885	16081723.778461685
2.4649908542633057	17877000.04030345
2.4677364826202393	16420074.77836627
2.4704833030700684	12250860.481761001
2.473231554031372	8387204.153398619
2.4759814739227295	6249310.20774665
2.4787333011627197	5601351.010709216
