#wavelength	surface flux
0.6450077295303345	32468.68847715923
0.6472567915916443	49408.3904729979
0.6494921445846558	60606.05528352825
0.6517150402069092	64729.81715209629
0.6539263725280762	68392.17186468399
0.6561272740364075	71992.39859989355
0.6583186388015747	75654.79622675378
0.6605015397071838	79460.11739577737
0.6626768708229065	83339.34639974977
0.6648455858230591	87098.37788769852
0.6670085787773132	89079.89978653427
0.6691668033599854	86201.27891232878
0.6713210344314575	85906.37825199403
0.6734722256660461	95838.19894544076
0.6756211519241333	106356.96496719916
0.6777685880661011	112016.34812011821
0.6799154281616211	116582.55585121202
0.6820623278617859	121087.98186628634
0.6842101216316223	125620.25544837679
0.6863595843315125	130173.38856533036
0.688511312007904	134567.10998626729
0.6906660795211792	138237.58926910599
0.6928245425224304	141870.22320058677
0.6949873566627502	147138.44097939506
0.6971551775932312	153029.17236577315
0.6993286609649658	158011.23180400179
0.7015084028244019	162545.6196228804
0.7036949396133423	167542.0050041798
0.7058889269828796	172984.6255264214
0.7080909013748169	178052.17648516104
0.710301399230957	182980.4238357621
0.712520956993103	187894.03188381312
0.7147500514984131	191444.83014769226
0.7169892191886902	193829.73575814994
0.7192389369010925	197661.80365326672
0.7214996814727783	202136.2007451272
0.723771870136261	204961.24860520108
0.7260559797286987	207057.97237717416
0.7283523678779602	209181.2397672947
0.7306615710258484	211737.38403626514
0.7329838871955872	214945.15895062598
0.7353196740150452	217063.25949365753
0.7376693487167358	217449.21578980822
0.7400332689285278	216004.11649320784
0.7424117922782898	211566.36534780732
0.7448052167892456	204238.76734223973
0.7472138404846191	193387.88497007245
0.7496379613876343	177526.84599314726
0.7520779371261597	155892.8310796436
0.7545340061187744	128267.60945469482
0.7570064663887024	95762.11862096241
0.7594954967498779	61642.28983036204
0.7620013952255249	31511.8339557831
0.7645244002342224	11356.448364007318
0.7670646905899048	2865.1789320014163
0.7696225643157959	3379.158265222993
0.7721980810165405	14937.563885378097
0.7747915983200073	42431.50951899197
0.7774031162261963	79950.85258445071
0.7800329327583313	123576.95302199273
0.7826811671257019	181336.833441285
0.7853479981422424	243489.41891618245
0.7880334854125977	293800.16096205986
0.7907378077507019	311506.12726162386
0.7934610247612	284499.0124109099
0.7962033748626709	309983.8865416816
0.7989648580551147	410597.34481407935
0.801745593547821	480950.7593780227
0.8045456409454346	513486.3047153929
0.8073651194572449	538527.2327337423
0.8102040886878967	556218.7579924461
0.8130625486373901	575928.7287243481
0.8159406185150146	607482.1289695437
0.8188382983207703	640405.3836112535
0.8217556476593018	665527.7462265281
0.8246926665306091	690509.9565662666
0.8276493549346924	716050.262383408
0.8306257724761963	738270.772760268
0.8336219191551208	761209.1834334654
0.8366377949714661	784185.8421163323
0.8396733403205872	813060.3666937548
0.8427285552024841	852697.1189789546
0.8458034992218018	890496.1459852615
0.8488980531692505	918241.5498752927
0.8520121574401855	943519.8040054174
0.8551458716392517	979361.0918434188
0.8582990765571594	1018250.0352617846
0.8614717125892639	1047670.8818323495
0.8646637797355652	1075948.0820034216
0.8678751587867737	1110220.1026885272
0.8711057901382446	1146476.4814255047
0.8743556141853333	1178832.4142997356
0.87762451171875	1204627.3221384624
0.8809124231338501	1225862.13660739
0.8842192888259888	1246568.9451428854
0.8875449895858765	1263445.417232862
0.8908893465995789	1263384.0158641436
0.894252359867096	1262903.4494547548
0.8976338505744934	1311752.3167623854
0.9010337591171265	1398438.2250159255
0.9044519662857056	1469663.600566452
0.9078882932662964	1518753.472340359
0.9113426208496094	1557322.2294831802
0.914814829826355	1576019.1805388373
0.9183048605918884	1597213.9471500698
0.9218124747276306	1616062.1288267693
0.925337553024292	1495746.1160658891
0.9288799166679382	1250237.45833738
0.9324395060539246	1137822.641610675
0.9360161423683167	1230224.3975295892
0.9396095871925354	1372231.0084152324
0.943219780921936	1379190.3635389598
0.9468464851379395	1318694.528436607
0.9504896402359009	1374821.3739611297
0.9541489481925964	1494108.0362474958
0.9578243494033813	1522333.7314906954
0.9615156054496765	1430862.6204728605
0.9652225375175476	1401448.722784319
0.9689450263977051	1556833.9227577145
0.9726828336715698	1825631.1721732717
0.9764357805252075	2020477.3898663025
0.9802037477493286	2125568.025447011
0.983986496925354	2234058.4043337195
0.9877838492393494	2358376.7388509605
0.9915955662727356	2497662.7773506064
0.9954215884208679	2619102.0232680496
0.9992615580558777	2715119.3726088586
1.0031154155731201	2799401.2914617276
1.0069829225540161	2892735.3982437877
1.0108637809753418	2998753.563207757
1.0147579908370972	3103981.1970731243
1.018665075302124	3191753.458126359
1.022585153579712	3246112.1034471947
1.0265177488327026	3280543.3364792084
1.0304628610610962	3344070.155919902
1.0344202518463135	3463545.790111866
1.0383895635604858	3583077.405172089
1.0423706769943237	3669523.8144048825
1.0463634729385376	3739839.3380265976
1.0503677129745483	3804679.5014579473
1.0543830394744873	3885943.2909134435
1.058409333229065	3977789.448740314
1.0624464750289917	4060381.544116087
1.0664942264556885	4131339.432081508
1.0705522298812866	4197718.461224791
1.0746204853057861	4275131.673110706
1.0786986351013184	4360459.404600931
1.0827864408493042	4436972.306750069
1.086883783340454	4471655.489724694
1.0909905433654785	4442205.570309587
1.0951062440872192	4311988.123591008
1.0992310047149658	3816431.8303605486
1.10336434841156	3070326.571553382
1.1075061559677124	2775373.577637208
1.1116561889648438	2708111.356716957
1.115814208984375	2402674.317633249
1.1199802160263062	2144742.664088224
1.124153733253479	2174360.4939386314
1.1283347606658936	2304379.360515146
1.1325229406356812	2213696.0376470564
1.1367181539535522	2411853.093726614
1.1409201622009277	2984788.2578981672
1.145128846168518	3309276.6855421006
1.1493438482284546	2876841.178458654
1.1535650491714478	1920862.4610974572
1.1577922105789185	1555495.12233321
1.1620250940322876	1988258.73407269
1.1662636995315552	2686911.3190540643
1.170507550239563	3216115.0221127914
1.174756646156311	3817116.0703184363
1.1790107488632202	4644900.2270592125
1.1832695007324219	5275871.014541723
1.1875330209732056	5639908.105382172
1.191800832748413	5980030.475211833
1.1960728168487549	6377146.425033965
1.2003488540649414	6649950.211908459
1.2046287059783936	6796950.923706128
1.2089121341705322	6937207.53184935
1.2131990194320679	7105973.257052381
1.2174891233444214	7306304.262103166
1.2217823266983032	7510731.505138498
1.2260783910751343	7692876.790113833
1.230377197265625	7839538.311813884
1.2346785068511963	7964255.45727629
1.238982081413269	8108382.354516644
1.2432878017425537	8247057.508082037
1.2475954294204712	8351475.420548891
1.2519049644470215	8448548.067200052
1.256216049194336	8576111.066425107
1.2605286836624146	8685044.349651754
1.2648425102233887	8750951.68174751
1.2691574096679688	8812920.74097317
1.2734732627868652	8888721.16377318
1.2777899503707886	8957379.60480085
1.2821072340011597	8982090.236175854
1.2864248752593994	8925658.801246056
1.2907428741455078	8788436.461183682
1.2950609922409058	8755464.536844723
1.2993791103363037	8752560.927604113
1.303696870803833	8611106.552383928
1.3080145120620728	8518225.191591736
1.3123314380645752	8602424.265993863
1.3166478872299194	8840463.660630442
1.3209635019302368	8663199.043774998
1.3252781629562378	7707411.077456546
1.3295916318893433	6006533.697371376
1.3339040279388428	3636937.083367306
1.3382149934768677	1560563.7792805682
1.3425244092941284	638720.4153185394
1.3468321561813354	515848.2853655679
1.3511382341384888	398060.4948098066
1.3554422855377197	236779.6466819322
1.3597444295883179	195797.1532751349
1.3640443086624146	199208.4201802984
1.3683418035507202	286803.97681118967
1.3726370334625244	642959.8091546568
1.3769296407699585	1058165.2098988383
1.381219506263733	842033.9144533058
1.3855066299438477	307882.05284101947
1.3897908926010132	124700.72837892969
1.3940720558166504	158739.08227658467
1.3983501195907593	257490.4623856017
1.4026249647140503	501015.66117428907
1.4068963527679443	677818.7197167964
1.4111642837524414	503000.6927758369
1.4154287576675415	337641.75999705924
1.419689416885376	320047.70280089026
1.4239463806152344	298296.154047647
1.4281994104385376	411785.0963000501
1.4324485063552856	568300.2028781195
1.436693549156189	650915.7929960011
1.440934419631958	806705.4757619186
1.4451709985733032	1319329.7070752373
1.449403166770935	2252973.6572082983
1.453631043434143	2928710.1097265957
1.4578542709350586	3256644.277091562
1.4620729684829712	3665903.8702713293
1.4662868976593018	3684589.8191565215
1.4704961776733398	3231775.618882536
1.4747005701065063	2945344.509764156
1.4788999557495117	3164741.328049652
1.4830944538116455	4141768.9584786203
1.4872838258743286	5275819.883390051
1.491468071937561	5620144.561997308
1.4956470727920532	5472512.37040284
1.4998208284378052	5883079.830400316
1.5039892196655273	6649849.959196667
1.5081522464752197	6908120.662277078
1.5123097896575928	7288211.773163523
1.5164618492126465	8299671.048951917
1.5206083059310913	9654363.82307152
1.5247491598129272	10658790.839255236
1.5288842916488647	10900674.810664957
1.5330137014389038	11225889.769915327
1.5371372699737549	11833028.344509939
1.541254997253418	12188067.797961012
1.545366883277893	12538018.007239867
1.5494728088378906	13016593.42215893
1.5535727739334106	13299419.872078102
1.5576666593551636	13315557.272921428
1.561754584312439	13570529.044088177
1.5658363103866577	14220419.221041776
1.5699119567871094	14586979.729224706
1.5739814043045044	14222307.201337231
1.5780447721481323	13562945.816371059
1.582101821899414	13840191.40210514
1.5861525535583496	14920786.62369761
1.5901970863342285	15365599.348913044
1.5942351818084717	15045365.22958494
1.5982669591903687	14538077.841653707
1.6022924184799194	14225048.922030285
1.606311559677124	14195855.57609008
1.6103241443634033	14036702.66787873
1.6143304109573364	13507291.781669682
1.6183301210403442	12746315.763060873
1.6223233938217163	11818609.846702999
1.6263102293014526	10767806.622224884
1.6302905082702637	9878335.502199113
1.634264349937439	10566450.792337032
1.638231635093689	12908289.385327578
1.6421923637390137	14067726.111629304
1.646146535873413	12806542.607256465
1.6500942707061768	11436878.420668717
1.6540353298187256	12003593.671446923
1.6579699516296387	12985438.58825554
1.661897897720337	12137355.211924735
1.6658192873001099	9282661.321309809
1.6697341203689575	7881238.458516791
1.6736423969268799	9778698.814353852
1.677544116973877	11053630.49189011
1.6814392805099487	10632407.804481408
1.6853278875350952	10187539.285948524
1.6892099380493164	9502881.387061207
1.6930854320526123	8161701.921042669
1.696954369544983	6694259.553689117
1.7008168697357178	6311206.392271104
1.7046726942062378	6938947.98523874
1.708522081375122	7870678.34529649
1.712364912033081	8767299.277496025
1.7162011861801147	9691436.018286556
1.7200311422348022	10614486.888231551
1.723854422569275	10838026.004977727
1.7276713848114014	10381375.108053287
1.731481909751892	9645398.711914316
1.7352858781814575	8920457.238627844
1.7390835285186768	8600521.31444819
1.7428747415542603	8317084.248925797
1.7466596364974976	7618955.611955849
1.7504380941390991	6700376.3856769465
1.7542102336883545	6220457.802226045
1.7579760551452637	7256151.55874313
1.7617355585098267	8382700.090382748
1.7654887437820435	7502748.3868722925
1.7692357301712036	5461379.995497159
1.7729763984680176	3457901.289097903
1.776710867881775	1934125.968660506
1.7804391384124756	1397763.9517216727
1.7841613292694092	1444001.6295044867
1.7878772020339966	1276035.4181869458
1.7915871143341064	1418808.022199223
1.7952908277511597	2270749.6641049255
1.7989884614944458	2698841.101181915
1.8026801347732544	1739013.8042667739
1.806365728378296	644397.384968696
1.8100452423095703	619083.9630794062
1.8137187957763672	833745.7426869782
1.817386507987976	691338.5968369519
1.8210482597351074	829723.4749129701
1.8247040510177612	916305.8635113096
1.828354001045227	471291.30195333087
1.8319982290267944	295220.5719578815
1.8356364965438843	626794.8101686285
1.8392690420150757	988700.8837221958
1.8428958654403687	991063.1518479966
1.8465168476104736	1006399.4482940562
1.8501322269439697	1258626.4641916505
1.8537418842315674	1068336.8038982556
1.8573459386825562	655758.5046978006
1.860944390296936	486063.4858041193
1.864537239074707	302491.88103167055
1.8681244850158691	264149.3092427461
1.871706247329712	545433.8408531111
1.8752825260162354	1088099.6321626264
1.8788533210754395	2136644.700530954
1.8824186325073242	2980140.5528054163
1.8859784603118896	2683759.528579174
1.8895330429077148	2341063.631088462
1.8930821418762207	3072148.355199023
1.8966259956359863	3111917.963353458
1.9001644849777222	1468890.007780171
1.9036977291107178	329526.64357942203
1.9072256088256836	295523.7510579254
1.9107483625411987	292323.70695164887
1.9142658710479736	159434.33624108092
1.9177782535552979	160287.50978929148
1.9212853908538818	260418.28453732643
1.9247875213623047	273155.32144832227
1.9282845258712769	294839.1647756598
1.9317764043807983	433240.8239949537
1.9352631568908691	520805.86603082437
1.9387450218200684	541112.414014591
1.942221760749817	687651.4666165285
1.9456936120986938	897503.1501982257
1.9491604566574097	1165559.2071099526
1.952622413635254	1166289.4859492534
1.956079363822937	833675.1924836716
1.959531545639038	740795.9309466226
1.962978720664978	860792.6696471691
1.966421127319336	1294210.044597427
1.9698586463928223	2104474.1762362043
1.9732913970947266	2544141.8613994154
1.9767193794250488	2796017.2931785122
1.9801424741744995	3493518.4372274787
1.9835609197616577	4273300.52251648
1.9869745969772339	4374477.487901224
1.990383505821228	3709918.86730984
1.9937876462936401	3565359.50679537
1.9971871376037598	3768200.7110180724
2.000581979751587	4180986.937132023
2.003972291946411	5507431.421454134
2.007357597351074	6826575.258704881
2.0107386112213135	8047794.328446191
2.0141148567199707	8319887.936597699
2.017486572265625	7299908.885878085
2.0208535194396973	7546409.983620775
2.0242159366607666	8986504.517577307
2.027573823928833	9964175.75231406
2.0309269428253174	10837060.629144035
2.034275770187378	11766761.322083093
2.0376198291778564	12552918.975656305
2.040959596633911	13590622.97417216
2.044294595718384	14926506.88873589
2.0476250648498535	16121354.662459623
2.0509510040283203	16207906.241498306
2.054272413253784	15415557.694065105
2.057589530944824	15567617.183400935
2.0609018802642822	16572232.21110588
2.0642096996307373	17370645.46597765
2.0675129890441895	17856409.673360795
2.0708119869232178	18047614.92364136
2.074106216430664	17883969.717141364
2.0773961544036865	17707448.293947846
2.080681324005127	17860270.592886277
2.0839622020721436	18025384.82503513
2.087238311767578	18079505.382077605
2.090510129928589	18011133.829721313
2.0937774181365967	17729949.14377164
2.0970399379730225	17546004.556329887
2.1002981662750244	17440596.4011408
2.1035518646240234	17171213.36174473
2.1068007946014404	16845094.9015903
2.1100454330444336	16804852.58153778
2.1132853031158447	16791579.27555912
2.116520881652832	16290617.459526084
2.1197516918182373	15779677.333986709
2.1229779720306396	15690676.140465515
2.12619948387146	15802658.90215167
2.1294167041778564	15840523.006247198
2.132629156112671	15788070.447851937
2.1358368396759033	15371146.906904683
2.139039993286133	14604312.573664203
2.1422386169433594	13809091.211525796
2.145432472229004	13046565.814036787
2.1486217975616455	12500341.986315673
2.151806354522705	11956713.040474148
2.1549863815307617	11890419.036073063
2.1581614017486572	12017418.289020598
2.16133189201355	11363675.090548368
2.1644976139068604	10751572.68859109
2.167658567428589	10678404.423263388
2.1708147525787354	10904962.708971903
2.173966407775879	11115659.229918418
2.1771130561828613	10968427.513635673
2.1802549362182617	10431261.893983973
2.183391809463501	9629554.81703382
2.1865241527557373	8767809.49197914
2.1896514892578125	7792518.82435637
2.1927738189697266	6271371.792407262
2.1958916187286377	4261569.168718239
2.1990041732788086	2671259.3381302804
2.2021119594573975	1989494.581819116
2.2052149772644043	1925048.4898928606
2.208312749862671	2163348.822774849
2.2114057540893555	2553287.9771765396
2.214493751525879	2833110.228981478
2.217576742172241	2742847.3221931467
2.2206547260284424	2517346.443288425
2.2237277030944824	2378428.1684782575
2.2267956733703613	2060659.6237494275
2.2298583984375	1597243.651748844
2.2329163551330566	1300104.8550995467
2.235969066619873	1203162.4941429542
2.2390167713165283	1127896.484751757
2.2420592308044434	938878.9608059096
2.2450966835021973	735990.9365989238
2.248128890991211	771689.4201380418
2.2511560916900635	979662.0338686673
2.254178285598755	1097939.9771425056
2.257194995880127	1182478.8153340067
2.260206699371338	1198217.935622862
2.2632133960723877	1014053.0004831651
2.266214609146118	813092.2676250592
2.2692108154296875	768641.3525710851
2.2722020149230957	890700.214417416
2.2751877307891846	1037246.9357621417
2.278168201446533	1034586.343210305
2.2811436653137207	933141.9214424588
2.284113883972168	861136.9310479932
2.287078857421875	796869.8425737212
2.290038824081421	725406.238613652
2.2929933071136475	722213.0149339301
2.295942783355713	781076.2506314558
2.298887014389038	836825.446577772
2.301826238632202	931455.821619589
2.304760217666626	1251165.9010754637
2.3076889514923096	1844400.163347438
2.310612440109253	2358098.1976981433
2.3135311603546143	2203462.6938817287
2.3164443969726562	1358691.385202056
2.319352865219116	678324.9488532527
2.322256088256836	555417.3726100957
2.3251543045043945	592912.2902380838
2.328047275543213	584762.4969242519
2.330935478210449	577075.0732921092
2.3338186740875244	569697.4821679153
2.3366971015930176	544555.725144933
2.3395702838897705	518845.1094537538
2.3424389362335205	478002.740048794
2.3453025817871094	418276.3144286863
2.348161458969116	395898.46121429186
2.351015567779541	477857.242877554
2.353865146636963	650637.2004643383
2.3567099571228027	807840.5477547713
2.3595502376556396	927354.5921904307
2.3623859882354736	1032378.7478903814
2.3652172088623047	976645.4806687554
2.368043899536133	685984.7711553435
2.370866537094116	400161.1796963036
2.3736846446990967	337379.53801061
2.3764986991882324	411333.3185536148
2.3793084621429443	492543.41709841543
2.3821144104003906	589715.8262893454
2.384916305541992	731583.2263983627
2.387714147567749	825284.0037015814
2.3905084133148193	783703.0182804262
2.393299102783203	732112.7996530023
2.3960859775543213	766886.0281982305
2.398869514465332	840744.2552285608
2.4016497135162354	852568.3772533159
2.4044265747070312	828300.4013988165
2.407200336456299	959556.7888339177
2.409970998764038	1237093.1470498985
2.4127390384674072	1419036.3556671292
2.415503978729248	1484741.0312605328
2.418266534805298	1671137.3315181623
2.4210267066955566	1866100.6282936775
2.4237842559814453	1707920.1364963893
2.426539897918701	1460028.0502341194
2.429293394088745	1655261.6224775268
2.4320452213287354	2075151.8244692422
2.4347951412200928	2192662.334098789
2.4375438690185547	2092842.22932494
2.440291166305542	2112652.5934578325
2.443037271499634	2112097.9868781934
2.445782423019409	1837559.7005042867
2.4485268592834473	1462433.7688790688
2.451270818710327	1383091.0208946383
2.454014539718628	1710068.1570520853
2.4567582607269287	2009423.3022701717
2.4595019817352295	2038272.2409613372
2.4622461795806885	2198063.0951578156
2.4649908542633057	2251338.501142412
2.4677364826202393	1771285.7012466525
2.4704833030700684	1211199.4698044774
2.473231554031372	890207.0085243422
2.4759814739227295	713300.3762099848
2.4787333011627197	641848.1994651195
2.481487512588501	703987.3138880536
