#wavelength	surface flux
0.6450077295303345	679465.3040518
0.6472567915916443	1043947.3453224844
0.6494921445846558	1302650.9137071893
0.6517150402069092	1417935.8922328097
0.6539263725280762	1522916.6187630603
0.6561272740364075	1625302.0056350576
0.6583186388015747	1727517.0049245981
0.6605015397071838	1830989.2403005217
0.6626768708229065	1931640.0881737727
0.6648455858230591	2013575.5998411232
0.6670085787773132	1974755.256964415
0.6691668033599854	1663210.3497361997
0.6713210344314575	1493393.1237150105
0.6734722256660461	1916246.9176108646
0.6756211519241333	2427073.5748304515
0.6777685880661011	2657654.716188672
0.6799154281616211	2789837.3171524936
0.6820623278617859	2905620.1986769605
0.6842101216316223	3015570.0483994028
0.6863595843315125	3119968.8396975426
0.688511312007904	3210662.8316956856
0.6906660795211792	3267232.9849942354
0.6928245425224304	3324979.159466702
0.6949873566627502	3445458.4915218065
0.6971551775932312	3581456.6864655176
0.6993286609649658	3678071.6811422515
0.7015084028244019	3752966.5765699865
0.7036949396133423	3833173.686362427
0.7058889269828796	3918853.211342885
0.7080909013748169	3986295.274967053
0.710301399230957	4042774.9741805466
0.712520956993103	4090766.7195838755
0.7147500514984131	4088036.7114410903
0.7169892191886902	4042389.8660214418
0.7192389369010925	4030861.233068989
0.7214996814727783	4033694.3759486107
0.723771870136261	3995264.6373773734
0.7260559797286987	3929652.1744789616
0.7283523678779602	3838406.676189963
0.7306615710258484	3727465.2181810993
0.7329838871955872	3610478.9542925395
0.7353196740150452	3458273.772592532
0.7376693487167358	3259925.4204017315
0.7400332689285278	3018172.923074882
0.7424117922782898	2713688.6588519947
0.7448052167892456	2363239.5122202174
0.7472138404846191	1984547.861725817
0.7496379613876343	1586782.3878025152
0.7520779371261597	1197080.14129783
0.7545340061187744	844454.4357041551
0.7570064663887024	550909.2707898306
0.7594954967498779	324376.7258094957
0.7620013952255249	161874.68953479882
0.7645244002342224	60608.804879150244
0.7670646905899048	16574.212743258464
0.7696225643157959	18853.37905938225
0.7721980810165405	77086.27255408753
0.7747915983200073	211582.29812307685
0.7774031162261963	401021.57549440674
0.7800329327583313	675081.5825184761
0.7826811671257019	1154495.1834088394
0.7853479981422424	1809421.199677319
0.7880334854125977	2497090.810494296
0.7907378077507019	2876833.8404355897
0.7934610247612	2754373.0772281503
0.7962033748626709	3392050.9479443408
0.7989648580551147	5090499.29675214
0.801745593547821	6439271.46996496
0.8045456409454346	7246261.015040812
0.8073651194572449	7858962.215650057
0.8102040886878967	8292967.072732033
0.8130625486373901	8773668.597775484
0.8159406185150146	9430603.791194692
0.8188382983207703	10062026.471562007
0.8217556476593018	10667488.343137767
0.8246926665306091	11328261.172972655
0.8276493549346924	11901459.51064891
0.8306257724761963	12361235.877622139
0.8336219191551208	12809015.79051426
0.8366377949714661	13203386.197704623
0.8396733403205872	13707978.764026185
0.8427285552024841	14461980.642130213
0.8458034992218018	15144025.471805058
0.8488980531692505	15407931.378632274
0.8520121574401855	15563623.555947285
0.8551458716392517	16376057.308188388
0.8582990765571594	17167343.949917506
0.8614717125892639	16816876.358269155
0.8646637797355652	16480339.38002146
0.8678751587867737	17173908.656400863
0.8711057901382446	18019419.74604352
0.8743556141853333	18564420.67156843
0.87762451171875	18908042.804390054
0.8809124231338501	19233043.048882548
0.8842192888259888	19849392.093467038
0.8875449895858765	20147924.997190397
0.8908893465995789	19448148.26140249
0.894252359867096	18967412.92440055
0.8976338505744934	20091457.174301155
0.9010337591171265	21894809.86766979
0.9044519662857056	23250114.6840606
0.9078882932662964	24147447.72151518
0.9113426208496094	24561621.51477205
0.914814829826355	24285023.37930392
0.9183048605918884	24086063.54038587
0.9218124747276306	23843588.197311487
0.925337553024292	20604440.536875553
0.9288799166679382	15419901.860930102
0.9324395060539246	13379777.820091303
0.9360161423683167	14788461.301847337
0.9396095871925354	16874002.418475382
0.943219780921936	16991339.240163624
0.9468464851379395	15938394.76662885
0.9504896402359009	16490942.122367242
0.9541489481925964	18011618.611564625
0.9578243494033813	17839198.305382103
0.9615156054496765	15507582.388163343
0.9652225375175476	14194344.907735465
0.9689450263977051	15935215.67353428
0.9726828336715698	19980199.897094186
0.9764357805252075	23112169.694092367
0.9802037477493286	24569867.05808806
0.983986496925354	25970055.23093867
0.9877838492393494	27711689.080473583
0.9915955662727356	29710006.791124612
0.9954215884208679	31179182.296025354
0.9992615580558777	31903058.03167435
1.0031154155731201	32552146.16696725
1.0069829225540161	33983828.73867209
1.0108637809753418	36126594.97321897
1.0147579908370972	38338315.50281177
1.018665075302124	39799078.81055657
1.022585153579712	39909532.70499262
1.0265177488327026	39418373.47480185
1.0304628610610962	40102546.16832878
1.0344202518463135	42427966.9631731
1.0383895635604858	44477089.22860512
1.0423706769943237	45463827.651322775
1.0463634729385376	45932668.466140606
1.0503677129745483	46243894.62372783
1.0543830394744873	47170004.54051276
1.058409333229065	48332386.35401798
1.0624464750289917	49025495.388098486
1.0664942264556885	49395311.136778444
1.0705522298812866	49698256.61461785
1.0746204853057861	50297807.90152969
1.0786986351013184	51054291.91925488
1.0827864408493042	51461286.276680514
1.086883783340454	50520875.420036085
1.0909905433654785	47591352.67643613
1.0951062440872192	43236911.23753766
1.0992310047149658	34435699.49693995
1.10336434841156	23010121.660129987
1.1075061559677124	18528500.11101585
1.1116561889648438	18284042.53340678
1.115814208984375	16412182.588860946
1.1199802160263062	15028014.254663164
1.124153733253479	15713307.217653442
1.1283347606658936	16526728.743133482
1.1325229406356812	14977339.394585412
1.1367181539535522	15951907.248773634
1.1409201622009277	20430992.598373793
1.145128846168518	23530856.17877192
1.1493438482284546	21037415.094259948
1.1535650491714478	13903886.857266659
1.1577922105789185	10449468.620259874
1.1620250940322876	12773979.234478433
1.1662636995315552	16896999.536220923
1.170507550239563	19352312.089653075
1.174756646156311	22993867.81477569
1.1790107488632202	30461830.17927951
1.1832695007324219	37654956.38041878
1.1875330209732056	41687212.65079554
1.191800832748413	45710238.577797554
1.1960728168487549	51218286.079007104
1.2003488540649414	54438669.868123256
1.2046287059783936	55171123.92886528
1.2089121341705322	55976612.09042616
1.2131990194320679	58306258.48087301
1.2174891233444214	61912012.70193365
1.2217823266983032	65178616.626870856
1.2260783910751343	67476859.22515725
1.230377197265625	69065968.23271367
1.2346785068511963	70281328.87408996
1.238982081413269	71664434.52353118
1.2432878017425537	72653939.1515573
1.2475954294204712	71683248.67721659
1.2519049644470215	69589354.70208587
1.256216049194336	71254305.3424566
1.2605286836624146	74131015.75581573
1.2648425102233887	74035067.737172
1.2691574096679688	73308349.1998662
1.2734732627868652	73122026.29876688
1.2777899503707886	73080085.61196606
1.2821072340011597	72411336.01125063
1.2864248752593994	70480009.61811084
1.2907428741455078	67372000.38364376
1.2950609922409058	66029644.048469186
1.2993791103363037	65273074.26923371
1.303696870803833	62457425.5922065
1.3080145120620728	61105281.586992696
1.3123314380645752	62316100.16617419
1.3166478872299194	63466736.293500304
1.3209635019302368	58805866.011848286
1.3252781629562378	47051179.0701358
1.3295916318893433	32859073.151178088
1.3339040279388428	17320097.470874533
1.3382149934768677	5973027.37403606
1.3425244092941284	2525439.825118699
1.3468321561813354	2392101.909690627
1.3511382341384888	2077748.6373001747
1.3554422855377197	1501666.1913676492
1.3597444295883179	1378722.27969011
1.3640443086624146	1527901.1279956733
1.3683418035507202	1989159.801836581
1.3726370334625244	3337864.6048088735
1.3769296407699585	4793594.051570527
1.381219506263733	3882927.1656721393
1.3855066299438477	1821237.3570557744
1.3897908926010132	1124911.143638305
1.3940720558166504	1253766.2837654303
1.3983501195907593	1572785.7238434874
1.4026249647140503	2509365.9326677984
1.4068963527679443	3268190.943004482
1.4111642837524414	2596427.1956706056
1.4154287576675415	1962209.5403099086
1.419689416885376	1973814.4993414527
1.4239463806152344	1926818.8434587384
1.4281994104385376	2319337.9916053303
1.4324485063552856	2684235.5857290174
1.436693549156189	2752811.2600530516
1.440934419631958	3240630.7217764254
1.4451709985733032	4586469.609249012
1.449403166770935	6731493.809142824
1.453631043434143	8235042.0381774325
1.4578542709350586	9013407.987986362
1.4620729684829712	10024425.949568482
1.4662868976593018	10237119.5200734
1.4704961776733398	9488231.176269116
1.4747005701065063	9198125.257752843
1.4788999557495117	9935927.272757394
1.4830944538116455	12072477.012074932
1.4872838258743286	14270237.957592981
1.491468071937561	14773237.928569658
1.4956470727920532	14913983.81700473
1.4998208284378052	17020697.446556777
1.5039892196655273	19560679.84098044
1.5081522464752197	19852245.101598173
1.5123097896575928	20446856.000778534
1.5164618492126465	23938896.857411437
1.5206083059310913	30041795.739212148
1.5247491598129272	34356194.52506603
1.5288842916488647	34311742.94380291
1.5330137014389038	35815387.34256832
1.5371372699737549	39038462.89480651
1.541254997253418	40163842.729744256
1.545366883277893	42273077.04212375
1.5494728088378906	46198010.05681331
1.5535727739334106	48007576.945929766
1.5576666593551636	46692075.915436
1.561754584312439	48223365.96971333
1.5658363103866577	54912722.0934393
1.5699119567871094	59098453.146773554
1.5739814043045044	57126631.10917152
1.5780447721481323	54574478.93456267
1.582101821899414	58650967.72111993
1.5861525535583496	66352131.39998973
1.5901970863342285	69415186.01693626
1.5942351818084717	68135856.66987714
1.5982669591903687	66601506.286139354
1.6022924184799194	67663071.28968292
1.606311559677124	69875765.06998171
1.6103241443634033	70525354.93817832
1.6143304109573364	70559312.89191514
1.6183301210403442	71184658.2187011
1.6223233938217163	73466719.26200798
1.6263102293014526	76586374.7335494
1.6302905082702637	77266597.3417003
1.634264349937439	79005731.59166682
1.638231635093689	84547330.78577821
1.6421923637390137	88236220.81792676
1.646146535873413	87744446.93075064
1.6500942707061768	85433908.16488497
1.6540353298187256	84880662.29684363
1.6579699516296387	84681798.42299284
1.661897897720337	80446340.90071557
1.6658192873001099	72562879.86323445
1.6697341203689575	70080566.79244563
1.6736423969268799	79229925.94982962
1.677544116973877	87429009.58125591
1.6814392805099487	88359097.75650011
1.6853278875350952	87533750.45053801
1.6892099380493164	82622297.31905784
1.6930854320526123	71737875.97208956
1.696954369544983	63673033.777515545
1.7008168697357178	64797037.800468974
1.7046726942062378	66415464.71489686
1.708522081375122	63028048.33241024
1.712364912033081	58603120.40950398
1.7162011861801147	57831084.41160756
1.7200311422348022	59954410.947785124
1.723854422569275	58568734.655135326
1.7276713848114014	52565200.982461214
1.731481909751892	43990106.912348606
1.7352858781814575	35937200.28638447
1.7390835285186768	31222456.277736507
1.7428747415542603	27517453.586096298
1.7466596364974976	23135020.627200715
1.7504380941390991	19398142.156290114
1.7542102336883545	18277639.147727236
1.7579760551452637	23271027.321353763
1.7617355585098267	29653704.038660254
1.7654887437820435	26998941.907628585
1.7692357301712036	17929168.99779446
1.7729763984680176	10948539.29579967
1.776710867881775	7004649.627225777
1.7804391384124756	5590170.768223091
1.7841613292694092	5733812.973999195
1.7878772020339966	5280177.726325367
1.7915871143341064	5649645.002976889
1.7952908277511597	7600259.778428934
1.7989884614944458	8268535.551399049
1.8026801347732544	5732788.187927765
1.806365728378296	2907103.3753379625
1.8100452423095703	2956148.6088280007
1.8137187957763672	3784001.607463933
1.817386507987976	3279877.7756150705
1.8210482597351074	3696666.817225523
1.8247040510177612	4066608.548183045
1.828354001045227	2590415.8911852357
1.8319982290267944	2151912.895750209
1.8356364965438843	3488411.9020541226
1.8392690420150757	4812400.586815227
1.8428958654403687	4918647.385488778
1.8465168476104736	4749116.863180003
1.8501322269439697	4899026.805818808
1.8537418842315674	3907540.5064339773
1.8573459386825562	2804243.468496701
1.860944390296936	2462291.479440103
1.864537239074707	1980577.1214347496
1.8681244850158691	2188383.8400121694
1.871706247329712	3467255.453970435
1.8752825260162354	5028330.954233769
1.8788533210754395	7054404.926659408
1.8824186325073242	8500953.921923785
1.8859784603118896	7929688.018456791
1.8895330429077148	7468312.7427822575
1.8930821418762207	9182417.63516283
1.8966259956359863	9229650.421500584
1.9001644849777222	5322263.83010218
1.9036977291107178	2488224.7269750857
1.9072256088256836	2660151.5372283403
1.9107483625411987	2645788.5346840885
1.9142658710479736	1710034.0344864554
1.9177782535552979	1619255.7624361236
1.9212853908538818	2219038.61339102
1.9247875213623047	2282983.184449278
1.9282845258712769	2370530.3787570666
1.9317764043807983	3025299.0737631847
1.9352631568908691	3343263.0733892196
1.9387450218200684	3209378.914629459
1.942221760749817	3485087.382772447
1.9456936120986938	3944373.143418677
1.9491604566574097	4385607.779018484
1.952622413635254	4236959.655187113
1.956079363822937	3486686.5125947664
1.959531545639038	3435839.9647380817
1.962978720664978	3793313.127749936
1.966421127319336	4712792.952406693
1.9698586463928223	6380830.170455517
1.9732913970947266	7255818.171024084
1.9767193794250488	7774509.356533339
1.9801424741744995	9097721.637291942
1.9835609197616577	10478764.853633288
1.9869745969772339	10651769.69818255
1.990383505821228	9363440.459545257
1.9937876462936401	8870972.549094208
1.9971871376037598	9151088.686004905
2.000581979751587	10011568.8858978
2.003972291946411	12367436.269456407
2.007357597351074	14420860.190649336
2.0107386112213135	16444375.072677
2.0141148567199707	17200458.724619504
2.017486572265625	15606098.43574602
2.0208535194396973	16179549.66653019
2.0242159366607666	19195243.76987382
2.027573823928833	21192595.268546127
2.0309269428253174	22762108.822311405
2.034275770187378	25103087.015267283
2.0376198291778564	27359052.426860604
2.040959596633911	29831588.7297734
2.044294595718384	33155718.319861747
2.0476250648498535	37086773.720756516
2.0509510040283203	38216389.93236699
2.054272413253784	35665371.266485
2.057589530944824	35812352.87722213
2.0609018802642822	39579572.50276338
2.0642096996307373	43532289.06604367
2.0675129890441895	46783504.44111984
2.0708119869232178	48246614.93301833
2.074106216430664	47269603.21149401
2.0773961544036865	46597812.8878384
2.080681324005127	48370466.31863512
2.0839622020721436	51255918.606543705
2.087238311767578	53810003.374390386
2.090510129928589	54117126.20046342
2.0937774181365967	52722315.36505396
2.0970399379730225	52875023.005530864
2.1002981662750244	53570000.79410894
2.1035518646240234	52508661.1650715
2.1068007946014404	51258360.624773815
2.1100454330444336	54795047.3843128
2.1132853031158447	60411269.20377488
2.116520881652832	60929430.33630604
2.1197516918182373	60372989.433104046
2.1229779720306396	62939764.31213163
2.12619948387146	65329723.71248726
2.1294167041778564	66072183.77927583
2.132629156112671	67186823.44193664
2.1358368396759033	67158258.30817117
2.139039993286133	64755076.54819482
2.1422386169433594	63448006.910309926
2.145432472229004	63589886.12544898
2.1486217975616455	62752305.08116927
2.151806354522705	60949713.19986561
2.1549863815307617	60773751.1994019
2.1581614017486572	62464272.2892937
2.16133189201355	63148115.75044603
2.1644976139068604	62704864.88955802
2.167658567428589	61716309.5967721
2.1708147525787354	59746646.4385898
2.173966407775879	56821825.618067496
2.1771130561828613	55083439.64471836
2.1802549362182617	56240746.464246236
2.183391809463501	57639316.30627741
2.1865241527557373	57376452.191154175
2.1896514892578125	55892187.422578216
2.1927738189697266	51174231.67798608
2.1958916187286377	42345972.23397433
2.1990041732788086	34563017.83085245
2.2021119594573975	31521675.083703674
2.2052149772644043	31069434.236025624
2.208312749862671	32036027.13294484
2.2114057540893555	34509910.67304205
2.214493751525879	36254741.677950084
2.217576742172241	35623146.734524764
2.2206547260284424	34807792.5007939
2.2237277030944824	34518267.039967306
2.2267956733703613	31911486.196168374
2.2298583984375	27999277.79460096
2.2329163551330566	25916026.302862342
2.235969066619873	25929065.233115695
2.2390167713165283	25668797.474830434
2.2420592308044434	22660552.225971412
2.2450966835021973	18743410.036489725
2.248128890991211	18204919.36654054
2.2511560916900635	20891872.50626022
2.254178285598755	23455051.275756832
2.257194995880127	25370785.567038726
2.260206699371338	25691071.78877956
2.2632133960723877	22134847.097831424
2.266214609146118	17308131.470366687
2.2692108154296875	15421471.918508532
2.2722020149230957	16975111.221953087
2.2751877307891846	19336232.010955505
2.278168201446533	19145544.20659718
2.2811436653137207	16732222.965651182
2.284113883972168	15226464.22813117
2.287078857421875	14825593.332398767
2.290038824081421	13502926.651496181
2.2929933071136475	11051500.214186722
2.295942783355713	8739353.715075646
2.298887014389038	7197787.705518621
2.301826238632202	6343337.271983344
2.304760217666626	6018969.678360447
2.3076889514923096	6075806.46926751
2.310612440109253	6388125.342619779
2.3135311603546143	6346053.9870737055
2.3164443969726562	5363206.43653263
2.319352865219116	4278139.408046927
2.322256088256836	3967928.365067383
2.3251543045043945	4005122.404109986
2.328047275543213	4012485.4041110864
2.330935478210449	4124281.659533408
2.3338186740875244	4316975.799715049
2.3366971015930176	4502198.013929259
2.3395702838897705	4703224.2300623525
2.3424389362335205	4887237.241700606
2.3453025817871094	5060462.709525394
2.348161458969116	5186802.95750873
2.351015567779541	5342484.589534735
2.353865146636963	5669840.113628547
2.3567099571228027	5948128.017979141
2.3595502376556396	6315196.961237346
2.3623859882354736	7083523.732583659
2.3652172088623047	7192232.381658121
2.368043899536133	5681628.10650091
2.370866537094116	4245200.490824627
2.3736846446990967	4441885.875481187
2.3764986991882324	4728537.803130626
2.3793084621429443	4240849.594139932
2.3821144104003906	4213115.175904428
2.384916305541992	5244570.975503935
2.387714147567749	6639782.101316092
2.3905084133148193	7447432.631144728
2.393299102783203	7447139.708108585
2.3960859775543213	6677287.978957855
2.398869514465332	5823356.210051843
2.4016497135162354	5396510.0237321
2.4044265747070312	5269013.343718217
2.407200336456299	5683311.40086407
2.409970998764038	6459074.753332729
2.4127390384674072	6967094.851136527
2.415503978729248	7282912.551793481
2.418266534805298	7911365.507532568
2.4210267066955566	8471671.228358295
2.4237842559814453	8223438.221838105
2.426539897918701	7638027.555313045
2.429293394088745	7636086.383508859
2.4320452213287354	8123156.1526465295
2.4347951412200928	8514112.260605866
2.4375438690185547	8586227.086369686
2.440291166305542	8344363.2227416625
2.443037271499634	7756689.734680106
2.445782423019409	6929870.59638229
2.4485268592834473	6101052.279559818
2.451270818710327	5851365.305670312
2.454014539718628	6919752.513479735
2.4567582607269287	8157309.315440806
2.4595019817352295	7982789.467575916
2.4622461795806885	7896645.752038679
2.4649908542633057	7924688.055063602
2.4677364826202393	6513351.1782157635
2.4704833030700684	4743142.968756711
2.473231554031372	3558814.90788533
2.4759814739227295	2819758.1413237466
2.4787333011627197	2563598.9348067464
2.481487512588501	2922235.047162606
