#wavelength	surface flux
0.6450077295303345	1813.856636873981
0.6472567915916443	2809.933069477931
0.6494921445846558	3571.3830844277654
0.6517150402069092	3988.1861263096725
0.6539263725280762	4401.288841152809
0.6561272740364075	4830.398660588435
0.6583186388015747	5282.4816286785235
0.6605015397071838	5765.059400147143
0.6626768708229065	6280.261090666547
0.6648455858230591	6825.186060072896
0.6670085787773132	7332.43022823505
0.6691668033599854	7654.847765940076
0.6713210344314575	8091.08915427827
0.6734722256660461	8982.502722230029
0.6756211519241333	9929.446527139648
0.6777685880661011	10689.612470197668
0.6799154281616211	11421.045853811183
0.6820623278617859	12164.012204581359
0.6842101216316223	12918.51271400378
0.6863595843315125	13679.365418697485
0.688511312007904	14422.91534903506
0.6906660795211792	15071.79572283173
0.6928245425224304	15638.654778858801
0.6949873566627502	16352.3158716874
0.6971551775932312	17189.617604115432
0.6993286609649658	17913.804000018572
0.7015084028244019	18553.68309666451
0.7036949396133423	19152.683080275787
0.7058889269828796	19655.7276198393
0.7080909013748169	20066.52190611679
0.710301399230957	20418.571769891718
0.712520956993103	20663.008612247446
0.7147500514984131	20665.19054699134
0.7169892191886902	20411.06855453761
0.7192389369010925	20081.301306769223
0.7214996814727783	19690.213092226077
0.723771870136261	19030.55119458556
0.7260559797286987	18178.648036953404
0.7283523678779602	17307.241058624513
0.7306615710258484	16702.99708670893
0.7329838871955872	16441.17180130881
0.7353196740150452	15859.185190938806
0.7376693487167358	14810.628378229896
0.7400332689285278	13659.25881015085
0.7424117922782898	12476.337998533512
0.7448052167892456	11298.88988422838
0.7472138404846191	10093.059276341697
0.7496379613876343	8820.64953639877
0.7520779371261597	7522.072125927585
0.7545340061187744	6220.613137065618
0.7570064663887024	4932.868622117568
0.7594954967498779	3667.1354682983015
0.7620013952255249	2418.955812474256
0.7645244002342224	1288.6518704588902
0.7670646905899048	599.1908641358916
0.7696225643157959	637.756251273745
0.7721980810165405	1563.2493357993642
0.7747915983200073	3244.254621572571
0.7774031162261963	5168.21718966743
0.7800329327583313	7288.620433596628
0.7826811671257019	10181.850198371343
0.7853479981422424	13767.121262334214
0.7880334854125977	17542.842807048302
0.7907378077507019	20387.287082524952
0.7934610247612	21468.717653741627
0.7962033748626709	25848.91684026058
0.7989648580551147	35412.35075465813
0.801745593547821	44601.65385498633
0.8045456409454346	52401.224349362725
0.8073651194572449	60158.004832785125
0.8102040886878967	67524.10903909043
0.8130625486373901	76008.46853539345
0.8159406185150146	87514.16043828378
0.8188382983207703	101376.00638391722
0.8217556476593018	116415.09477360651
0.8246926665306091	132005.85091659531
0.8276493549346924	147722.53524883572
0.8306257724761963	164986.6035036242
0.8336219191551208	185415.39943293168
0.8366377949714661	207395.9470283013
0.8396733403205872	230867.36491906104
0.8427285552024841	258132.01135874732
0.8458034992218018	287297.370573599
0.8488980531692505	305949.033304859
0.8520121574401855	321161.1099384465
0.8551458716392517	369505.719250869
0.8582990765571594	437859.1894147058
0.8614717125892639	493543.5619742847
0.8646637797355652	545719.5890553622
0.8678751587867737	604738.0657621229
0.8711057901382446	670407.0423308605
0.8743556141853333	739145.4007428982
0.87762451171875	805923.8115326659
0.8809124231338501	863325.4183396788
0.8842192888259888	914185.1709425444
0.8875449895858765	958600.3129079092
0.8908893465995789	948208.0291856581
0.894252359867096	914787.5742452174
0.8976338505744934	1048518.3828563794
0.9010337591171265	1340652.8324263035
0.9044519662857056	1599550.5297737545
0.9078882932662964	1773166.8261174185
0.9113426208496094	1891093.9073174472
0.914814829826355	1970350.330825221
0.9183048605918884	2071282.834898247
0.9218124747276306	2127159.9653824084
0.925337553024292	1810450.8172794166
0.9288799166679382	1263690.9273725331
0.9324395060539246	1054826.3384044347
0.9360161423683167	1254789.5231241595
0.9396095871925354	1520927.4700306123
0.943219780921936	1489811.5977023763
0.9468464851379395	1207747.2073065045
0.9504896402359009	1306779.9973568444
0.9541489481925964	1872587.5631478892
0.9578243494033813	2114806.7212743317
0.9615156054496765	1790800.8974004886
0.9652225375175476	1590536.5306559433
0.9689450263977051	2188811.5438928395
0.9726828336715698	3214831.6928771865
0.9764357805252075	3782325.886264699
0.9802037477493286	4093012.8798659137
0.983986496925354	4680019.83288934
0.9877838492393494	5351493.351290315
0.9915955662727356	5945265.579530065
0.9954215884208679	6483041.216873799
0.9992615580558777	6866797.880932677
1.0031154155731201	7196008.31927974
1.0069829225540161	7739723.966831697
1.0108637809753418	8457399.127737382
1.0147579908370972	9146790.572686557
1.018665075302124	9664217.905631373
1.022585153579712	9965296.46072681
1.0265177488327026	10224397.730231456
1.0304628610610962	10623183.756845957
1.0344202518463135	11119969.801617954
1.0383895635604858	11545257.79139237
1.0423706769943237	11828096.245326757
1.0463634729385376	11987912.206856579
1.0503677129745483	12132771.593150996
1.0543830394744873	12405553.872493356
1.058409333229065	12731766.516387856
1.0624464750289917	12930556.812936833
1.0664942264556885	12876028.658995302
1.0705522298812866	12685932.633873576
1.0746204853057861	12608490.314191418
1.0786986351013184	12563356.287722386
1.0827864408493042	12485832.414157078
1.086883783340454	12019624.673528058
1.0909905433654785	10659087.76805465
1.0951062440872192	8773613.243130473
1.0992310047149658	6317310.107265637
1.10336434841156	3596564.476098022
1.1075061559677124	2107414.8749231277
1.1116561889648438	1519078.7388689446
1.115814208984375	1029949.4382487009
1.1199802160263062	931178.0335768047
1.124153733253479	1056898.1706582718
1.1283347606658936	1052739.0943358743
1.1325229406356812	942336.9989533755
1.1367181539535522	1412403.6079107923
1.1409201622009277	2271568.082576297
1.145128846168518	2501898.5236656307
1.1493438482284546	1966911.0018392748
1.1535650491714478	1166938.9289942365
1.1577922105789185	833168.223221643
1.1620250940322876	1055485.523872401
1.1662636995315552	1635257.1064179079
1.170507550239563	2531803.1753707
1.174756646156311	3867629.26104811
1.1790107488632202	5613273.022803801
1.1832695007324219	6953454.467103667
1.1875330209732056	7614587.7772037275
1.191800832748413	9164417.329877783
1.1960728168487549	11652874.303918563
1.2003488540649414	13336376.457344214
1.2046287059783936	14325302.701339511
1.2089121341705322	14991164.257153764
1.2131990194320679	15570720.481401566
1.2174891233444214	16607993.790552327
1.2217823266983032	17756606.28216133
1.2260783910751343	18739769.0171113
1.230377197265625	19686266.36735677
1.2346785068511963	20590432.929276634
1.238982081413269	21503492.035415508
1.2432878017425537	22451564.86425849
1.2475954294204712	23302695.67393658
1.2519049644470215	24057245.567844946
1.256216049194336	25170156.114116542
1.2605286836624146	26227374.398309935
1.2648425102233887	26731140.216323677
1.2691574096679688	27396197.05103223
1.2734732627868652	28344601.02336
1.2777899503707886	28393967.056135293
1.2821072340011597	27364924.091725767
1.2864248752593994	26478053.812827658
1.2907428741455078	25709525.930483613
1.2950609922409058	24531350.41911157
1.2993791103363037	22065424.192690473
1.303696870803833	20242017.826214656
1.3080145120620728	20052224.00255883
1.3123314380645752	20006480.755336788
1.3166478872299194	20519766.62812545
1.3209635019302368	18778549.191876154
1.3252781629562378	14194494.983924204
1.3295916318893433	8864523.538706148
1.3339040279388428	3697307.3159437277
1.3382149934768677	859764.0296936922
1.3425244092941284	206245.40031058234
1.3468321561813354	97923.22638923612
1.3511382341384888	61215.236596788614
1.3554422855377197	36269.03584724687
1.3597444295883179	39815.92145094554
1.3640443086624146	62276.931229830116
1.3683418035507202	67947.08886389494
1.3726370334625244	60732.03910255133
1.3769296407699585	65534.16888678524
1.381219506263733	53525.22886037262
1.3855066299438477	30114.6139135902
1.3897908926010132	33852.10728004188
1.3940720558166504	51521.60337758553
1.3983501195907593	54494.73028899268
1.4026249647140503	67079.31641859977
1.4068963527679443	80384.07470991332
1.4111642837524414	58796.02009404247
1.4154287576675415	40281.05664170691
1.419689416885376	39201.74631722261
1.4239463806152344	38705.25377495023
1.4281994104385376	36323.08553289252
1.4324485063552856	44546.221941560965
1.436693549156189	97881.76465901897
1.440934419631958	229453.94766349244
1.4451709985733032	486350.45514258783
1.449403166770935	824759.4050375654
1.453631043434143	1009146.3166077201
1.4578542709350586	1162261.6276169906
1.4620729684829712	1472761.8177991644
1.4662868976593018	1573086.6079438778
1.4704961776733398	1044773.2324102764
1.4747005701065063	465791.05457084253
1.4788999557495117	610170.1432838204
1.4830944538116455	1169223.3453332898
1.4872838258743286	1315446.2641775645
1.491468071937561	1038521.2058484418
1.4956470727920532	1290687.1306599765
1.4998208284378052	2331457.502593833
1.5039892196655273	2912259.7623335905
1.5081522464752197	2508587.5148538505
1.5123097896575928	2425120.648060179
1.5164618492126465	3416317.6853841036
1.5206083059310913	5012139.583879475
1.5247491598129272	6319191.676632385
1.5288842916488647	6943594.753532914
1.5330137014389038	7427863.24455302
1.5371372699737549	8007179.78890949
1.541254997253418	8251767.68036336
1.545366883277893	8572083.258298557
1.5494728088378906	9424847.120057978
1.5535727739334106	10515399.840926124
1.5576666593551636	11569507.197092626
1.561754584312439	12664436.352079658
1.5658363103866577	13670936.796576992
1.5699119567871094	14017727.92236924
1.5739814043045044	13676910.513321985
1.5780447721481323	13419969.329662286
1.582101821899414	13637486.34804279
1.5861525535583496	13795119.535288528
1.5901970863342285	13402219.872519678
1.5942351818084717	12552910.106506275
1.5982669591903687	11755250.20359418
1.6022924184799194	10943450.759689985
1.606311559677124	10078363.057610461
1.6103241443634033	9599988.20859228
1.6143304109573364	8760658.268861072
1.6183301210403442	7331176.335498062
1.6223233938217163	6156705.954671224
1.6263102293014526	5352034.23043547
1.6302905082702637	5251726.349852144
1.634264349937439	6078921.011277385
1.638231635093689	7003761.416535064
1.6421923637390137	6885171.6639302
1.646146535873413	5284295.57044558
1.6500942707061768	4127722.5124277016
1.6540353298187256	4645580.831677663
1.6579699516296387	5171881.505931661
1.661897897720337	4751175.566314533
1.6658192873001099	3265868.671073188
1.6697341203689575	2072282.2645409715
1.6736423969268799	2301997.3969993326
1.677544116973877	2518918.646329032
1.6814392805099487	2318155.7336646104
1.6853278875350952	2063600.872433452
1.6892099380493164	1772798.9181210578
1.6930854320526123	1594966.8484834998
1.696954369544983	1321528.523781771
1.7008168697357178	1056165.2809702945
1.7046726942062378	1011177.3631465342
1.708522081375122	1283935.6564918936
1.712364912033081	1617375.093639187
1.7162011861801147	1782302.1813000361
1.7200311422348022	1997936.4949485397
1.723854422569275	1975265.6784094728
1.7276713848114014	1641401.3283730207
1.731481909751892	1498248.6004230734
1.7352858781814575	1570705.7077488136
1.7390835285186768	1686039.3409866418
1.7428747415542603	1734014.5800893174
1.7466596364974976	1504293.2030707935
1.7504380941390991	1161985.0487445
1.7542102336883545	1125880.11381244
1.7579760551452637	1316905.9120491387
1.7617355585098267	1341048.8054796755
1.7654887437820435	1125705.052602255
1.7692357301712036	829611.3595136154
1.7729763984680176	573770.2441034171
1.776710867881775	402334.1584169661
1.7804391384124756	353999.06112910766
1.7841613292694092	358360.2478779447
1.7878772020339966	343474.60415707063
1.7915871143341064	403789.9318622673
1.7952908277511597	442098.3240589994
1.7989884614944458	356231.1511154598
1.8026801347732544	227555.8225243542
1.806365728378296	165745.17126586207
1.8100452423095703	148457.69907103656
1.8137187957763672	107072.48880957282
1.817386507987976	66745.2512909886
1.8210482597351074	93280.86346691346
1.8247040510177612	164546.53309737353
1.828354001045227	170618.4062086414
1.8319982290267944	109849.30338614882
1.8356364965438843	93699.49266112426
1.8392690420150757	178360.2692189065
1.8428958654403687	293363.7922292346
1.8465168476104736	304662.7774920081
1.8501322269439697	212222.56692758345
1.8537418842315674	151325.13045370477
1.8573459386825562	163086.02041624006
1.860944390296936	137179.5532308006
1.864537239074707	63420.60408015864
1.8681244850158691	26635.807308207404
1.871706247329712	39419.42983352928
1.8752825260162354	103020.75452197711
1.8788533210754395	200887.29706721226
1.8824186325073242	284030.32277935516
1.8859784603118896	342310.12947570294
1.8895330429077148	367409.5521541848
1.8930821418762207	297837.3536562159
1.8966259956359863	186717.15341322927
1.9001644849777222	121743.15011886787
1.9036977291107178	98961.24327409442
1.9072256088256836	157002.04514666658
1.9107483625411987	204328.0298296732
1.9142658710479736	131762.81427575802
1.9177782535552979	81835.23151950217
1.9212853908538818	77602.05292269321
1.9247875213623047	43529.81520686515
1.9282845258712769	36239.29277596301
1.9317764043807983	83149.20148398177
1.9352631568908691	151723.310093006
1.9387450218200684	167367.1717943242
1.942221760749817	130717.28140987318
1.9456936120986938	101381.16569218099
1.9491604566574097	86922.57223729492
1.952622413635254	83717.67432531182
1.956079363822937	110721.4611116201
1.959531545639038	189306.05681198687
1.962978720664978	237608.24151361268
1.966421127319336	236811.3954779903
1.9698586463928223	272748.7479320648
1.9732913970947266	325980.90928990726
1.9767193794250488	368420.8735128894
1.9801424741744995	419100.7721150345
1.9835609197616577	463259.47980539576
1.9869745969772339	514551.8955422891
1.990383505821228	547435.7731370777
1.9937876462936401	509049.3482660506
1.9971871376037598	390860.2836276042
2.000581979751587	325704.3899092504
2.003972291946411	448729.0207714656
2.007357597351074	641351.110664888
2.0107386112213135	749692.4539812446
2.0141148567199707	740386.7733769447
2.017486572265625	661465.7236899615
2.0208535194396973	574323.9090246613
2.0242159366607666	518623.57890381804
2.027573823928833	519172.4611798554
2.0309269428253174	531393.630061958
2.034275770187378	614332.3340699619
2.0376198291778564	791126.769253606
2.040959596633911	891083.8999055666
2.044294595718384	908632.6975279255
2.0476250648498535	903398.152947761
2.0509510040283203	864078.2903572116
2.054272413253784	846548.0395689227
2.057589530944824	875353.345023795
2.0609018802642822	901741.0979454673
2.0642096996307373	907536.7646649356
2.0675129890441895	899796.3739605146
2.0708119869232178	882793.5246784365
2.074106216430664	867828.289849401
2.0773961544036865	863757.0543648157
2.080681324005127	861528.0176916642
2.0839622020721436	852122.2977603145
2.087238311767578	841303.4417344034
2.090510129928589	834292.3700808927
2.0937774181365967	827502.1935580731
2.0970399379730225	814543.9236669509
2.1002981662750244	793884.1405448563
2.1035518646240234	779202.5739770796
2.1068007946014404	776379.4055312487
2.1100454330444336	773188.3054558457
2.1132853031158447	759804.0921210112
2.116520881652832	731366.9985375162
2.1197516918182373	697778.189138921
2.1229779720306396	671959.1009859127
2.12619948387146	652152.8878456381
2.1294167041778564	645501.7532843912
2.132629156112671	651647.4893679108
2.1358368396759033	633163.9726327105
2.139039993286133	598139.620490589
2.1422386169433594	567323.0925272895
2.145432472229004	535807.8316446797
2.1486217975616455	503344.7375173322
2.151806354522705	456258.93347201566
2.1549863815307617	446896.9936568585
2.1581614017486572	487277.4654832621
2.16133189201355	508381.9752716922
2.1644976139068604	494301.54888017994
2.167658567428589	445775.43969746964
2.1708147525787354	416909.1137060365
2.173966407775879	465046.81557532254
2.1771130561828613	533836.0605315294
2.1802549362182617	544097.6667169676
2.183391809463501	496883.9266371851
2.1865241527557373	445665.3101396591
2.1896514892578125	410077.5492679134
2.1927738189697266	349473.90318772104
2.1958916187286377	236024.335609179
2.1990041732788086	120686.85734441732
2.2021119594573975	67471.11492958305
2.2052149772644043	82232.6516886013
2.208312749862671	136711.46442668771
2.2114057540893555	197247.64099712102
2.214493751525879	223293.4963906959
2.217576742172241	181307.16890015622
2.2206547260284424	111513.96609673585
2.2237277030944824	74220.55023747242
2.2267956733703613	61200.62989825824
2.2298583984375	54097.2739162445
2.2329163551330566	51007.155541938046
2.235969066619873	54364.018822334256
2.2390167713165283	55211.045841459345
2.2420592308044434	46338.97417614765
2.2450966835021973	36813.454440904046
2.248128890991211	33343.49660345498
2.2511560916900635	36419.78149511309
2.254178285598755	51334.775443571576
2.257194995880127	81977.87943603573
2.260206699371338	85860.25928603494
2.2632133960723877	46064.84353710642
2.266214609146118	28226.386172316277
2.2692108154296875	64647.73288550132
2.2722020149230957	104907.92223686948
2.2751877307891846	96285.923140224
2.278168201446533	65440.865926823324
2.2811436653137207	60802.72372264374
2.284113883972168	65686.2833052081
2.287078857421875	50062.969253199655
2.290038824081421	30710.841987227483
2.2929933071136475	26721.612051573808
2.295942783355713	27344.312637551757
2.298887014389038	27007.600281422005
2.301826238632202	33091.53894763448
2.304760217666626	54445.211446885296
2.3076889514923096	92840.39038376296
2.310612440109253	136205.34905821204
2.3135311603546143	171479.32637803513
2.3164443969726562	159812.8179868168
2.319352865219116	88415.11000974622
2.322256088256836	34347.67707265091
2.3251543045043945	26165.425686902036
2.328047275543213	23827.572279453063
2.330935478210449	18710.134707147878
2.3338186740875244	14552.61857035871
2.3366971015930176	10835.455962558222
2.3395702838897705	8285.007033751765
2.3424389362335205	6979.995722287805
2.3453025817871094	5971.622768045149
2.348161458969116	6011.6236027306295
2.351015567779541	13884.81203728039
2.353865146636963	38607.24150430071
2.3567099571228027	74424.45756623207
2.3595502376556396	104236.38984701945
2.3623859882354736	106777.87250379774
2.3652172088623047	70658.08475187188
2.368043899536133	27341.648276676104
2.370866537094116	8119.823521547234
2.3736846446990967	5951.3282037245235
2.3764986991882324	7213.611650454435
2.3793084621429443	9806.129401176991
2.3821144104003906	18638.457555248446
2.384916305541992	32457.53678560904
2.387714147567749	37514.78664933883
2.3905084133148193	28968.077779700794
2.393299102783203	20803.091048563314
2.3960859775543213	17503.940492086476
2.398869514465332	18762.01178263199
2.4016497135162354	35311.55076284629
2.4044265747070312	73343.62643680885
2.407200336456299	105151.81806027243
2.409970998764038	101097.84847319858
2.4127390384674072	81593.33759934771
2.415503978729248	79639.13473997476
2.418266534805298	98404.42236243625
2.4210267066955566	113974.75942653553
2.4237842559814453	105911.7421800526
2.426539897918701	98272.39991934564
2.429293394088745	124212.09201749791
2.4320452213287354	156129.6987872092
2.4347951412200928	155486.48229174654
2.4375438690185547	151880.13872118344
2.440291166305542	175171.9407751104
2.443037271499634	184741.53501914593
2.445782423019409	162022.27349835375
2.4485268592834473	151906.5302429031
2.451270818710327	188359.8913861976
2.454014539718628	247880.65382138887
2.4567582607269287	282390.6503405212
2.4595019817352295	296456.233886854
2.4622461795806885	324582.9170245659
2.4649908542633057	366204.5878422625
2.4677364826202393	385166.7035190275
2.4704833030700684	346117.031189016
2.473231554031372	260771.81827654393
2.4759814739227295	179135.45577062783
2.4787333011627197	124747.91919759927
2.481487512588501	85746.9847708749
