#wavelength	surface flux
0.6450077295303345	20049.310110374718
0.6472567915916443	31630.940107355684
0.6494921445846558	41542.47628338317
0.6517150402069092	48140.01114568847
0.6539263725280762	54904.65157553586
0.6561272740364075	62033.88417616838
0.6583186388015747	69554.7383645832
0.6605015397071838	77554.64967121131
0.6626768708229065	86075.14180959169
0.6648455858230591	94722.25104594357
0.6670085787773132	99580.22583138311
0.6691668033599854	93638.16835106694
0.6713210344314575	92589.52859348133
0.6734722256660461	115704.815585052
0.6756211519241333	143498.48745642707
0.6777685880661011	160580.28433236695
0.6799154281616211	174005.0145850581
0.6820623278617859	186929.86296123537
0.6842101216316223	199741.9749352875
0.6863595843315125	212379.8835204558
0.688511312007904	224285.76534932453
0.6906660795211792	234001.55098958148
0.6928245425224304	242234.4238377249
0.6949873566627502	253435.73462891782
0.6971551775932312	266353.97059933323
0.6993286609649658	277071.0770750768
0.7015084028244019	286928.864121339
0.7036949396133423	295465.6763735624
0.7058889269828796	301091.65872177895
0.7080909013748169	304308.9567556334
0.710301399230957	306621.6523655159
0.712520956993103	307715.09079838404
0.7147500514984131	304745.9217886918
0.7169892191886902	297570.67892869975
0.7192389369010925	287873.04640740954
0.7214996814727783	274963.86919687566
0.723771870136261	258535.71386737903
0.7260559797286987	240256.15468986527
0.7283523678779602	220909.5696523503
0.7306615710258484	206619.38652065338
0.7329838871955872	198767.84649748693
0.7353196740150452	184738.8620097303
0.7376693487167358	163304.58111794217
0.7400332689285278	141246.87626312446
0.7424117922782898	119190.75874536282
0.7448052167892456	98321.06529118898
0.7472138404846191	78643.38245654837
0.7496379613876343	59995.299669866086
0.7520779371261597	43430.59017459239
0.7545340061187744	29571.156092781395
0.7570064663887024	18740.776982299973
0.7594954967498779	10925.76527846613
0.7620013952255249	5668.050436343884
0.7645244002342224	2422.126838709882
0.7670646905899048	903.7204485011544
0.7696225643157959	970.6624434741523
0.7721980810165405	3003.986073016042
0.7747915983200073	7620.500575856969
0.7774031162261963	14453.165744670245
0.7800329327583313	25231.69907151771
0.7826811671257019	45326.96035153039
0.7853479981422424	75199.96106362756
0.7880334854125977	110826.26221142843
0.7907378077507019	136512.32299664733
0.7934610247612	141868.77891042863
0.7962033748626709	193081.9977584364
0.7989648580551147	313308.62900744705
0.801745593547821	429732.4376049283
0.8045456409454346	527325.491599598
0.8073651194572449	620801.6198819021
0.8102040886878967	708658.2015598149
0.8130625486373901	819501.2237789527
0.8159406185150146	967537.3294042867
0.8188382983207703	1135862.6420317672
0.8217556476593018	1325721.55118628
0.8246926665306091	1511461.844748625
0.8276493549346924	1666839.3038024541
0.8306257724761963	1853681.9037187463
0.8336219191551208	2112788.4324773764
0.8366377949714661	2358702.303503215
0.8396733403205872	2577443.516739753
0.8427285552024841	2838980.701852827
0.8458034992218018	3109795.052098691
0.8488980531692505	3171359.086483612
0.8520121574401855	3151866.048093689
0.8551458716392517	3671864.0374896377
0.8582990765571594	4445213.595214273
0.8614717125892639	4825648.204649473
0.8646637797355652	5102898.327295756
0.8678751587867737	5572831.721878294
0.8711057901382446	6088051.671960937
0.8743556141853333	6560405.0357675925
0.87762451171875	7016207.791449482
0.8809124231338501	7395045.8068998465
0.8842192888259888	7677765.754442109
0.8875449895858765	7801617.716893641
0.8908893465995789	7349008.3191521885
0.894252359867096	6487431.824202322
0.8976338505744934	7109301.840249513
0.9010337591171265	9668390.228597896
0.9044519662857056	12105563.85475972
0.9078882932662964	13504266.527530365
0.9113426208496094	14087400.104417484
0.914814829826355	14037197.661501462
0.9183048605918884	14063410.459211588
0.9218124747276306	13311408.842630923
0.925337553024292	10154500.984216252
0.9288799166679382	7583592.037763299
0.9324395060539246	7474566.685187647
0.9360161423683167	7672166.07395177
0.9396095871925354	7482947.102131682
0.943219780921936	7198940.41649073
0.9468464851379395	6486229.174471494
0.9504896402359009	7245934.592420335
0.9541489481925964	10375888.755368674
0.9578243494033813	11073875.487002512
0.9615156054496765	8181737.164240189
0.9652225375175476	5915661.42067904
0.9689450263977051	7861460.721992142
0.9726828336715698	12667510.318384489
0.9764357805252075	15099202.442219721
0.9802037477493286	16109808.245217152
0.983986496925354	19550969.18595161
0.9877838492393494	23186302.54780909
0.9915955662727356	24708463.383564886
0.9954215884208679	24875880.09372508
0.9992615580558777	23267319.59473421
1.0031154155731201	21619786.749230582
1.0069829225540161	23133923.495915335
1.0108637809753418	27538378.76780973
1.0147579908370972	32684953.089516405
1.018665075302124	36154687.71047433
1.022585153579712	36752336.64377182
1.0265177488327026	37634894.499922425
1.0304628610610962	41484371.047542475
1.0344202518463135	45734741.88137793
1.0383895635604858	48519699.911835894
1.0423706769943237	50610079.63297898
1.0463634729385376	51682781.040070824
1.0503677129745483	52518845.455704235
1.0543830394744873	56032642.98370738
1.058409333229065	60547238.49955118
1.0624464750289917	63040235.12460986
1.0664942264556885	63609209.69528601
1.0705522298812866	63560707.82521502
1.0746204853057861	64122458.208657846
1.0786986351013184	64091132.02569984
1.0827864408493042	64088638.3987215
1.086883783340454	59451297.56378105
1.0909905433654785	45681466.3958232
1.0951062440872192	33159317.763474736
1.0992310047149658	23317580.492736045
1.10336434841156	11878272.188980393
1.1075061559677124	6228227.610958365
1.1116561889648438	5317913.699542582
1.115814208984375	3814328.9639028357
1.1199802160263062	3218258.411633939
1.124153733253479	3485228.800463795
1.1283347606658936	2910500.7178797917
1.1325229406356812	2347908.005112415
1.1367181539535522	4442754.080291016
1.1409201622009277	8483453.236634487
1.145128846168518	10469312.187556745
1.1493438482284546	8420927.801697465
1.1535650491714478	4809419.317400259
1.1577922105789185	3221473.7391874655
1.1620250940322876	3929926.850278107
1.1662636995315552	6486864.302587631
1.170507550239563	9591424.626833465
1.174756646156311	13283219.201669771
1.1790107488632202	18600948.066843588
1.1832695007324219	20581947.99086462
1.1875330209732056	18516484.15120495
1.191800832748413	23643516.143748645
1.1960728168487549	35441368.80806542
1.2003488540649414	42322216.161677
1.2046287059783936	44513963.65403946
1.2089121341705322	45460850.38968209
1.2131990194320679	48264944.91949784
1.2174891233444214	55228511.60217118
1.2217823266983032	60924352.74291482
1.2260783910751343	64424491.43160316
1.230377197265625	69169280.25797082
1.2346785068511963	72561673.34205565
1.238982081413269	72066249.3332077
1.2432878017425537	71144693.23884805
1.2475954294204712	71837567.9867001
1.2519049644470215	72596148.54680125
1.256216049194336	80260645.20971793
1.2605286836624146	86373115.92145501
1.2648425102233887	81710228.4287473
1.2691574096679688	81498989.04909393
1.2734732627868652	88109099.701639
1.2777899503707886	86380908.04628596
1.2821072340011597	76495990.29488204
1.2864248752593994	73252067.60946245
1.2907428741455078	74519401.56717673
1.2950609922409058	72500322.63917384
1.2993791103363037	59781744.28305319
1.303696870803833	46298229.11151875
1.3080145120620728	44150595.29310927
1.3123314380645752	46621328.050739214
1.3166478872299194	50361426.78581555
1.3209635019302368	44731562.00889852
1.3252781629562378	32295964.828978006
1.3295916318893433	21609122.924078017
1.3339040279388428	10138854.633109568
1.3382149934768677	2772675.376238989
1.3425244092941284	1115589.7845440132
1.3468321561813354	792417.9266647382
1.3511382341384888	640901.2594419583
1.3554422855377197	455345.1350612612
1.3597444295883179	496418.97072462697
1.3640443086624146	723750.7763569022
1.3683418035507202	647147.3200203691
1.3726370334625244	449678.8054280595
1.3769296407699585	552224.3610270115
1.381219506263733	552421.8480573002
1.3855066299438477	317901.92660675786
1.3897908926010132	409959.1241349369
1.3940720558166504	787336.8669755465
1.3983501195907593	722107.864469873
1.4026249647140503	521239.60761623445
1.4068963527679443	598327.1602804194
1.4111642837524414	611664.7169569236
1.4154287576675415	581261.3126879184
1.419689416885376	572890.3960438649
1.4239463806152344	609742.6297454142
1.4281994104385376	470089.00085916545
1.4324485063552856	289471.1250432859
1.436693549156189	510776.334106674
1.440934419631958	1163277.0943554153
1.4451709985733032	2335083.9276449494
1.449403166770935	3613313.962610511
1.453631043434143	3618564.470849934
1.4578542709350586	3160320.158570338
1.4620729684829712	4287618.880899111
1.4662868976593018	5543140.323558664
1.4704961776733398	3874313.236671976
1.4747005701065063	1547773.6108695236
1.4788999557495117	2141092.489352721
1.4830944538116455	4339672.560833261
1.4872838258743286	4921426.125901248
1.491468071937561	3628149.6109455307
1.4956470727920532	3725379.4837861946
1.4998208284378052	6171621.808086136
1.5039892196655273	7264514.653408526
1.5081522464752197	5724926.343410992
1.5123097896575928	5854657.658227545
1.5164618492126465	9880073.670725692
1.5206083059310913	14427819.60385661
1.5247491598129272	15785836.41186211
1.5288842916488647	15776917.908834158
1.5330137014389038	17060328.830465388
1.5371372699737549	18168382.523191907
1.541254997253418	18670274.163830325
1.545366883277893	20923070.951020848
1.5494728088378906	23164375.112938423
1.5535727739334106	23929249.012266736
1.5576666593551636	25397192.761450686
1.561754584312439	28561410.00243627
1.5658363103866577	32715275.00865178
1.5699119567871094	34914360.733501434
1.5739814043045044	34412813.16524401
1.5780447721481323	35200244.48536223
1.582101821899414	38706415.72147311
1.5861525535583496	41808588.16249473
1.5901970863342285	40840970.07573841
1.5942351818084717	36487478.59294283
1.5982669591903687	34223494.50541694
1.6022924184799194	33627868.97082878
1.606311559677124	31345978.473653995
1.6103241443634033	30072210.602570787
1.6143304109573364	28258042.320103895
1.6183301210403442	24021008.47475251
1.6223233938217163	21036050.47269692
1.6263102293014526	19810882.035402905
1.6302905082702637	20921718.70163212
1.634264349937439	25163890.180630784
1.638231635093689	29930691.882575247
1.6421923637390137	30885441.58787975
1.646146535873413	24665668.806088585
1.6500942707061768	18758521.846270192
1.6540353298187256	19928335.90532187
1.6579699516296387	21814774.66794638
1.661897897720337	20470660.729787372
1.6658192873001099	14560645.602529516
1.6697341203689575	9059857.570474178
1.6736423969268799	10244380.386950608
1.677544116973877	12184929.754544431
1.6814392805099487	11869083.784722546
1.6853278875350952	10504368.019028125
1.6892099380493164	8331619.860724647
1.6930854320526123	6776798.056266351
1.696954369544983	5726822.640918657
1.7008168697357178	5183589.14717266
1.7046726942062378	5244098.010032499
1.708522081375122	6213204.502520508
1.712364912033081	7121788.882195862
1.7162011861801147	7489667.949520634
1.7200311422348022	8590495.247490766
1.723854422569275	8763831.606746655
1.7276713848114014	7285998.45232372
1.731481909751892	5937858.554328867
1.7352858781814575	5305569.384756887
1.7390835285186768	5622494.365360083
1.7428747415542603	6095075.090044262
1.7466596364974976	5179928.629682946
1.7504380941390991	4008581.195898486
1.7542102336883545	4690806.01491441
1.7579760551452637	6540650.429345516
1.7617355585098267	7899930.4877711935
1.7654887437820435	7585682.992155188
1.7692357301712036	5172399.666611383
1.7729763984680176	2659985.4825009084
1.776710867881775	1482700.3122885493
1.7804391384124756	1299192.6904821214
1.7841613292694092	1422567.0031101606
1.7878772020339966	1625451.110792129
1.7915871143341064	2625127.1352184257
1.7952908277511597	3446785.628490411
1.7989884614944458	3040951.673816293
1.8026801347732544	2255953.0619373787
1.806365728378296	1772392.8925621016
1.8100452423095703	1550094.5571633363
1.8137187957763672	1262382.8027712444
1.817386507987976	867557.2068926677
1.8210482597351074	1710408.8412079043
1.8247040510177612	3370634.513943667
1.828354001045227	3044096.9671800807
1.8319982290267944	1458970.1637129658
1.8356364965438843	1406990.490943434
1.8392690420150757	2510598.104921546
1.8428958654403687	2950067.4069673554
1.8465168476104736	2459373.6580667505
1.8501322269439697	1783810.553510986
1.8537418842315674	1476397.6641119337
1.8573459386825562	1668741.1509647057
1.860944390296936	1361581.4172935588
1.864537239074707	548459.9252212003
1.8681244850158691	226072.14576718278
1.871706247329712	464836.30180317897
1.8752825260162354	973570.77334301
1.8788533210754395	1300979.7636041672
1.8824186325073242	1713725.6607463309
1.8859784603118896	3247644.2429565866
1.8895330429077148	4620402.857625022
1.8930821418762207	3527264.5977551104
1.8966259956359863	2044550.7671139732
1.9001644849777222	1938448.5908681666
1.9036977291107178	1643228.311569857
1.9072256088256836	1930813.3555169113
1.9107483625411987	2611214.4076761156
1.9142658710479736	1825162.0497927307
1.9177782535552979	1129822.007209955
1.9212853908538818	1027816.088512115
1.9247875213623047	517382.90323504945
1.9282845258712769	315004.4804969523
1.9317764043807983	1114976.5669752958
1.9352631568908691	2591086.7614916028
1.9387450218200684	2770635.0010786257
1.942221760749817	1471862.5928884181
1.9456936120986938	643222.2283335481
1.9491604566574097	519881.0593494386
1.952622413635254	715596.9174928822
1.956079363822937	1594676.0532370578
1.959531545639038	2785762.148903204
1.962978720664978	2647298.1055484056
1.966421127319336	1806160.5109701033
1.9698586463928223	2011079.5284254302
1.9732913970947266	2409385.9131131684
1.9767193794250488	2566969.915473598
1.9801424741744995	2975174.0908018397
1.9835609197616577	3238871.4427869823
1.9869745969772339	3944824.447005244
1.990383505821228	4804969.084586074
1.9937876462936401	4843582.636101174
1.9971871376037598	3920461.7522628414
2.000581979751587	2778340.012367563
2.003972291946411	3356122.8445926476
2.007357597351074	4851161.510332739
2.0107386112213135	5638893.845501559
2.0141148567199707	5381151.778308637
2.017486572265625	4157915.6659009
2.0208535194396973	3270317.4993963395
2.0242159366607666	3181051.790432203
2.027573823928833	3724740.855892047
2.0309269428253174	4671914.360114995
2.034275770187378	6194284.196609718
2.0376198291778564	8811829.640126087
2.040959596633911	11102314.47672263
2.044294595718384	11772433.810691888
2.0476250648498535	11465284.976243742
2.0509510040283203	10324877.799679693
2.054272413253784	9165702.741595328
2.057589530944824	9732694.689809414
2.0609018802642822	11502501.488200027
2.0642096996307373	12833359.98234907
2.0675129890441895	13312415.718549099
2.0708119869232178	13166491.877159536
2.074106216430664	12765430.977027018
2.0773961544036865	12940235.892716292
2.080681324005127	13485501.514943464
2.0839622020721436	13470041.320582649
2.087238311767578	12989339.03615081
2.090510129928589	12667964.971161624
2.0937774181365967	12718985.156233015
2.0970399379730225	12595134.021023825
2.1002981662750244	11814956.045197573
2.1035518646240234	11219973.303552488
2.1068007946014404	11340099.09204163
2.1100454330444336	11453898.992277194
2.1132853031158447	11055271.407965375
2.116520881652832	10098570.738389961
2.1197516918182373	9170965.186985748
2.1229779720306396	8747259.521166865
2.12619948387146	8480465.018210948
2.1294167041778564	8395090.300235465
2.132629156112671	8507739.25963988
2.1358368396759033	7962739.982451821
2.139039993286133	7134614.436418448
2.1422386169433594	6663777.071716615
2.145432472229004	6228476.311646017
2.1486217975616455	5840328.858430811
2.151806354522705	5323840.81792822
2.1549863815307617	5252886.753533485
2.1581614017486572	5797226.784469276
2.16133189201355	6062701.114704515
2.1644976139068604	5860831.034443597
2.167658567428589	5167481.352113807
2.1708147525787354	4574614.629400827
2.173966407775879	4791917.143155927
2.1771130561828613	5355429.8065514555
2.1802549362182617	5350627.894674593
2.183391809463501	4674884.120385673
2.1865241527557373	4037218.6401596875
2.1896514892578125	3668212.700805374
2.1927738189697266	3102658.3390454683
2.1958916187286377	2079186.2255224688
2.1990041732788086	1076059.297521603
2.2021119594573975	626355.9392072954
2.2052149772644043	661056.1932899281
2.208312749862671	900817.2400163545
2.2114057540893555	1255253.876189118
2.214493751525879	1502577.8165516218
2.217576742172241	1288287.8324072647
2.2206547260284424	869711.3159123706
2.2237277030944824	662422.737432395
2.2267956733703613	566771.4018974283
2.2298583984375	484458.35963979276
2.2329163551330566	454460.27977338305
2.235969066619873	486258.7756266459
2.2390167713165283	490922.07409779634
2.2420592308044434	418592.95448816294
2.2450966835021973	348201.0236820192
2.248128890991211	330754.0706073866
2.2511560916900635	359551.77405828686
2.254178285598755	468368.96812256286
2.257194995880127	683855.7150019148
2.260206699371338	703314.0861667371
2.2632133960723877	412126.33939738915
2.266214609146118	280874.3992679045
2.2692108154296875	512035.59688801086
2.2722020149230957	751655.1446307419
2.2751877307891846	703042.0163115821
2.278168201446533	544859.0553652835
2.2811436653137207	516749.7466209634
2.284113883972168	510426.45255054825
2.287078857421875	400449.23469214403
2.290038824081421	298038.55804615596
2.2929933071136475	288598.41852894565
2.295942783355713	290565.55868057325
2.298887014389038	255582.15188336695
2.301826238632202	249051.89229473213
2.304760217666626	422013.6921555136
2.3076889514923096	800535.9778613526
2.310612440109253	1218146.9019599007
2.3135311603546143	1555703.7576847633
2.3164443969726562	1467364.1246017767
2.319352865219116	823541.5559084864
2.322256088256836	317639.3035699323
2.3251543045043945	231153.44262483608
2.328047275543213	228194.86576549124
2.330935478210449	208519.91582803166
2.3338186740875244	179999.98218774243
2.3366971015930176	145208.7649624175
2.3395702838897705	119322.87914862535
2.3424389362335205	102896.48753954316
2.3453025817871094	91353.9619868619
2.348161458969116	93390.20698518328
2.351015567779541	161627.40446614142
2.353865146636963	358663.7059575679
2.3567099571228027	622468.2437423154
2.3595502376556396	803005.8452519634
2.3623859882354736	780243.1866721887
2.3652172088623047	534318.9215293025
2.368043899536133	251884.99371523748
2.370866537094116	114938.64013881759
2.3736846446990967	102578.98262075719
2.3764986991882324	119067.01815790965
2.3793084621429443	136064.9090216485
2.3821144104003906	189230.79370714002
2.384916305541992	276782.5843748474
2.387714147567749	320694.16540830256
2.3905084133148193	284174.3712534797
2.393299102783203	236966.3052693077
2.3960859775543213	207803.89517355777
2.398869514465332	211379.07515252221
2.4016497135162354	299357.7208710779
2.4044265747070312	474403.9706453627
2.407200336456299	620360.3330321236
2.409970998764038	625139.1758674724
2.4127390384674072	564745.1283696264
2.415503978729248	572223.3022091945
2.418266534805298	662618.8542502953
2.4210267066955566	728455.793557823
2.4237842559814453	681298.1921162461
2.426539897918701	655848.1157501971
2.429293394088745	823364.0398475511
2.4320452213287354	1003132.7681670774
2.4347951412200928	962929.9897852518
2.4375438690185547	872475.0695304937
2.440291166305542	916740.8788529611
2.443037271499634	946798.53660355
2.445782423019409	887287.7119980879
2.4485268592834473	883670.0532984086
2.451270818710327	993340.3712193471
2.454014539718628	1122119.8158649332
2.4567582607269287	1166898.8087148408
2.4595019817352295	1184975.3566860647
2.4622461795806885	1357954.5425960778
2.4649908542633057	1609915.8324853485
2.4677364826202393	1610849.3840205388
2.4704833030700684	1277283.1776273514
2.473231554031372	857857.0089663684
2.4759814739227295	572709.3769019939
2.4787333011627197	432216.0626186349
2.481487512588501	362149.7775391521
