#wavelength	surface flux
0.6450077295303345	158329.85886000935
0.6472567915916443	239461.28998454675
0.6494921445846558	290371.5736002505
0.6517150402069092	305903.43716322375
0.6539263725280762	319166.1120897574
0.6561272740364075	332184.4478284093
0.6583186388015747	345377.31159517507
0.6605015397071838	358839.2912602318
0.6626768708229065	372105.97957590234
0.6648455858230591	384664.9320349151
0.6670085787773132	387467.42871636065
0.6691668033599854	363422.32943319244
0.6713210344314575	353203.1466261663
0.6734722256660461	399185.2091705306
0.6756211519241333	449175.3236533116
0.6777685880661011	472273.1727204556
0.6799154281616211	488318.9832821074
0.6820623278617859	504037.50198626664
0.6842101216316223	520481.9016772491
0.6863595843315125	536713.5223742835
0.688511312007904	551891.5504257032
0.6906660795211792	565046.4652413102
0.6928245425224304	578945.545057357
0.6949873566627502	597602.1086069696
0.6971551775932312	617467.8056409522
0.6993286609649658	634929.3842345068
0.7015084028244019	651368.3030885574
0.7036949396133423	668686.9436623916
0.7058889269828796	686928.412741713
0.7080909013748169	704504.6325607174
0.710301399230957	721882.949058314
0.712520956993103	739300.6162190207
0.7147500514984131	753970.2836382963
0.7169892191886902	766332.2022798243
0.7192389369010925	781674.6705175572
0.7214996814727783	798438.5999270006
0.723771870136261	812438.993174575
0.7260559797286987	825127.7037323713
0.7283523678779602	837088.3380481414
0.7306615710258484	849021.5851276617
0.7329838871955872	861701.0458585862
0.7353196740150452	871812.1787378929
0.7376693487167358	878016.8179053154
0.7400332689285278	879535.9920007213
0.7424117922782898	872854.1852840346
0.7448052167892456	857155.1993625883
0.7472138404846191	829658.000910327
0.7496379613876343	784654.2752725182
0.7520779371261597	716628.6781092524
0.7545340061187744	620046.5767710665
0.7570064663887024	492571.9145321981
0.7594954967498779	341036.00274700974
0.7620013952255249	188268.42790831867
0.7645244002342224	72237.3310362586
0.7670646905899048	18086.087506491673
0.7696225643157959	20984.090482698484
0.7721980810165405	91036.5637628647
0.7747915983200073	241839.73884238623
0.7774031162261963	424373.40784891054
0.7800329327583313	606175.3784788509
0.7826811671257019	822099.8492816621
0.7853479981422424	1037851.4088055266
0.7880334854125977	1196239.301881981
0.7907378077507019	1236352.4618609047
0.7934610247612	1117910.719825261
0.7962033748626709	1176076.6016366
0.7989648580551147	1494887.2059582917
0.801745593547821	1710978.0798883138
0.8045456409454346	1797815.8178294566
0.8073651194572449	1865176.829377001
0.8102040886878967	1918614.4929546646
0.8130625486373901	1976172.6783972082
0.8159406185150146	2052322.6480591977
0.8188382983207703	2129327.7283689505
0.8217556476593018	2197567.854742945
0.8246926665306091	2267729.206169525
0.8276493549346924	2336570.0354702044
0.8306257724761963	2399451.2844757843
0.8336219191551208	2463307.168579555
0.8366377949714661	2526277.2628898453
0.8396733403205872	2598278.0231798235
0.8427285552024841	2687843.3696294534
0.8458034992218018	2774695.7460139873
0.8488980531692505	2843283.5488914414
0.8520121574401855	2907923.9941472746
0.8551458716392517	2996851.6560705765
0.8582990765571594	3085296.1764785536
0.8614717125892639	3133505.6064468394
0.8646637797355652	3185041.8895078655
0.8678751587867737	3275904.5090767336
0.8711057901382446	3372521.7710557412
0.8743556141853333	3456403.686507932
0.87762451171875	3529660.479253655
0.8809124231338501	3600582.395672834
0.8842192888259888	3681967.8163043
0.8875449895858765	3751568.9117150325
0.8908893465995789	3778164.3470262215
0.894252359867096	3812274.803054181
0.8976338505744934	3934714.060691205
0.9010337591171265	4106610.5758218155
0.9044519662857056	4253004.452799882
0.9078882932662964	4369807.268406406
0.9113426208496094	4465442.646037773
0.914814829826355	4526396.671551646
0.9183048605918884	4592266.564517218
0.9218124747276306	4650724.775837545
0.925337553024292	4466986.821621046
0.9288799166679382	4069726.614516028
0.9324395060539246	3933615.466160449
0.9360161423683167	4167498.957777255
0.9396095871925354	4461094.455624343
0.943219780921936	4519188.379454082
0.9468464851379395	4464118.034914159
0.9504896402359009	4590403.31375726
0.9541489481925964	4812614.33301775
0.9578243494033813	4875932.099395213
0.9615156054496765	4739743.06362182
0.9652225375175476	4711543.078889927
0.9689450263977051	4992921.071705007
0.9726828336715698	5482467.4298958
0.9764357805252075	5859683.253615478
0.9802037477493286	6070820.894763748
0.983986496925354	6276308.646082806
0.9877838492393494	6501393.665366311
0.9915955662727356	6744758.980861633
0.9954215884208679	6961259.289340494
0.9992615580558777	7134656.204231425
1.0031154155731201	7292857.6533845635
1.0069829225540161	7482963.81987711
1.0108637809753418	7704677.250768217
1.0147579908370972	7927054.897313193
1.018665075302124	8115025.23984923
1.022585153579712	8234603.180453245
1.0265177488327026	8316079.951255105
1.0304628610610962	8458037.67660094
1.0344202518463135	8707513.79412291
1.0383895635604858	8953449.120955722
1.0423706769943237	9134122.325786417
1.0463634729385376	9286308.382850116
1.0503677129745483	9429557.409555525
1.0543830394744873	9603815.337389959
1.058409333229065	9795436.152800472
1.0624464750289917	9967186.842084885
1.0664942264556885	10121620.751788495
1.0705522298812866	10271623.671899015
1.0746204853057861	10437756.99339505
1.0786986351013184	10614331.722208662
1.0827864408493042	10775852.323480133
1.086883783340454	10869553.012109736
1.0909905433654785	10858496.691571416
1.0951062440872192	10691827.645583712
1.0992310047149658	9939116.145876292
1.10336434841156	8755011.070919424
1.1075061559677124	8294638.5493043475
1.1116561889648438	8237771.538441218
1.115814208984375	7834517.951698923
1.1199802160263062	7562712.290955151
1.124153733253479	7815281.674690532
1.1283347606658936	8087990.694518937
1.1325229406356812	7698400.2707535075
1.1367181539535522	7953344.015040469
1.1409201622009277	9185522.902482795
1.145128846168518	9907859.74937506
1.1493438482284546	9151835.09502033
1.1535650491714478	7467117.426511807
1.1577922105789185	6879802.436356704
1.1620250940322876	7738605.299687272
1.1662636995315552	9038008.119268827
1.170507550239563	9938075.760650618
1.174756646156311	10846972.418598596
1.1790107488632202	12152708.989212407
1.1832695007324219	13162843.706800723
1.1875330209732056	13729017.222348152
1.191800832748413	14242372.1121929
1.1960728168487549	14846565.58770923
1.2003488540649414	15259947.526458493
1.2046287059783936	15482270.787238123
1.2089121341705322	15716789.67477009
1.2131990194320679	16024850.632777926
1.2174891233444214	16384617.5412606
1.2217823266983032	16732921.529820234
1.2260783910751343	17033946.061458204
1.230377197265625	17288413.476056192
1.2346785068511963	17516433.356097747
1.238982081413269	17762767.539837964
1.2432878017425537	17992372.026351094
1.2475954294204712	18139121.788030654
1.2519049644470215	18248675.38481672
1.256216049194336	18492911.944602314
1.2605286836624146	18758943.160395853
1.2648425102233887	18904608.14151417
1.2691574096679688	19028894.885069396
1.2734732627868652	19180481.787256252
1.2777899503707886	19331720.197150536
1.2821072340011597	19430996.473368153
1.2864248752593994	19426848.690321688
1.2907428741455078	19322791.664779335
1.2950609922409058	19352548.353818167
1.2993791103363037	19417539.732804574
1.303696870803833	19308511.93738143
1.3080145120620728	19299438.653680768
1.3123314380645752	19520693.090577062
1.3166478872299194	19827827.296352334
1.3209635019302368	19559351.486231167
1.3252781629562378	18252493.274141572
1.3295916318893433	15446659.512659015
1.3339040279388428	10640199.652570449
1.3382149934768677	5588235.195041263
1.3425244092941284	3150200.232024091
1.3468321561813354	3071881.882393852
1.3511382341384888	2651221.7471437603
1.3554422855377197	1862204.2807401814
1.3597444295883179	1683205.6923860603
1.3640443086624146	1864480.248842879
1.3683418035507202	2429434.8376477505
1.3726370334625244	4013537.3218095414
1.3769296407699585	5622478.879735422
1.381219506263733	4469631.72271325
1.3855066299438477	2073940.1198524227
1.3897908926010132	1283310.7153580324
1.3940720558166504	1461316.4707698203
1.3983501195907593	1880691.4111124673
1.4026249647140503	3036839.454416504
1.4068963527679443	3960864.8228368876
1.4111642837524414	3131733.494519195
1.4154287576675415	2364334.8138598953
1.419689416885376	2381757.8866020516
1.4239463806152344	2315564.9490092476
1.4281994104385376	2827389.567294007
1.4324485063552856	3288821.32005308
1.436693549156189	3360642.61696838
1.440934419631958	3994564.6828680416
1.4451709985733032	5642637.961700638
1.449403166770935	8050278.063761662
1.453631043434143	9665766.648436088
1.4578542709350586	10416971.506642843
1.4620729684829712	11289510.832811836
1.4662868976593018	11415625.477748787
1.4704961776733398	10730318.626144161
1.4747005701065063	10494888.026946977
1.4788999557495117	11122241.83371823
1.4830944538116455	12840890.58730483
1.4872838258743286	14691726.851271471
1.491468071937561	15223320.098827485
1.4956470727920532	15153681.523529056
1.4998208284378052	16114211.42431065
1.5039892196655273	17479074.356568
1.5081522464752197	17799787.760991316
1.5123097896575928	18215278.17345061
1.5164618492126465	19643464.857607406
1.5206083059310913	21646930.460912813
1.5247491598129272	23060688.000321124
1.5288842916488647	23307728.15622339
1.5330137014389038	23774575.9264397
1.5371372699737549	24628594.406401537
1.541254997253418	24997705.14949317
1.545366883277893	25414874.649268236
1.5494728088378906	26134723.130847428
1.5535727739334106	26535488.188884888
1.5576666593551636	26451848.68459236
1.561754584312439	26733915.91045538
1.5658363103866577	27701173.17311484
1.5699119567871094	28305115.1751866
1.5739814043045044	27904443.216622256
1.5780447721481323	27179194.251041133
1.582101821899414	27653762.77011155
1.5861525535583496	29060210.676544424
1.5901970863342285	29683952.862205017
1.5942351818084717	29448585.30501469
1.5982669591903687	29043398.12725409
1.6022924184799194	28932408.77558571
1.606311559677124	29132653.86049883
1.6103241443634033	29117605.802559573
1.6143304109573364	28769556.198738556
1.6183301210403442	28313164.12017972
1.6223233938217163	27827992.5102098
1.6263102293014526	27273688.849302433
1.6302905082702637	26664356.844499275
1.634264349937439	27279833.837727975
1.638231635093689	29327193.04243994
1.6421923637390137	30418811.34605669
1.646146535873413	29566964.431036904
1.6500942707061768	28555589.76627297
1.6540353298187256	29018047.601763353
1.6579699516296387	29756510.04803293
1.661897897720337	28628534.375023074
1.6658192873001099	25317843.55241657
1.6697341203689575	24009576.912518695
1.6736423969268799	26702916.492873274
1.677544116973877	28600474.729376327
1.6814392805099487	28435442.754236862
1.6853278875350952	28091844.718224846
1.6892099380493164	27293420.015005443
1.6930854320526123	25431447.175548665
1.696954369544983	23470673.348866787
1.7008168697357178	23152540.457471572
1.7046726942062378	23929370.107089475
1.708522081375122	24783849.33597766
1.712364912033081	25530541.706131194
1.7162011861801147	26392520.960111633
1.7200311422348022	27347366.070753854
1.723854422569275	27501778.70827184
1.7276713848114014	26799674.52023028
1.731481909751892	25502903.988925382
1.7352858781814575	24063636.756252237
1.7390835285186768	23148396.8188122
1.7428747415542603	22179711.45638955
1.7466596364974976	20580605.01148457
1.7504380941390991	18623623.534079947
1.7542102336883545	17493571.607701708
1.7579760551452637	19568751.90902766
1.7617355585098267	22162617.29485066
1.7654887437820435	20612350.94970024
1.7692357301712036	16272638.726501413
1.7729763984680176	11657251.150008205
1.776710867881775	7669138.9131697705
1.7804391384124756	6145813.124142877
1.7841613292694092	6320833.541494482
1.7878772020339966	5725035.557953152
1.7915871143341064	6014170.104175627
1.7952908277511597	7905886.895535565
1.7989884614944458	8390680.77798906
1.8026801347732544	5792471.043241077
1.806365728378296	2924061.590819257
1.8100452423095703	3004480.8064135546
1.8137187957763672	3910065.188952362
1.817386507987976	3337857.1872252994
1.8210482597351074	3878163.64183521
1.8247040510177612	4326353.021029534
1.828354001045227	2590385.703829343
1.8319982290267944	2032323.579620366
1.8356364965438843	3549898.879755942
1.8392690420150757	5072782.830199129
1.8428958654403687	5187019.937371889
1.8465168476104736	5024420.156747553
1.8501322269439697	5277601.52827055
1.8537418842315674	4165798.417789544
1.8573459386825562	2837396.881812749
1.860944390296936	2388886.9862346496
1.864537239074707	1801288.885616093
1.8681244850158691	1990865.523817437
1.871706247329712	3461399.7062599747
1.8752825260162354	5317705.47270249
1.8788533210754395	7756997.550873657
1.8824186325073242	9545485.311547678
1.8859784603118896	8884180.361681564
1.8895330429077148	8222372.41175814
1.8930821418762207	9938907.764673328
1.8966259956359863	9779881.931238364
1.9001644849777222	5381163.106259512
1.9036977291107178	2313725.351621002
1.9072256088256836	2555713.8902792847
1.9107483625411987	2529279.1779516
1.9142658710479736	1481572.8141403387
1.9177782535552979	1360492.2313281836
1.9212853908538818	1983085.6398984701
1.9247875213623047	2037638.9031032822
1.9282845258712769	2123661.231086934
1.9317764043807983	2845623.3457696894
1.9352631568908691	3204899.947672363
1.9387450218200684	3060137.6248723147
1.942221760749817	3401849.421682227
1.9456936120986938	3979563.716450734
1.9491604566574097	4584678.309604846
1.952622413635254	4436707.200215573
1.956079363822937	3464974.8265149086
1.959531545639038	3324720.3533004355
1.962978720664978	3728900.0534068807
1.966421127319336	4867860.480233915
1.9698586463928223	6941025.112480979
1.9732913970947266	8012550.020178886
1.9767193794250488	8627352.861825733
1.9801424741744995	10254059.663040647
1.9835609197616577	11921593.777774384
1.9869745969772339	12076061.730242338
1.990383505821228	10506829.652990136
1.9937876462936401	9941895.857287563
1.9971871376037598	10264892.55578719
2.000581979751587	11181353.341930462
2.003972291946411	13843560.448311016
2.007357597351074	16080246.172989331
2.0107386112213135	18021851.024146594
2.0141148567199707	18723307.136174195
2.017486572265625	17182684.037481315
2.0208535194396973	17707158.809157353
2.0242159366607666	20476481.546037935
2.027573823928833	22192119.329346266
2.0309269428253174	23315381.558850024
2.034275770187378	24809360.507688772
2.0376198291778564	26031191.565851595
2.040959596633911	27130931.149432074
2.044294595718384	28624447.617595404
2.0476250648498535	30168772.344542235
2.0509510040283203	30468108.396786507
2.054272413253784	29637469.110641204
2.057589530944824	29874947.53025624
2.0609018802642822	31131376.73522459
2.0642096996307373	32166190.358133744
2.0675129890441895	32853847.661365572
2.0708119869232178	33147032.87505676
2.074106216430664	32958807.722229328
2.0773961544036865	32788027.109269034
2.080681324005127	33082433.645512618
2.0839622020721436	33478241.16804169
2.087238311767578	33741427.95998638
2.090510129928589	33708719.821753025
2.0937774181365967	33391186.910248406
2.0970399379730225	33298343.29378622
2.1002981662750244	33316841.435530435
2.1035518646240234	33049953.859282386
2.1068007946014404	32690728.90416789
2.1100454330444336	32896700.89071442
2.1132853031158447	33312992.49557267
2.116520881652832	33038490.37103387
2.1197516918182373	32664794.407920048
2.1229779720306396	32779027.540429436
2.12619948387146	33017133.77364664
2.1294167041778564	33086595.794738937
2.132629156112671	33086469.310609862
2.1358368396759033	32748546.439074844
2.139039993286133	32025644.203030583
2.1422386169433594	31317002.747028418
2.145432472229004	30719259.228615027
2.1486217975616455	30268255.567645762
2.151806354522705	29749786.67657221
2.1549863815307617	29657029.283738174
2.1581614017486572	29764245.51493642
2.16133189201355	29206519.535297994
2.1644976139068604	28680630.155575305
2.167658567428589	28556108.98757061
2.1708147525787354	28581071.866871577
2.173966407775879	28478248.303558245
2.1771130561828613	28127364.17324972
2.1802549362182617	27621544.208453096
2.183391809463501	26853674.967632275
2.1865241527557373	25854435.812952947
2.1896514892578125	24521316.661554497
2.1927738189697266	21993070.749943893
2.1958916187286377	18079485.908608038
2.1990041732788086	14475391.845585762
2.2021119594573975	12540048.71817382
2.2052149772644043	11894425.521768803
2.208312749862671	12176485.90186583
2.2114057540893555	13375375.921593156
2.214493751525879	14540308.490323098
2.217576742172241	14579001.17724785
2.2206547260284424	14136264.92023426
2.2237277030944824	13747504.208856499
2.2267956733703613	12480050.770872805
2.2298583984375	10659476.587985484
2.2329163551330566	9529485.991344964
2.235969066619873	9219699.579602476
2.2390167713165283	8906698.78949646
2.2420592308044434	7899290.022832216
2.2450966835021973	6800553.600049965
2.248128890991211	6975645.690419765
2.2511560916900635	8039706.136348558
2.254178285598755	8650908.818130268
2.257194995880127	9056600.242942797
2.260206699371338	9105861.149420775
2.2632133960723877	8044682.863628443
2.266214609146118	6714489.173107171
2.2692108154296875	6278256.425860601
2.2722020149230957	6892374.065898535
2.2751877307891846	7664413.479520267
2.278168201446533	7609383.714764924
2.2811436653137207	6979661.209767122
2.284113883972168	6464790.018507238
2.287078857421875	6028486.791429503
2.290038824081421	5591244.04481283
2.2929933071136475	5397261.0939411735
2.295942783355713	5403475.892690204
2.298887014389038	5431388.029675422
2.301826238632202	5585905.739596642
2.304760217666626	6149889.845057777
2.3076889514923096	7149903.907453162
2.310612440109253	8086615.709577681
2.3135311603546143	7803061.865292447
2.3164443969726562	5823479.063808757
2.319352865219116	3916537.2293245825
2.322256088256836	3386652.359809017
2.3251543045043945	3388041.4265427943
2.328047275543213	3320498.4027804467
2.330935478210449	3358068.793202355
2.3338186740875244	3435982.6721304078
2.3366971015930176	3442330.7633723007
2.3395702838897705	3427266.3534097285
2.3424389362335205	3310337.3911108645
2.3453025817871094	3092764.3403423834
2.348161458969116	3026061.8220362505
2.351015567779541	3414672.1111184526
2.353865146636963	4211001.957575837
2.3567099571228027	4914806.457300018
2.3595502376556396	5446624.334893017
2.3623859882354736	5992688.711721072
2.3652172088623047	5845497.428165839
2.368043899536133	4438778.704128521
2.370866537094116	2901772.53989247
2.3736846446990967	2532716.272756193
2.3764986991882324	2819270.7242789213
2.3793084621429443	2966906.494522929
2.3821144104003906	3225191.22924644
2.384916305541992	3922010.3645814615
2.387714147567749	4622475.209362601
2.3905084133148193	4756376.550446394
2.393299102783203	4626730.748853376
2.3960859775543213	4585411.052964737
2.398869514465332	4638722.644423791
2.4016497135162354	4568249.882906216
2.4044265747070312	4431867.515623145
2.407200336456299	4852094.696386662
2.409970998764038	5747104.587911771
2.4127390384674072	6321600.752103487
2.415503978729248	6578779.212874378
2.418266534805298	7187877.627785351
2.4210267066955566	7724114.129973031
2.4237842559814453	7194941.762384377
2.426539897918701	6318813.294568757
2.429293394088745	6507388.092846227
2.4320452213287354	7402666.0913057085
2.4347951412200928	7822551.166394914
2.4375438690185547	7687103.218911696
2.440291166305542	7474696.084639983
2.443037271499634	7062599.283054458
2.445782423019409	6229023.1698481385
2.4485268592834473	5309164.112855914
2.451270818710327	5047381.5222669095
2.454014539718628	5966260.533705109
2.4567582607269287	6954157.463791502
2.4595019817352295	6830367.296977273
2.4622461795806885	6949344.337432111
2.4649908542633057	7060174.312510399
2.4677364826202393	5726629.308980082
2.4704833030700684	4067280.734406502
2.473231554031372	2981673.0348275406
2.4759814739227295	2316478.7039938155
2.4787333011627197	2085354.847354904
2.481487512588501	2400455.711290346
