#wavelength	surface flux
0.6450077295303345	2227.450881097774
0.6472567915916443	3484.8468139034567
0.6494921445846558	4524.261438665193
0.6517150402069092	5187.24113508024
0.6539263725280762	5855.824960548516
0.6561272740364075	6553.304008871076
0.6583186388015747	7293.601027545083
0.6605015397071838	8088.304453415798
0.6626768708229065	8949.014430736455
0.6648455858230591	9877.958333941155
0.6670085787773132	10691.76204419773
0.6691668033599854	10981.122433939183
0.6713210344314575	11544.768496702583
0.6734722256660461	13342.423319538584
0.6756211519241333	15311.312311748128
0.6777685880661011	16755.591761856074
0.6799154281616211	18093.899941286338
0.6820623278617859	19447.079253664768
0.6842101216316223	20822.143277250492
0.6863595843315125	22210.84617521638
0.688511312007904	23544.26319935936
0.6906660795211792	24596.119461003178
0.6928245425224304	25410.665578896584
0.6949873566627502	26684.35400810543
0.6971551775932312	28325.6420796272
0.6993286609649658	29681.737569270106
0.7015084028244019	30910.858578947224
0.7036949396133423	32030.902199882676
0.7058889269828796	32842.17657442454
0.7080909013748169	33415.078349801704
0.710301399230957	33916.403197695305
0.712520956993103	34253.98825275238
0.7147500514984131	34070.015167378915
0.7169892191886902	33344.127542301896
0.7192389369010925	32294.48044378059
0.7214996814727783	30797.462706427163
0.723771870136261	28797.997267840692
0.7260559797286987	26698.221330910867
0.7283523678779602	24618.12698140089
0.7306615710258484	23428.003558014632
0.7329838871955872	23451.01802682678
0.7353196740150452	22610.916469479074
0.7376693487167358	20452.053785168704
0.7400332689285278	18079.78856221516
0.7424117922782898	15772.938468415956
0.7448052167892456	13706.040449794085
0.7472138404846191	11742.068496925876
0.7496379613876343	9757.04602475488
0.7520779371261597	7865.504030300356
0.7545340061187744	6118.290667083593
0.7570064663887024	4546.88610694498
0.7594954967498779	3165.2860807258016
0.7620013952255249	1961.489343881863
0.7645244002342224	987.1300962136141
0.7670646905899048	430.8914496645213
0.7696225643157959	457.3866303194932
0.7721980810165405	1206.4648916308568
0.7747915983200073	2656.4808115696214
0.7774031162261963	4449.417356560237
0.7800329327583313	6650.360735867796
0.7826811671257019	9989.372241809438
0.7853479981422424	14463.671616335509
0.7880334854125977	19500.341236156994
0.7907378077507019	23115.29647011415
0.7934610247612	23943.914894355083
0.7962033748626709	30750.025843509942
0.7989648580551147	46628.05513468883
0.801745593547821	62032.113489600175
0.8045456409454346	75249.90653449115
0.8073651194572449	88204.80412468774
0.8102040886878967	100226.89514963307
0.8130625486373901	115218.53829532971
0.8159406185150146	136439.8024247328
0.8188382983207703	162584.82018196324
0.8217556476593018	192504.81879303756
0.8246926665306091	221571.7710803325
0.8276493549346924	246226.38726748258
0.8306257724761963	276054.56684939854
0.8336219191551208	318698.4457539929
0.8366377949714661	361024.14233113755
0.8396733403205872	399075.19750186475
0.8427285552024841	444400.90347249847
0.8458034992218018	496305.1391510105
0.8488980531692505	522717.60634344467
0.8520121574401855	537534.2865535163
0.8551458716392517	629904.3545197421
0.8582990765571594	765900.1225710476
0.8614717125892639	863866.1622877648
0.8646637797355652	950205.1427282874
0.8678751587867737	1053886.2433053022
0.8711057901382446	1169309.5284136531
0.8743556141853333	1278049.3499372723
0.87762451171875	1367075.4605510652
0.8809124231338501	1421963.802467956
0.8842192888259888	1449407.1199588473
0.8875449895858765	1467386.6606602364
0.8908893465995789	1402466.0761059674
0.894252359867096	1270255.7976893121
0.8976338505744934	1434112.0103590712
0.9010337591171265	1978063.3338630348
0.9044519662857056	2512223.035157029
0.9078882932662964	2827913.149451408
0.9113426208496094	2925813.5730217774
0.914814829826355	2858775.4310108605
0.9183048605918884	2851419.900000407
0.9218124747276306	2739480.0650435886
0.925337553024292	2006646.1372575718
0.9288799166679382	1280544.8015637174
0.9324395060539246	1165197.064459047
0.9360161423683167	1221149.1550330655
0.9396095871925354	1189322.1802335079
0.943219780921936	1102636.425764284
0.9468464851379395	941785.7460500497
0.9504896402359009	1132157.5617494062
0.9541489481925964	1822650.1210046879
0.9578243494033813	1940430.236443697
0.9615156054496765	1303044.392432775
0.9652225375175476	914806.3293375944
0.9689450263977051	1459242.3573280852
0.9726828336715698	2596252.77977342
0.9764357805252075	3194029.425252383
0.9802037477493286	3505467.065585793
0.983986496925354	4415027.330807433
0.9877838492393494	5395351.29786198
0.9915955662727356	6038222.037144107
0.9954215884208679	6568659.555562765
0.9992615580558777	6701944.053602354
1.0031154155731201	6618103.389399441
1.0069829225540161	7274870.935700536
1.0108637809753418	8749061.401078846
1.0147579908370972	10323992.805807991
1.018665075302124	11365532.698257755
1.022585153579712	11684206.68150426
1.0265177488327026	12053348.30664307
1.0304628610610962	13071752.812288728
1.0344202518463135	14180622.872879464
1.0383895635604858	14976238.999177344
1.0423706769943237	15555144.758134129
1.0463634729385376	15636082.940295175
1.0503677129745483	15668317.124691533
1.0543830394744873	16589271.890610162
1.058409333229065	17724575.411455892
1.0624464750289917	18319046.66080701
1.0664942264556885	18247105.521910466
1.0705522298812866	17722896.03953596
1.0746204853057861	17462047.70673571
1.0786986351013184	17251475.971156914
1.0827864408493042	17132824.129917137
1.086883783340454	15846305.784560006
1.0909905433654785	12071055.07029841
1.0951062440872192	8468274.453208819
1.0992310047149658	5661719.025795402
1.10336434841156	2721120.1168766418
1.1075061559677124	1336255.6419953178
1.1116561889648438	1070864.8150037383
1.115814208984375	656899.027074926
1.1199802160263062	498329.8530951497
1.124153733253479	527713.7976862467
1.1283347606658936	420038.0552592727
1.1325229406356812	341528.5913931826
1.1367181539535522	742841.111634114
1.1409201622009277	1502719.5482036183
1.145128846168518	1859449.9506289612
1.1493438482284546	1456979.9357198656
1.1535650491714478	757526.8369003957
1.1577922105789185	422839.0495422062
1.1620250940322876	526465.941639706
1.1662636995315552	1021767.0690484523
1.170507550239563	1794393.8422797362
1.174756646156311	2972637.2853443725
1.1790107488632202	4627201.076931112
1.1832695007324219	5361743.77472367
1.1875330209732056	5028490.90589421
1.191800832748413	6738038.052729315
1.1960728168487549	10433747.17604821
1.2003488540649414	12875089.707738182
1.2046287059783936	13947621.592259483
1.2089121341705322	14480208.38515271
1.2131990194320679	15373848.227526546
1.2174891233444214	17521892.379912805
1.2217823266983032	19518756.215310942
1.2260783910751343	21093026.002025366
1.230377197265625	23008388.646417122
1.2346785068511963	24449632.63525266
1.238982081413269	25260839.2105067
1.2432878017425537	26354142.122320335
1.2475954294204712	27485642.780011337
1.2519049644470215	28136516.166751806
1.256216049194336	29932542.43704319
1.2605286836624146	30598735.82917177
1.2648425102233887	28346633.44361614
1.2691574096679688	27734318.84733362
1.2734732627868652	29597132.772955358
1.2777899503707886	28817364.339888062
1.2821072340011597	25055243.248167858
1.2864248752593994	23533191.943913545
1.2907428741455078	23556060.02305019
1.2950609922409058	22653694.04991906
1.2993791103363037	18195725.781193484
1.303696870803833	13195121.020935787
1.3080145120620728	11863247.494492048
1.3123314380645752	12539959.45344331
1.3166478872299194	14697302.776829967
1.3209635019302368	13491554.276401278
1.3252781629562378	9129943.30401899
1.3295916318893433	5549540.649199411
1.3339040279388428	2398160.7487438875
1.3382149934768677	604005.300105065
1.3425244092941284	216251.62206971023
1.3468321561813354	120000.83394304536
1.3511382341384888	76884.765751018
1.3554422855377197	46348.24754203012
1.3597444295883179	43903.51352481307
1.3640443086624146	59837.752098206925
1.3683418035507202	53439.86267773827
1.3726370334625244	39339.41092677834
1.3769296407699585	59167.12880206083
1.381219506263733	66778.66728352092
1.3855066299438477	37807.524966804885
1.3897908926010132	53885.021586222654
1.3940720558166504	116827.03938244196
1.3983501195907593	107911.75695328663
1.4026249647140503	75902.61897716836
1.4068963527679443	84784.30696497697
1.4111642837524414	65634.85530887372
1.4154287576675415	41854.56182418274
1.419689416885376	44810.06990618783
1.4239463806152344	57520.19580320783
1.4281994104385376	43640.206065145074
1.4324485063552856	23077.798758032022
1.436693549156189	63104.58259699526
1.440934419631958	215066.51035620001
1.4451709985733032	528876.439807743
1.449403166770935	894568.028466148
1.453631043434143	946988.4058989398
1.4578542709350586	893898.3610242663
1.4620729684829712	1301670.7773935082
1.4662868976593018	1719085.806949025
1.4704961776733398	1151554.0678712144
1.4747005701065063	353637.85195553297
1.4788999557495117	498784.4271841871
1.4830944538116455	1093989.839295299
1.4872838258743286	1193256.11171181
1.491468071937561	823522.391390041
1.4956470727920532	966989.2266630434
1.4998208284378052	1898676.5443521088
1.5039892196655273	2289961.566641605
1.5081522464752197	1697959.314787938
1.5123097896575928	1651972.8400329538
1.5164618492126465	2881518.6411351524
1.5206083059310913	4461905.762252072
1.5247491598129272	5283337.730979594
1.5288842916488647	5566766.800090102
1.5330137014389038	6137243.1980658285
1.5371372699737549	6749704.591165352
1.541254997253418	6926572.4456004705
1.545366883277893	7515786.303505231
1.5494728088378906	8454100.314596497
1.5535727739334106	9096771.028769528
1.5576666593551636	9923076.25298076
1.561754584312439	11308739.65560631
1.5658363103866577	12981698.581045978
1.5699119567871094	13852901.165341891
1.5739814043045044	13510494.797307324
1.5780447721481323	13599763.56221004
1.582101821899414	14875181.738446418
1.5861525535583496	16005914.897130737
1.5901970863342285	15480227.029316548
1.5942351818084717	13357527.751339922
1.5982669591903687	11797446.318888417
1.6022924184799194	11084487.141300712
1.606311559677124	10102012.933958402
1.6103241443634033	9695574.454918334
1.6143304109573364	8773234.72214017
1.6183301210403442	6630965.131426007
1.6223233938217163	5071056.745456168
1.6263102293014526	4358563.383856272
1.6302905082702637	4807415.403167737
1.634264349937439	6549705.35602629
1.638231635093689	8405311.44084064
1.6421923637390137	8697951.613068173
1.646146535873413	6267712.194127299
1.6500942707061768	4011600.7363662575
1.6540353298187256	4369018.159949968
1.6579699516296387	5159363.5416621575
1.661897897720337	5030344.226540125
1.6658192873001099	3524719.1012005396
1.6697341203689575	1891626.3748848233
1.6736423969268799	1813550.311778663
1.677544116973877	1911259.4217865157
1.6814392805099487	1677669.8319099513
1.6853278875350952	1468621.002029813
1.6892099380493164	1177439.2588204115
1.6930854320526123	1001212.1589151114
1.696954369544983	769838.0496384128
1.7008168697357178	546347.845318964
1.7046726942062378	518709.42279684526
1.708522081375122	760221.6311830828
1.712364912033081	1044639.6867223327
1.7162011861801147	1280754.533075871
1.7200311422348022	1679668.0510701216
1.723854422569275	1664736.3166849182
1.7276713848114014	1188496.7421261251
1.731481909751892	1010441.8765720719
1.7352858781814575	1154521.058692941
1.7390835285186768	1394011.5330900336
1.7428747415542603	1558723.721312961
1.7466596364974976	1292491.3683788776
1.7504380941390991	853693.1732224749
1.7542102336883545	960540.7669929353
1.7579760551452637	1405142.3804415683
1.7617355585098267	1522550.1983104297
1.7654887437820435	1274992.8656208054
1.7692357301712036	897147.6706160856
1.7729763984680176	585715.5055979311
1.776710867881775	369014.02333940315
1.7804391384124756	263351.1614719509
1.7841613292694092	263483.1856940126
1.7878772020339966	301244.968659937
1.7915871143341064	489602.723704984
1.7952908277511597	616653.6462263118
1.7989884614944458	485283.57044346887
1.8026801347732544	346962.04325072
1.806365728378296	345428.49104068195
1.8100452423095703	342932.3820669675
1.8137187957763672	248888.65237812002
1.817386507987976	153522.9590804247
1.8210482597351074	314453.2446471134
1.8247040510177612	616744.6720982838
1.828354001045227	548263.7059270729
1.8319982290267944	240053.49012683993
1.8356364965438843	209719.42013179287
1.8392690420150757	452239.37887339504
1.8428958654403687	633984.774027489
1.8465168476104736	550860.4550363668
1.8501322269439697	326640.9179881533
1.8537418842315674	245068.2000173271
1.8573459386825562	326474.46480027377
1.860944390296936	267402.6627029881
1.864537239074707	88960.51032607138
1.8681244850158691	18485.02011624175
1.871706247329712	40248.14958091859
1.8752825260162354	107536.96550226926
1.8788533210754395	190447.18551356613
1.8824186325073242	338535.1369683893
1.8859784603118896	717116.0671736264
1.8895330429077148	1020284.6787098107
1.8930821418762207	723719.0749543193
1.8966259956359863	323457.0647902427
1.9001644849777222	277333.6180161885
1.9036977291107178	255539.73853984007
1.9072256088256836	355270.5154665253
1.9107483625411987	510973.03141037095
1.9142658710479736	349371.02044144156
1.9177782535552979	193563.40011453762
1.9212853908538818	177236.83141253266
1.9247875213623047	87944.02233940155
1.9282845258712769	43903.28613435325
1.9317764043807983	186708.04753527968
1.9352631568908691	460901.6921958557
1.9387450218200684	493603.8082276332
1.942221760749817	252011.34057560374
1.9456936120986938	97385.8605021191
1.9491604566574097	70570.89275278566
1.952622413635254	97741.0354464835
1.956079363822937	240235.58824006614
1.959531545639038	487016.07446989196
1.962978720664978	529458.7250100588
1.966421127319336	397938.94866978907
1.9698586463928223	450003.87208036595
1.9732913970947266	567425.5471915943
1.9767193794250488	663367.2337563792
1.9801424741744995	805742.3758709304
1.9835609197616577	880908.9710233599
1.9869745969772339	1027124.6323850612
1.990383505821228	1182007.8598188958
1.9937876462936401	1136311.8311715864
1.9971871376037598	872709.3905090432
2.000581979751587	597774.144155187
2.003972291946411	790812.8362141908
2.007357597351074	1249896.6928382162
2.0107386112213135	1479667.9426428773
2.0141148567199707	1381249.0705309932
2.017486572265625	1111814.7192256323
2.0208535194396973	968335.3153894312
2.0242159366607666	976477.5281594256
2.027573823928833	1053237.264862208
2.0309269428253174	1134094.0307922408
2.034275770187378	1412096.2096578863
2.0376198291778564	2015964.7325010793
2.040959596633911	2471695.4792436757
2.044294595718384	2580196.1924100434
2.0476250648498535	2481361.1832810617
2.0509510040283203	2199064.9539373494
2.054272413253784	2029398.3214285078
2.057589530944824	2189662.5888852994
2.0609018802642822	2439137.557647407
2.0642096996307373	2593417.2131819297
2.0675129890441895	2648353.584073718
2.0708119869232178	2612719.7715767263
2.074106216430664	2534570.8524867566
2.0773961544036865	2517196.913572382
2.080681324005127	2539582.8592694495
2.0839622020721436	2498686.1844593086
2.087238311767578	2420397.648389463
2.090510129928589	2380187.117532653
2.0937774181365967	2371190.602412817
2.0970399379730225	2314961.2892955947
2.1002981662750244	2174050.7650404377
2.1035518646240234	2077991.0692138653
2.1068007946014404	2087507.2265531605
2.1100454330444336	2086110.5758401006
2.1132853031158447	2001601.5328910768
2.116520881652832	1818004.318161554
2.1197516918182373	1614019.7569487859
2.1229779720306396	1480014.0700415338
2.12619948387146	1391333.3240721081
2.1294167041778564	1372081.3622062986
2.132629156112671	1420008.1657956785
2.1358368396759033	1348183.5973820118
2.139039993286133	1201402.0819227956
2.1422386169433594	1083877.9041938272
2.145432472229004	947511.2944647485
2.1486217975616455	824356.3133307365
2.151806354522705	691067.6429772049
2.1549863815307617	688180.327959919
2.1581614017486572	835592.4396941552
2.16133189201355	905740.6390025683
2.1644976139068604	857970.8006847093
2.167658567428589	699189.3016266415
2.1708147525787354	599698.351042059
2.173966407775879	742750.1865456398
2.1771130561828613	967559.4226576409
2.1802549362182617	1017856.7654053569
2.183391809463501	877392.8200263433
2.1865241527557373	733669.9924983215
2.1896514892578125	657379.4185895104
2.1927738189697266	538643.4849090669
2.1958916187286377	323005.0735918547
2.1990041732788086	127206.98531054899
2.2021119594573975	47820.68577787755
2.2052149772644043	59854.84353044531
2.208312749862671	115691.5331688191
2.2114057540893555	187345.952013199
2.214493751525879	225195.93827560218
2.217576742172241	175642.22611542378
2.2206547260284424	92579.3116023263
2.2237277030944824	55077.030382193785
2.2267956733703613	45192.00011538276
2.2298583984375	37007.77867901394
2.2329163551330566	32391.345930216827
2.235969066619873	34372.352516250205
2.2390167713165283	34650.839661637474
2.2420592308044434	27967.14115112335
2.2450966835021973	21720.42156803269
2.248128890991211	20147.059802990985
2.2511560916900635	22481.947926732664
2.254178285598755	36344.077386926794
2.257194995880127	70495.67902936056
2.260206699371338	80975.15687295319
2.2632133960723877	43232.925239253025
2.266214609146118	22925.239190017863
2.2692108154296875	55818.67963251101
2.2722020149230957	91912.79205796312
2.2751877307891846	80205.40187552119
2.278168201446533	47844.10033598983
2.2811436653137207	40788.95935848545
2.284113883972168	44222.70403660552
2.287078857421875	32795.86784243838
2.290038824081421	18791.209584574997
2.2929933071136475	15799.17623921617
2.295942783355713	16242.333141619625
2.298887014389038	16259.868298013671
2.301826238632202	21193.581108260492
2.304760217666626	37361.24042283937
2.3076889514923096	67965.2966387977
2.310612440109253	115053.25703531907
2.3135311603546143	179809.90750752695
2.3164443969726562	196585.11581247125
2.319352865219116	113633.692592578
2.322256088256836	33163.69238391254
2.3251543045043945	15508.643339357312
2.328047275543213	13279.5492706413
2.330935478210449	10533.142991346998
2.3338186740875244	8683.787098224506
2.3366971015930176	6693.691031841838
2.3395702838897705	5136.720740904459
2.3424389362335205	4330.442327808611
2.3453025817871094	3725.897587860368
2.348161458969116	3764.276169114229
2.351015567779541	9019.67387538406
2.353865146636963	26317.98568997808
2.3567099571228027	53088.13166846281
2.3595502376556396	78349.6330554198
2.3623859882354736	82663.92729073725
2.3652172088623047	53441.38467010499
2.368043899536133	18903.67827928049
2.370866537094116	5019.468897564236
2.3736846446990967	3628.0529510878905
2.3764986991882324	4387.800014460103
2.3793084621429443	5868.243250981606
2.3821144104003906	11073.339763520578
2.384916305541992	19785.648808761995
2.387714147567749	23361.47507292405
2.3905084133148193	17922.485438508586
2.393299102783203	12547.42014559684
2.3960859775543213	10556.178220078385
2.398869514465332	11548.31107751078
2.4016497135162354	23703.12142624669
2.4044265747070312	52796.52694579744
2.407200336456299	76321.79558347342
2.409970998764038	70469.94293867706
2.4127390384674072	53079.78112776603
2.415503978729248	50766.23327768754
2.418266534805298	65475.9420776369
2.4210267066955566	78223.3496924034
2.4237842559814453	72166.74466156743
2.426539897918701	66433.64509528756
2.429293394088745	88929.54214231951
2.4320452213287354	115810.8672607703
2.4347951412200928	113781.52547335994
2.4375438690185547	110650.10573362543
2.440291166305542	132293.81816595234
2.443037271499634	139757.06860369674
2.445782423019409	116677.60621346309
2.4485268592834473	106248.78938595987
2.451270818710327	143058.10928647406
2.454014539718628	203897.23650006633
2.4567582607269287	237793.20183159172
2.4595019817352295	252929.25375389363
2.4622461795806885	292205.3971862635
2.4649908542633057	353124.1004288767
2.4677364826202393	380271.2792922673
2.4704833030700684	326879.9193472014
2.473231554031372	222551.78962992204
2.4759814739227295	136022.3357105373
2.4787333011627197	87468.22552619973
2.481487512588501	56614.607557561
