#wavelength	surface flux
0.6450077295303345	151556.76789408672
0.6472567915916443	237023.11971567688
0.6494921445846558	305714.8732918065
0.6517150402069092	346467.5808381857
0.6539263725280762	387380.4467180245
0.6561272740364075	430104.8744722316
0.6583186388015747	474459.54779659223
0.6605015397071838	519813.6411960878
0.6626768708229065	564567.6476597419
0.6648455858230591	601830.4440125577
0.6670085787773132	596277.9869350869
0.6691668033599854	504453.35207939876
0.6713210344314575	458731.73502407066
0.6734722256660461	611196.399616227
0.6756211519241333	817163.9057618853
0.6777685880661011	941363.8237606599
0.6799154281616211	1024100.5512187527
0.6820623278617859	1095903.970300673
0.6842101216316223	1163324.552890267
0.6863595843315125	1227196.087668683
0.688511312007904	1284561.9344652954
0.6906660795211792	1330417.2902374126
0.6928245425224304	1372242.0731221426
0.6949873566627502	1427507.8235216592
0.6971551775932312	1488408.7613398791
0.6993286609649658	1537342.7248292642
0.7015084028244019	1577528.7352041432
0.7036949396133423	1609838.621714544
0.7058889269828796	1630238.1786697702
0.7080909013748169	1640330.2688101865
0.710301399230957	1643765.8050409097
0.712520956993103	1638847.318133338
0.7147500514984131	1618462.4788412696
0.7169892191886902	1581935.9446521269
0.7192389369010925	1532898.2083398593
0.7214996814727783	1470581.1068033678
0.723771870136261	1398143.0021466063
0.7260559797286987	1320050.476455017
0.7283523678779602	1233476.23467509
0.7306615710258484	1156215.107930351
0.7329838871955872	1096829.7901649
0.7353196740150452	1018021.6686705961
0.7376693487167358	912620.0405686186
0.7400332689285278	802989.9606800025
0.7424117922782898	693940.8588040192
0.7448052167892456	588674.3943444439
0.7472138404846191	486143.7509843737
0.7496379613876343	385739.89598673
0.7520779371261597	291504.36675494147
0.7545340061187744	206394.3494561153
0.7570064663887024	133483.04506337648
0.7594954967498779	75831.71009467376
0.7620013952255249	35391.37656123283
0.7645244002342224	12241.931245348305
0.7670646905899048	3191.311397903381
0.7696225643157959	3567.1160083968807
0.7721980810165405	15440.520817446844
0.7747915983200073	46442.29844399223
0.7774031162261963	94829.26938674552
0.7800329327583313	166915.83685543717
0.7826811671257019	291462.3976642994
0.7853479981422424	462172.3934997167
0.7880334854125977	647088.6913069458
0.7907378077507019	767045.8561238152
0.7934610247612	770370.4754669496
0.7962033748626709	987123.4792022986
0.7989648580551147	1529122.9892670305
0.801745593547821	2033736.8313812544
0.8045456409454346	2434052.437187494
0.8073651194572449	2823237.1687874547
0.8102040886878967	3209809.066714879
0.8130625486373901	3657983.59918526
0.8159406185150146	4158658.799720203
0.8188382983207703	4697301.858663204
0.8217556476593018	5392323.081745581
0.8246926665306091	6138698.172043873
0.8276493549346924	6777080.123250815
0.8306257724761963	7488119.555722454
0.8336219191551208	8398841.195724003
0.8366377949714661	9296000.243687505
0.8396733403205872	10114316.301607037
0.8427285552024841	11017314.867707195
0.8458034992218018	11881479.194855908
0.8488980531692505	11840288.544337872
0.8520121574401855	11493936.36994792
0.8551458716392517	13374372.278411916
0.8582990765571594	15710998.565163452
0.8614717125892639	15060560.764555354
0.8646637797355652	13861935.631481243
0.8678751587867737	14624966.169726554
0.8711057901382446	15796558.536486853
0.8743556141853333	16942258.63106974
0.87762451171875	18648038.85208479
0.8809124231338501	20215609.813841738
0.8842192888259888	21298757.87844928
0.8875449895858765	21585286.91019337
0.8908893465995789	20574773.242928088
0.894252359867096	20041218.896985594
0.8976338505744934	22970580.572157793
0.9010337591171265	29134580.01606836
0.9044519662857056	35360293.27756265
0.9078882932662964	39833985.004073426
0.9113426208496094	42375407.67845519
0.914814829826355	42849156.54121988
0.9183048605918884	43241171.96751465
0.9218124747276306	41668674.419739984
0.925337553024292	34404279.91482119
0.9288799166679382	29442198.36452682
0.9324395060539246	30476293.528382726
0.9360161423683167	31698966.270234868
0.9396095871925354	31350024.750739757
0.943219780921936	30252374.300559543
0.9468464851379395	28247714.606190745
0.9504896402359009	30608990.718831234
0.9541489481925964	39624560.05843332
0.9578243494033813	42491895.87636877
0.9615156054496765	34769274.85821604
0.9652225375175476	27091702.892090127
0.9689450263977051	31892841.23076674
0.9726828336715698	46239030.37443376
0.9764357805252075	53185636.36866374
0.9802037477493286	54676729.549600035
0.983986496925354	62346095.571090974
0.9877838492393494	67987046.99266155
0.9915955662727356	64988950.383273326
0.9954215884208679	59901539.948458694
0.9992615580558777	51899989.72953472
1.0031154155731201	44985518.78683438
1.0069829225540161	46912553.60427983
1.0108637809753418	55866962.07135955
1.0147579908370972	67373861.23029488
1.018665075302124	74845829.10935786
1.022585153579712	74384989.44362162
1.0265177488327026	74375690.80384511
1.0304628610610962	83266193.62358762
1.0344202518463135	95125849.81991644
1.0383895635604858	102262936.24789032
1.0423706769943237	105579332.1479033
1.0463634729385376	108912433.12128294
1.0503677129745483	112465147.64577004
1.0543830394744873	119803541.66113403
1.058409333229065	128976193.93959717
1.0624464750289917	133838531.6895629
1.0664942264556885	137377178.92527512
1.0705522298812866	142241922.67245796
1.0746204853057861	146749199.9209518
1.0786986351013184	149304686.79282162
1.0827864408493042	151261672.90726748
1.086883783340454	142142077.73926646
1.0909905433654785	115341469.97665577
1.0951062440872192	91928395.73639491
1.0992310047149658	69946881.13880129
1.10336434841156	39864291.83260979
1.1075061559677124	24432045.431562457
1.1116561889648438	21689777.87517024
1.115814208984375	17086055.844323553
1.1199802160263062	15899936.639742602
1.124153733253479	17288453.56675162
1.1283347606658936	14551896.921624385
1.1325229406356812	11184029.819997244
1.1367181539535522	17161795.735250358
1.1409201622009277	30185563.946966693
1.145128846168518	37641764.154689476
1.1493438482284546	32611254.409988165
1.1535650491714478	23269665.18381318
1.1577922105789185	19577490.89605123
1.1620250940322876	20466189.897952992
1.1662636995315552	26237800.7256343
1.170507550239563	32831808.510690924
1.174756646156311	39452636.87279675
1.1790107488632202	51352359.55417175
1.1832695007324219	57780401.44188526
1.1875330209732056	53527912.53346676
1.191800832748413	63515885.85319526
1.1960728168487549	87977827.40160885
1.2003488540649414	100500356.62908879
1.2046287059783936	103961271.15873267
1.2089121341705322	106355172.30343257
1.2131990194320679	112747078.16012478
1.2174891233444214	127433118.30558048
1.2217823266983032	138453770.25223368
1.2260783910751343	143481544.3185967
1.230377197265625	150908796.92618757
1.2346785068511963	156469609.11436498
1.238982081413269	151386405.37883487
1.2432878017425537	143060534.5734062
1.2475954294204712	141300638.28787348
1.2519049644470215	142242916.10217124
1.256216049194336	161812381.6618007
1.2605286836624146	181912838.41273764
1.2648425102233887	177645876.6251837
1.2691574096679688	180568468.95307818
1.2734732627868652	195098915.31641355
1.2777899503707886	193519673.56883177
1.2821072340011597	177618432.0471235
1.2864248752593994	172825692.38295537
1.2907428741455078	175673958.64577863
1.2950609922409058	171581913.77323887
1.2993791103363037	147504565.70514828
1.303696870803833	124008626.14127484
1.3080145120620728	122459595.27585116
1.3123314380645752	127177369.45101716
1.3166478872299194	129879101.84064843
1.3209635019302368	113810949.85631186
1.3252781629562378	87058825.40378396
1.3295916318893433	62017005.57586546
1.3339040279388428	30748242.29927558
1.3382149934768677	9275086.571795324
1.3425244092941284	4278283.485896096
1.3468321561813354	3610533.7683258434
1.3511382341384888	3280977.8556655818
1.3554422855377197	2521198.454390274
1.3597444295883179	2912513.9259302714
1.3640443086624146	4252044.360257744
1.3683418035507202	3845164.798337995
1.3726370334625244	2850261.1647960213
1.3769296407699585	3338516.248464623
1.381219506263733	3085254.8179422594
1.3855066299438477	1794166.3551958383
1.3897908926010132	2018292.601457719
1.3940720558166504	3353734.576281259
1.3983501195907593	3137866.3533643316
1.4026249647140503	2638461.167937805
1.4068963527679443	3209902.8462368497
1.4111642837524414	3567179.0664804936
1.4154287576675415	3651926.6815617653
1.419689416885376	3437382.4796830234
1.4239463806152344	3314850.888404083
1.4281994104385376	2637467.4303104165
1.4324485063552856	1805974.8361053194
1.436693549156189	2520386.633342243
1.440934419631958	4447212.571528115
1.4451709985733032	7514039.115850054
1.449403166770935	10764942.194797058
1.453631043434143	10616128.389717344
1.4578542709350586	9215973.86263682
1.4620729684829712	11765137.633263966
1.4662868976593018	14809879.740222033
1.4704961776733398	11139863.568313254
1.4747005701065063	5920870.883011179
1.4788999557495117	7654573.826017565
1.4830944538116455	13559741.520657381
1.4872838258743286	15463752.261820085
1.491468071937561	12389054.95481071
1.4956470727920532	12227551.598488877
1.4998208284378052	16966440.179899145
1.5039892196655273	19007674.282732006
1.5081522464752197	16016940.964042481
1.5123097896575928	16982604.97375206
1.5164618492126465	26512133.03225716
1.5206083059310913	36697109.77635786
1.5247491598129272	38667640.31105129
1.5288842916488647	37550434.878021345
1.5330137014389038	41182958.267438844
1.5371372699737549	44263823.34860127
1.541254997253418	43502013.796336055
1.545366883277893	46115435.7144895
1.5494728088378906	49935342.87090101
1.5535727739334106	50973147.5407142
1.5576666593551636	53420848.174942665
1.561754584312439	59025758.22180709
1.5658363103866577	66001905.28545622
1.5699119567871094	69179655.99168447
1.5739814043045044	68461377.78665245
1.5780447721481323	71116674.71222463
1.582101821899414	77932851.1836358
1.5861525535583496	82959325.98543894
1.5901970863342285	81349734.62088029
1.5942351818084717	75590457.90402602
1.5982669591903687	74970260.80968866
1.6022924184799194	76593049.56275913
1.606311559677124	73134361.39554012
1.6103241443634033	71936817.70739351
1.6143304109573364	71168723.52156875
1.6183301210403442	65069479.84354339
1.6223233938217163	61063142.99962758
1.6263102293014526	60408761.238861114
1.6302905082702637	61901447.82317928
1.634264349937439	67351757.67118208
1.638231635093689	74061545.2074162
1.6421923637390137	76083952.71708606
1.646146535873413	68338321.60423927
1.6500942707061768	60039941.923457935
1.6540353298187256	60612025.62887413
1.6579699516296387	62161370.35110585
1.661897897720337	58006068.25735302
1.6658192873001099	43816836.96833837
1.6697341203689575	32698583.84164928
1.6736423969268799	39369301.322593704
1.677544116973877	47500644.32374467
1.6814392805099487	47611937.72009037
1.6853278875350952	43572693.60691718
1.6892099380493164	36878768.66073231
1.6930854320526123	30685529.26866612
1.696954369544983	27551562.435597874
1.7008168697357178	27410739.735777013
1.7046726942062378	27810812.83232858
1.708522081375122	29103073.027709182
1.712364912033081	29241771.802348997
1.7162011861801147	28297552.94094111
1.7200311422348022	29987684.467409108
1.723854422569275	30559218.290870007
1.7276713848114014	27117236.06024344
1.731481909751892	22619008.395442177
1.7352858781814575	20748822.833664708
1.7390835285186768	21977882.312448595
1.7428747415542603	22237870.480125643
1.7466596364974976	18376968.313170068
1.7504380941390991	14383232.047323074
1.7542102336883545	15195848.259721732
1.7579760551452637	19546258.132585663
1.7617355585098267	25150854.5831957
1.7654887437820435	26728072.842313927
1.7692357301712036	20449081.303262733
1.7729763984680176	13084553.717847658
1.776710867881775	8323233.956463844
1.7804391384124756	6167045.976009199
1.7841613292694092	6190579.026505203
1.7878772020339966	6392380.984737246
1.7915871143341064	8992145.253454236
1.7952908277511597	11822873.335176468
1.7989884614944458	10957491.69379466
1.8026801347732544	8095071.755271292
1.806365728378296	5883659.673359755
1.8100452423095703	5162432.067867439
1.8137187957763672	4624181.788532935
1.817386507987976	3589991.600433507
1.8210482597351074	6331471.133552777
1.8247040510177612	11356027.7914013
1.828354001045227	10196975.537790794
1.8319982290267944	5413120.3004114125
1.8356364965438843	5289386.427756812
1.8392690420150757	8260937.637272836
1.8428958654403687	8931337.290083017
1.8465168476104736	7518033.941986111
1.8501322269439697	6327964.030624293
1.8537418842315674	5453377.355773457
1.8573459386825562	5279266.025612412
1.860944390296936	4237339.707782922
1.864537239074707	2090633.08800034
1.8681244850158691	1335717.5675469653
1.871706247329712	2552372.1792383655
1.8752825260162354	4480632.599386242
1.8788533210754395	5077200.921449546
1.8824186325073242	5443068.820792101
1.8859784603118896	8678536.908476427
1.8895330429077148	11945573.052230245
1.8930821418762207	9883982.95167749
1.8966259956359863	6773313.2743457295
1.9001644849777222	6386377.140101908
1.9036977291107178	5500577.713946246
1.9072256088256836	6647593.624294105
1.9107483625411987	8367809.626671077
1.9142658710479736	6103847.195325831
1.9177782535552979	4979218.16402727
1.9212853908538818	4780709.04511104
1.9247875213623047	2420812.560140004
1.9282845258712769	1448657.068267017
1.9317764043807983	3962893.7188670994
1.9352631568908691	8440890.023094354
1.9387450218200684	9014388.727635285
1.942221760749817	5105771.586487706
1.9456936120986938	2586069.5900630057
1.9491604566574097	2341066.449796424
1.952622413635254	3605887.4714395376
1.956079363822937	7513929.796771662
1.959531545639038	11188772.02233189
1.962978720664978	9459249.52145506
1.966421127319336	6362927.1307391
1.9698586463928223	7109491.525922091
1.9732913970947266	8180018.058440747
1.9767193794250488	8454078.96223301
1.9801424741744995	9163541.718882313
1.9835609197616577	9429021.816004062
1.9869745969772339	11277162.985141274
1.990383505821228	13170948.794416724
1.9937876462936401	12614006.399181556
1.9971871376037598	10469680.071791256
2.000581979751587	8502826.771821516
2.003972291946411	10229718.983387504
2.007357597351074	13087548.49287579
2.0107386112213135	14174061.913723221
2.0141148567199707	13564277.33053513
2.017486572265625	11635089.387466269
2.0208535194396973	12361535.792525651
2.0242159366607666	15024741.82877434
2.027573823928833	15293057.389912855
2.0309269428253174	14570757.171436975
2.034275770187378	16404554.169810668
2.0376198291778564	21066593.307567395
2.040959596633911	25438736.583157066
2.044294595718384	26843499.912250858
2.0476250648498535	26665338.30066486
2.0509510040283203	24893179.651052233
2.054272413253784	22131230.508314937
2.057589530944824	22950658.22695233
2.0609018802642822	27193464.390556794
2.0642096996307373	30404807.08248072
2.0675129890441895	31628228.841014966
2.0708119869232178	31772756.09239248
2.074106216430664	31206854.36641991
2.0773961544036865	31888573.49201729
2.080681324005127	33392796.0878411
2.0839622020721436	33476027.688940745
2.087238311767578	32398018.553471602
2.090510129928589	31576095.939010847
2.0937774181365967	31907967.05968964
2.0970399379730225	32219478.399224855
2.1002981662750244	30851021.465012435
2.1035518646240234	29623142.514697354
2.1068007946014404	30043810.745977525
2.1100454330444336	30519249.724265054
2.1132853031158447	29996057.97152351
2.116520881652832	28432962.652966723
2.1197516918182373	26886510.416728746
2.1229779720306396	26284701.238607667
2.12619948387146	25850899.996534802
2.1294167041778564	25636002.32381467
2.132629156112671	26023365.05927113
2.1358368396759033	25291530.11600407
2.139039993286133	23682385.155263517
2.1422386169433594	22473855.47408021
2.145432472229004	21391283.07311936
2.1486217975616455	20518903.37119785
2.151806354522705	19450653.445180807
2.1549863815307617	19302088.579596233
2.1581614017486572	20385136.687012564
2.16133189201355	20964195.954003617
2.1644976139068604	20626733.685152266
2.167658567428589	19072807.73463751
2.1708147525787354	17343952.55435887
2.173966407775879	17123230.063997343
2.1771130561828613	17772093.177295152
2.1802549362182617	17505374.50449406
2.183391809463501	15997540.084958257
2.1865241527557373	14500635.15900462
2.1896514892578125	13393466.103291374
2.1927738189697266	11633376.75708901
2.1958916187286377	8572890.5309919
2.1990041732788086	5422266.977230066
2.2021119594573975	3848383.7600032007
2.2052149772644043	3714644.21170778
2.208312749862671	4141312.8648377275
2.2114057540893555	5122197.828576636
2.214493751525879	6074281.8137174975
2.217576742172241	5780931.754342131
2.2206547260284424	4944553.845151736
2.2237277030944824	4359405.358374093
2.2267956733703613	3585430.3436952885
2.2298583984375	2927931.0836099735
2.2329163551330566	2759427.891621484
2.235969066619873	2939076.3693274534
2.2390167713165283	2973582.3609199435
2.2420592308044434	2626485.206727953
2.2450966835021973	2280624.9088106756
2.248128890991211	2196537.6857352704
2.2511560916900635	2343292.3589897053
2.254178285598755	2839184.9720672243
2.257194995880127	3716008.2119015316
2.260206699371338	3685158.122400638
2.2632133960723877	2367491.24107787
2.266214609146118	1778865.0919498524
2.2692108154296875	2671223.352633588
2.2722020149230957	3560187.524369464
2.2751877307891846	3425625.6259240224
2.278168201446533	2976863.7860565595
2.2811436653137207	2893525.908102986
2.284113883972168	2735107.280668002
2.287078857421875	2241135.7443352784
2.290038824081421	1894234.660337179
2.2929933071136475	1918888.5922926047
2.295942783355713	2014344.080073807
2.298887014389038	2171883.9909943617
2.301826238632202	2611173.315938032
2.304760217666626	3407735.1443137187
2.3076889514923096	4497606.30021918
2.310612440109253	5706446.580716885
2.3135311603546143	6646264.977426161
2.3164443969726562	5976635.286055827
2.319352865219116	3515937.9829710093
2.322256088256836	1740042.0040653106
2.3251543045043945	1415438.6364880716
2.328047275543213	1373839.593737667
2.330935478210449	1319846.5318593485
2.3338186740875244	1209752.5234504351
2.3366971015930176	1048277.9922803004
2.3395702838897705	945314.0261282903
2.3424389362335205	910587.4706944367
2.3453025817871094	882089.5040575375
2.348161458969116	866436.6398963665
2.351015567779541	1155010.428239228
2.353865146636963	2056700.492122623
2.3567099571228027	3238070.738827767
2.3595502376556396	4012790.4384353934
2.3623859882354736	3916182.574072582
2.3652172088623047	2880988.578869483
2.368043899536133	1615671.8840056127
2.370866537094116	931359.5509795214
2.3736846446990967	874890.3900898308
2.3764986991882324	983165.896821013
2.3793084621429443	1028307.5020336913
2.3821144104003906	1186744.434409466
2.384916305541992	1545913.2648025255
2.387714147567749	1823231.2696670236
2.3905084133148193	1767134.8438300786
2.393299102783203	1578332.6410654301
2.3960859775543213	1423699.31405738
2.398869514465332	1437337.2086352543
2.4016497135162354	1822679.6314766058
2.4044265747070312	2512858.075162106
2.407200336456299	3029391.2177828113
2.409970998764038	3036131.2447913373
2.4127390384674072	2860075.5216516107
2.415503978729248	2863249.1085476982
2.418266534805298	3025477.1061775973
2.4210267066955566	3109278.7111942302
2.4237842559814453	2948510.080136682
2.426539897918701	2938266.677214608
2.429293394088745	3523853.010295618
2.4320452213287354	4092803.7460798905
2.4347951412200928	3903486.5468166955
2.4375438690185547	3437845.0810409547
2.440291166305542	3322499.725097971
2.443037271499634	3357753.873703809
2.445782423019409	3419376.148626728
2.4485268592834473	3644152.0218190495
2.451270818710327	3820129.13496543
2.454014539718628	3849758.9787808326
2.4567582607269287	3854304.8821054264
2.4595019817352295	3905033.052277791
2.4622461795806885	4451808.751997753
2.4649908542633057	5147142.804517508
2.4677364826202393	4866095.192386155
2.4704833030700684	3648384.1866675387
2.473231554031372	2400370.0651021823
2.4759814739227295	1658244.0529836628
2.4787333011627197	1360843.5564860424
