#wavelength	surface flux
0.6450077295303345	247005.16513671336
0.6472567915916443	388416.5906751681
0.6494921445846558	505531.7739684004
0.6517150402069092	578456.1603889418
0.6539263725280762	652550.0490262999
0.6561272740364075	730344.0728324958
0.6583186388015747	811056.7938424357
0.6605015397071838	892160.1139674713
0.6626768708229065	968059.9341698141
0.6648455858230591	1022438.1694848323
0.6670085787773132	984592.8965454889
0.6691668033599854	785359.409355098
0.6713210344314575	684023.1167825127
0.6734722256660461	966353.3958507302
0.6756211519241333	1371434.5879164843
0.6777685880661011	1629785.7693328487
0.6799154281616211	1795417.002768349
0.6820623278617859	1931877.1749397398
0.6842101216316223	2057400.582143277
0.6863595843315125	2172196.4752000105
0.688511312007904	2268409.479992044
0.6906660795211792	2342239.4044825067
0.6928245425224304	2419125.589470546
0.6949873566627502	2530296.561785753
0.6971551775932312	2654379.0810693125
0.6993286609649658	2749340.3597132573
0.7015084028244019	2814158.9662028067
0.7036949396133423	2858419.126749671
0.7058889269828796	2881171.7355969753
0.7080909013748169	2884152.1149576386
0.710301399230957	2871253.63808435
0.712520956993103	2840818.5418346217
0.7147500514984131	2783860.0620892392
0.7169892191886902	2699538.0314058447
0.7192389369010925	2592843.344759207
0.7214996814727783	2463274.3667142875
0.723771870136261	2319103.99497978
0.7260559797286987	2166738.0072571645
0.7283523678779602	1998823.4807765847
0.7306615710258484	1837099.2111364156
0.7329838871955872	1694454.067877386
0.7353196740150452	1529473.1538127055
0.7376693487167358	1336428.4629239778
0.7400332689285278	1143361.0629954138
0.7424117922782898	955910.8039125705
0.7448052167892456	778607.1774167916
0.7472138404846191	613040.7900801729
0.7496379613876343	460645.409428391
0.7520779371261597	326980.59126340435
0.7545340061187744	215658.71316696683
0.7570064663887024	128980.42062588327
0.7594954967498779	67601.81014317968
0.7620013952255249	29402.730815689847
0.7645244002342224	9754.838401092316
0.7670646905899048	2579.116069252625
0.7696225643157959	2883.339582863893
0.7721980810165405	12425.895310947037
0.7747915983200073	38790.0042639757
0.7774031162261963	83314.74749764941
0.7800329327583313	159066.10956961042
0.7826811671257019	304097.88354568265
0.7853479981422424	517430.0635546084
0.7880334854125977	764627.1956567188
0.7907378077507019	935077.265875844
0.7934610247612	956606.9551871489
0.7962033748626709	1289526.963862461
0.7989648580551147	2099166.96895502
0.801745593547821	2886058.429021772
0.8045456409454346	3545792.616393724
0.8073651194572449	4207878.767541193
0.8102040886878967	4893097.389727375
0.8130625486373901	5666119.912661529
0.8159406185150146	6450767.237277597
0.8188382983207703	7284879.709734005
0.8217556476593018	8511888.874458387
0.8246926665306091	9921162.399986507
0.8276493549346924	11151091.046955768
0.8306257724761963	12476699.482162436
0.8336219191551208	14088316.773931775
0.8366377949714661	15700254.239006674
0.8396733403205872	17220346.083439846
0.8427285552024841	18856956.9429325
0.8458034992218018	20358709.979931116
0.8488980531692505	20099066.184192542
0.8520121574401855	19264008.857793313
0.8551458716392517	22708785.66779458
0.8582990765571594	26660274.39418522
0.8614717125892639	23964820.35838967
0.8646637797355652	20003377.60471796
0.8678751587867737	20463626.102531537
0.8711057901382446	21977681.176462922
0.8743556141853333	23633670.84244766
0.87762451171875	26738587.421670727
0.8809124231338501	29703059.686790325
0.8842192888259888	31706481.811542206
0.8875449895858765	32100410.600654054
0.8908893465995789	30591093.570291817
0.894252359867096	30748149.542312145
0.8976338505744934	35781329.53343051
0.9010337591171265	44821980.13104097
0.9044519662857056	54244006.36689669
0.9078882932662964	61129135.3589893
0.9113426208496094	65280419.063167654
0.914814829826355	66599639.58318761
0.9183048605918884	67900460.12749621
0.9218124747276306	66449310.12896418
0.925337553024292	57114546.28065869
0.9288799166679382	51270713.001696475
0.9324395060539246	53439120.15817263
0.9360161423683167	55673092.910512425
0.9396095871925354	55404425.486324914
0.943219780921936	53624928.63918796
0.9468464851379395	51025384.89211801
0.9504896402359009	55295583.23033385
0.9541489481925964	68921222.5460901
0.9578243494033813	73770643.68794236
0.9615156054496765	62662269.9619261
0.9652225375175476	50400131.91154994
0.9689450263977051	57210128.090103425
0.9726828336715698	79140543.93851085
0.9764357805252075	89603412.48897187
0.9802037477493286	90769630.09085257
0.983986496925354	99670468.40566045
0.9877838492393494	102796572.89896499
0.9915955662727356	91991640.55332294
0.9954215884208679	81934637.80866861
0.9992615580558777	70469234.68223391
1.0031154155731201	60169392.723639734
1.0069829225540161	62053768.55792647
1.0108637809753418	73607825.8971078
1.0147579908370972	89129292.58707073
1.018665075302124	99162417.9669675
1.022585153579712	97483817.23400873
1.0265177488327026	95951932.8244489
1.0304628610610962	107545081.67911927
1.0344202518463135	124803099.85789381
1.0383895635604858	134774861.49942887
1.0423706769943237	137648934.6443653
1.0463634729385376	141863373.26187786
1.0503677129745483	147499033.21587172
1.0543830394744873	156778736.70742455
1.058409333229065	167170106.3252247
1.0624464750289917	172700349.3722451
1.0664942264556885	178984993.4162164
1.0705522298812866	187582171.6385248
1.0746204853057861	194423954.77526456
1.0786986351013184	198669032.36355716
1.0827864408493042	202008625.49097818
1.086883783340454	191849922.25837645
1.0909905433654785	161666989.0135265
1.0951062440872192	134940887.85153568
1.0992310047149658	106023400.18118228
1.10336434841156	64398375.38939197
1.1075061559677124	42581295.43139418
1.1116561889648438	38395245.32823116
1.115814208984375	32063031.579416383
1.1199802160263062	31210004.158064485
1.124153733253479	33967771.99148625
1.1283347606658936	29105878.11149338
1.1325229406356812	22242027.707249455
1.1367181539535522	30348344.50623061
1.1409201622009277	50580839.688089594
1.145128846168518	63634100.00390787
1.1493438482284546	57439602.431577675
1.1535650491714478	44269331.18471152
1.1577922105789185	39532211.80858923
1.1620250940322876	40453731.163694166
1.1662636995315552	47847324.15857817
1.170507550239563	55618563.81387722
1.174756646156311	62319066.63869304
1.1790107488632202	77510215.36406662
1.1832695007324219	87859852.84610882
1.1875330209732056	83657275.27971247
1.191800832748413	97000270.72092699
1.1960728168487549	128373444.83479641
1.2003488540649414	142807830.96481648
1.2046287059783936	146835174.7858597
1.2089121341705322	150786437.19300246
1.2131990194320679	159419941.74559128
1.2174891233444214	178348052.37388706
1.2217823266983032	192115046.0970591
1.2260783910751343	197529380.96121025
1.230377197265625	205853966.10702094
1.2346785068511963	212190440.22246063
1.238982081413269	203461902.82057637
1.2432878017425537	189128281.1517504
1.2475954294204712	184935490.87035373
1.2519049644470215	185927526.52753362
1.256216049194336	213289171.29836044
1.2605286836624146	243079924.8884465
1.2648425102233887	240462210.2025655
1.2691574096679688	246026514.51897538
1.2734732627868652	264789053.76974913
1.2777899503707886	263885018.7838051
1.2821072340011597	246805738.0927257
1.2864248752593994	241582657.16172034
1.2907428741455078	244661811.65883306
1.2950609922409058	239711296.08782575
1.2993791103363037	211027417.92063057
1.303696870803833	184098143.03067464
1.3080145120620728	183941096.30290776
1.3123314380645752	190131840.89371923
1.3166478872299194	191062322.46330732
1.3209635019302368	167731414.39560413
1.3252781629562378	132417053.61829011
1.3295916318893433	97167942.3732237
1.3339040279388428	49593929.34903217
1.3382149934768677	15932994.258249737
1.3425244092941284	7866786.403403007
1.3468321561813354	7000969.139946799
1.3511382341384888	6558004.4950434845
1.3554422855377197	5190913.11422005
1.3597444295883179	6167197.921934913
1.3640443086624146	8977588.434044547
1.3683418035507202	8182903.722937119
1.3726370334625244	6287804.70166425
1.3769296407699585	7171916.691875194
1.381219506263733	6368185.450960568
1.3855066299438477	3772475.403305538
1.3897908926010132	4078373.955084447
1.3940720558166504	6265837.530293061
1.3983501195907593	5957621.674133057
1.4026249647140503	5342261.919182383
1.4068963527679443	6503436.73368854
1.4111642837524414	7350798.445477284
1.4154287576675415	7681995.185280755
1.419689416885376	7144052.867008134
1.4239463806152344	6645351.16722958
1.4281994104385376	5405533.115219309
1.4324485063552856	3921643.4472631244
1.436693549156189	5031106.593841194
1.440934419631958	8028279.256806193
1.4451709985733032	12674269.670337226
1.449403166770935	17678772.21955179
1.453631043434143	17454977.677642055
1.4578542709350586	15226048.521505931
1.4620729684829712	18768761.41620017
1.4662868976593018	22989927.46348528
1.4704961776733398	17797016.847722657
1.4747005701065063	10638506.07403912
1.4788999557495117	13288967.340777557
1.4830944538116455	21969851.775011443
1.4872838258743286	25034210.534204833
1.491468071937561	20630432.862429217
1.4956470727920532	20113227.063631535
1.4998208284378052	26497278.322362226
1.5039892196655273	29369782.58471966
1.5081522464752197	25453592.261921044
1.5123097896575928	26935217.930620667
1.5164618492126465	39915905.58093165
1.5206083059310913	53482421.710110754
1.5247491598129272	55767945.11034811
1.5288842916488647	53948185.7445979
1.5330137014389038	58405734.846259624
1.5371372699737549	61692813.0938639
1.541254997253418	59712906.86308257
1.545366883277893	62349173.104556836
1.5494728088378906	67011157.4807254
1.5535727739334106	68092900.54497568
1.5576666593551636	70617459.67685364
1.561754584312439	77422255.19740617
1.5658363103866577	86734789.16089807
1.5699119567871094	91011146.62216613
1.5739814043045044	90332752.88170916
1.5780447721481323	94748530.41377157
1.582101821899414	103781692.28936495
1.5861525535583496	109390052.58840011
1.5901970863342285	107151628.03189465
1.5942351818084717	100518314.78168175
1.5982669591903687	100836040.57270956
1.6022924184799194	104993872.42624675
1.606311559677124	102175367.78147015
1.6103241443634033	101460125.50799042
1.6143304109573364	103219778.4214031
1.6183301210403442	99085503.2588773
1.6223233938217163	96853765.487062
1.6263102293014526	98380397.24154055
1.6302905082702637	100071846.52894996
1.634264349937439	103403821.87229258
1.638231635093689	108136078.96185884
1.6421923637390137	110771178.65484694
1.646146535873413	106630330.29756857
1.6500942707061768	99669264.05018565
1.6540353298187256	96992456.64851558
1.6579699516296387	95866359.79217993
1.661897897720337	91007548.6160572
1.6658192873001099	76435099.22891004
1.6697341203689575	66478753.2747022
1.6736423969268799	77019450.71198599
1.677544116973877	88636755.73869601
1.6814392805099487	88782548.16933534
1.6853278875350952	83008513.28859064
1.6892099380493164	72899521.75995724
1.6930854320526123	61759839.44289397
1.696954369544983	57667088.32149836
1.7008168697357178	59969816.21319145
1.7046726942062378	60506988.092474274
1.708522081375122	58661762.37333507
1.712364912033081	55054894.04408247
1.7162011861801147	52684164.50378972
1.7200311422348022	54058359.04452216
1.723854422569275	53826411.85072733
1.7276713848114014	48684939.39918811
1.731481909751892	40413139.58266574
1.7352858781814575	35666934.722672
1.7390835285186768	36744376.744986236
1.7428747415542603	36429780.04250853
1.7466596364974976	30051603.49551979
1.7504380941390991	24166175.599778127
1.7542102336883545	25075668.23440909
1.7579760551452637	31067035.056677375
1.7617355585098267	40151552.53455536
1.7654887437820435	43545920.083433844
1.7692357301712036	33941438.69125876
1.7729763984680176	21967480.493360106
1.776710867881775	14131775.521985104
1.7804391384124756	10672469.975243678
1.7841613292694092	10706303.89005095
1.7878772020339966	10904888.417496277
1.7915871143341064	14911023.187933333
1.7952908277511597	19437429.42248155
1.7989884614944458	18044055.92937273
1.8026801347732544	13218166.300017487
1.806365728378296	9375585.291569179
1.8100452423095703	8117311.067642589
1.8137187957763672	7389811.82802438
1.817386507987976	5891212.083608785
1.8210482597351074	9738044.86124795
1.8247040510177612	16848614.42276638
1.828354001045227	15348916.404617615
1.8319982290267944	8793697.873428386
1.8356364965438843	8699962.97390312
1.8392690420150757	12818827.65246252
1.8428958654403687	13649345.950144248
1.8465168476104736	11773918.047417808
1.8501322269439697	10362387.174359823
1.8537418842315674	8951880.590656094
1.8573459386825562	8238808.259822365
1.860944390296936	6620898.684559623
1.864537239074707	3610592.901748265
1.8681244850158691	2628558.9413155075
1.871706247329712	4699844.062625846
1.8752825260162354	7728068.402440278
1.8788533210754395	8421267.372084385
1.8824186325073242	8497026.894169547
1.8859784603118896	12267183.942004655
1.8895330429077148	16378912.143737426
1.8930821418762207	14083685.889470689
1.8966259956359863	10172439.869890107
1.9001644849777222	9273148.493416945
1.9036977291107178	7903230.0994996345
1.9072256088256836	9654367.288312832
1.9107483625411987	12004346.092131391
1.9142658710479736	8938760.372277861
1.9177782535552979	7643645.759004983
1.9212853908538818	7342699.984622118
1.9247875213623047	3836189.227970201
1.9282845258712769	2494923.431738186
1.9317764043807983	5991453.417418877
1.9352631568908691	11924795.109491467
1.9387450218200684	12732643.375742385
1.942221760749817	7703213.804202687
1.9456936120986938	4398148.203640967
1.9491604566574097	4044951.704662071
1.952622413635254	5776658.651673503
1.956079363822937	10970899.006944234
1.959531545639038	15652727.42388866
1.962978720664978	13274414.165655056
1.966421127319336	9373564.932301017
1.9698586463928223	10479915.057483066
1.9732913970947266	11775700.564505884
1.9767193794250488	11889487.698839193
1.9801424741744995	12674893.585878959
1.9835609197616577	12970405.638612663
1.9869745969772339	14976065.113133628
1.990383505821228	17001119.96513138
1.9937876462936401	16302656.407611651
1.9971871376037598	13821520.090137295
2.000581979751587	11648486.24917209
2.003972291946411	13919151.5869623
2.007357597351074	17359575.636460543
2.0107386112213135	18620334.767939664
2.0141148567199707	17946104.59593557
2.017486572265625	15636021.243681386
2.0208535194396973	16167969.97515093
2.0242159366607666	18993108.485138584
2.027573823928833	19420944.448943123
2.0309269428253174	18820079.141225044
2.034275770187378	20818435.35579055
2.0376198291778564	25477321.92902058
2.040959596633911	29686199.258627653
2.044294595718384	31014862.961939123
2.0476250648498535	30960350.019376073
2.0509510040283203	29479087.87743866
2.054272413253784	26816826.85546925
2.057589530944824	27406683.785697006
2.0609018802642822	31361201.247009598
2.0642096996307373	34347197.250210494
2.0675129890441895	35427939.729567245
2.0708119869232178	35591694.97214367
2.074106216430664	35182476.47549145
2.0773961544036865	35895388.40148168
2.080681324005127	37284036.404071726
2.0839622020721436	37409468.847583815
2.087238311767578	36528090.76887537
2.090510129928589	35803526.07591494
2.0937774181365967	36213585.60768289
2.0970399379730225	36872667.336480364
2.1002981662750244	35904688.53853422
2.1035518646240234	34821418.12811616
2.1068007946014404	35248175.301233515
2.1100454330444336	35739567.12884631
2.1132853031158447	35660382.19711393
2.116520881652832	35106326.520745926
2.1197516918182373	34382455.31814924
2.1229779720306396	34106409.38250596
2.12619948387146	33848933.86157942
2.1294167041778564	33577829.032615416
2.132629156112671	33755356.2772472
2.1358368396759033	33382960.82609613
2.139039993286133	32347768.52062528
2.1422386169433594	31610250.71159773
2.145432472229004	31155329.031526197
2.1486217975616455	30617763.28369369
2.151806354522705	29732676.602961894
2.1549863815307617	29500394.883258663
2.1581614017486572	30118876.04390895
2.16133189201355	30501715.867283087
2.1644976139068604	30410716.806590702
2.167658567428589	29449277.23109492
2.1708147525787354	27953886.09254438
2.173966407775879	27097584.52057416
2.1771130561828613	27095985.49567586
2.1802549362182617	27076895.91573272
2.183391809463501	26263734.395844508
2.1865241527557373	25118683.502626915
2.1896514892578125	24201569.962442398
2.1927738189697266	22551047.534262165
2.1958916187286377	19072564.14708824
2.1990041732788086	15212450.375134543
2.2021119594573975	13291157.151108487
2.2052149772644043	12935375.738665888
2.208312749862671	13116190.028666409
2.2114057540893555	14379182.353868037
2.214493751525879	15873395.272029368
2.217576742172241	15647693.310647339
2.2206547260284424	14652140.667165333
2.2237277030944824	13729637.800262589
2.2267956733703613	12125685.424113452
2.2298583984375	10736929.463443208
2.2329163551330566	10471278.884615187
2.235969066619873	10996869.8648716
2.2390167713165283	11115148.225687485
2.2420592308044434	10285814.275568664
2.2450966835021973	9412584.131805513
2.248128890991211	9176118.032425836
2.2511560916900635	9556729.33305447
2.254178285598755	10623564.367787115
2.257194995880127	12151496.090201544
2.260206699371338	11585417.619672667
2.2632133960723877	8462581.061309716
2.266214609146118	7095265.408757344
2.2692108154296875	9142971.625768384
2.2722020149230957	11309818.195072163
2.2751877307891846	11301074.08676018
2.278168201446533	10579357.209961284
2.2811436653137207	10374767.732812252
2.284113883972168	9777947.665124645
2.287078857421875	8529583.704309756
2.290038824081421	7814748.163157542
2.2929933071136475	7863995.116173246
2.295942783355713	7705576.700914706
2.298887014389038	7664209.920178841
2.301826238632202	8239018.990446172
2.304760217666626	8090041.006755415
2.3076889514923096	8019510.510708705
2.310612440109253	10697410.679668503
2.3135311603546143	14084290.133338708
2.3164443969726562	13397001.75585191
2.319352865219116	8926183.060159134
2.322256088256836	5276774.7651695395
2.3251543045043945	3515064.2806693832
2.328047275543213	2922913.9841640564
2.330935478210449	3814853.9018859654
2.3338186740875244	4581496.272363263
2.3366971015930176	4256012.396584107
2.3395702838897705	3692229.5260723424
2.3424389362335205	3580459.3167300452
2.3453025817871094	3804141.774347121
2.348161458969116	3988751.6048189434
2.351015567779541	4855690.255072618
2.353865146636963	7250266.348282958
2.3567099571228027	10116301.45779957
2.3595502376556396	11574499.811915345
2.3623859882354736	10816583.31208207
2.3652172088623047	8273994.160477902
2.368043899536133	5372879.885103884
2.370866537094116	3722078.5381686906
2.3736846446990967	3905076.256607741
2.3764986991882324	4568991.472259368
2.3793084621429443	4412380.453968536
2.3821144104003906	3851391.4661001386
2.384916305541992	4236804.309525605
2.387714147567749	5672839.800978385
2.3905084133148193	6478304.103564917
2.393299102783203	6246235.747071231
2.3960859775543213	5638124.6839390155
2.398869514465332	5351965.134985516
2.4016497135162354	6007660.827620095
2.4044265747070312	7409330.240807839
2.407200336456299	8183528.340617683
2.409970998764038	7120288.608327509
2.4127390384674072	5306933.34442747
2.415503978729248	4447214.26759546
2.418266534805298	4546344.777389759
2.4210267066955566	5031803.129319415
2.4237842559814453	5805278.967215487
2.426539897918701	6678883.813817664
2.429293394088745	7235844.597137214
2.4320452213287354	7299861.269215604
2.4347951412200928	7026416.639709362
2.4375438690185547	6680028.165642252
2.440291166305542	6536921.56103855
2.443037271499634	6669686.197466715
2.445782423019409	7222036.774695013
2.4485268592834473	7952952.533698491
2.451270818710327	7878070.575407062
2.454014539718628	7291930.243029084
2.4567582607269287	7135096.375463512
2.4595019817352295	7161289.745501893
2.4622461795806885	7968948.918297927
2.4649908542633057	9026302.540370937
2.4677364826202393	8196552.768238323
2.4704833030700684	5826539.353951337
2.473231554031372	3706237.7222732194
2.4759814739227295	2568196.108662463
2.4787333011627197	2158464.0745120123
2.481487512588501	2204714.200115728
