#wavelength	surface flux
0.6450077295303345	71259.21447750645
0.6472567915916443	114178.0753585971
0.6494921445846558	153548.84014615393
0.6517150402069092	182556.07915997805
0.6539263725280762	214028.90986459114
0.6561272740364075	248773.21361320413
0.6583186388015747	286746.19746434886
0.6605015397071838	327494.63276620634
0.6626768708229065	369416.8012624963
0.6648455858230591	406881.58899679204
0.6670085787773132	413373.0185344969
0.6691668033599854	353809.57151628163
0.6713210344314575	329084.8602373992
0.6734722256660461	456778.87524582195
0.6756211519241333	622095.1927877781
0.6777685880661011	722731.1916279165
0.6799154281616211	792093.0917549838
0.6820623278617859	851197.703406476
0.6842101216316223	903317.362905572
0.6863595843315125	947825.589007623
0.688511312007904	981825.9272226563
0.6906660795211792	999162.2886830141
0.6928245425224304	1003977.3998818464
0.6949873566627502	1015658.2558168058
0.6971551775932312	1031512.8796357958
0.6993286609649658	1030182.5883580773
0.7015084028244019	1012109.7177789864
0.7036949396133423	985719.4561034407
0.7058889269828796	951529.1134582736
0.7080909013748169	910851.2761485113
0.710301399230957	865265.6098411639
0.712520956993103	814477.4616187332
0.7147500514984131	755334.1817974069
0.7169892191886902	690275.0260820097
0.7192389369010925	632184.2458738016
0.7214996814727783	580188.4111167046
0.723771870136261	524706.0170987572
0.7260559797286987	468333.8326767326
0.7283523678779602	415709.3480788581
0.7306615710258484	366361.3249493795
0.7329838871955872	320246.02084854845
0.7353196740150452	277028.9879672471
0.7376693487167358	235493.15483699215
0.7400332689285278	196686.81044178412
0.7424117922782898	161355.79068450187
0.7448052167892456	129720.07487809184
0.7472138404846191	101750.76917989855
0.7496379613876343	77357.54567388563
0.7520779371261597	56651.6589898646
0.7545340061187744	39686.36515485818
0.7570064663887024	26378.514460358976
0.7594954967498779	16488.69677400639
0.7620013952255249	9481.538308058865
0.7645244002342224	4716.722804131113
0.7670646905899048	2256.8775880954904
0.7696225643157959	2496.653363577462
0.7721980810165405	5964.572713537735
0.7747915983200073	12871.687020698093
0.7774031162261963	21860.075221133004
0.7800329327583313	35401.62922590509
0.7826811671257019	60936.752461954806
0.7853479981422424	97505.68262222092
0.7880334854125977	140901.85681463234
0.7907378077507019	182273.37603316066
0.7934610247612	211263.5197179474
0.7962033748626709	279048.2780998482
0.7989648580551147	410355.2466535524
0.801745593547821	549698.3578254466
0.8045456409454346	685342.1818498602
0.8073651194572449	833145.3518097466
0.8102040886878967	992601.8103932298
0.8130625486373901	1170500.6241164012
0.8159406185150146	1371619.1897466104
0.8188382983207703	1598963.8525235467
0.8217556476593018	1881426.1515950968
0.8246926665306091	2222226.589074546
0.8276493549346924	2586540.47278111
0.8306257724761963	2966401.375776757
0.8336219191551208	3380056.324724036
0.8366377949714661	3836105.558938751
0.8396733403205872	4336905.184332152
0.8427285552024841	4884780.114220116
0.8458034992218018	5422055.81763113
0.8488980531692505	5614370.6715889955
0.8520121574401855	5683547.969010503
0.8551458716392517	6686285.906325756
0.8582990765571594	7811155.204739322
0.8614717125892639	7571833.246440669
0.8646637797355652	7112007.5821115365
0.8678751587867737	7549779.344443808
0.8711057901382446	8184654.260975064
0.8743556141853333	8883667.91213392
0.87762451171875	9817241.82779097
0.8809124231338501	10678496.32155189
0.8842192888259888	11566517.744624639
0.8875449895858765	12404808.060885048
0.8908893465995789	12315525.383215964
0.894252359867096	11935692.74610423
0.8976338505744934	13924727.090719951
0.9010337591171265	17577935.280804437
0.9044519662857056	20585067.867627457
0.9078882932662964	22790006.203006797
0.9113426208496094	24536341.3138108
0.914814829826355	26140875.127997223
0.9183048605918884	27884558.61445532
0.9218124747276306	28887053.840276387
0.925337553024292	26214143.974621125
0.9288799166679382	20900025.284688246
0.9324395060539246	18936546.93122898
0.9360161423683167	21543493.6120918
0.9396095871925354	25414881.443502344
0.943219780921936	27948966.342371564
0.9468464851379395	28760236.870650798
0.9504896402359009	29137195.91954586
0.9541489481925964	29162571.622735035
0.9578243494033813	28751510.567518987
0.9615156054496765	29224860.03387612
0.9652225375175476	31607222.095182635
0.9689450263977051	34925790.47456663
0.9726828336715698	37693034.92913324
0.9764357805252075	40392356.2086397
0.9802037477493286	43468901.40904288
0.983986496925354	46406606.729090676
0.9877838492393494	47970707.98702587
0.9915955662727356	46801475.11478745
0.9954215884208679	43529324.653384924
0.9992615580558777	37924293.25645774
1.0031154155731201	34224783.16063765
1.0069829225540161	36057770.50065423
1.0108637809753418	40541545.25957922
1.0147579908370972	46110621.36747986
1.018665075302124	52141563.65904003
1.022585153579712	57301931.71776278
1.0265177488327026	60948884.08524301
1.0304628610610962	65262466.525746785
1.0344202518463135	71436000.81618892
1.0383895635604858	77439794.40017428
1.0423706769943237	81649111.8323585
1.0463634729385376	84053716.64272305
1.0503677129745483	84810229.31394245
1.0543830394744873	85375183.88601819
1.058409333229065	87390275.52881996
1.0624464750289917	91058001.64928827
1.0664942264556885	95830773.71537338
1.0705522298812866	101196272.02795476
1.0746204853057861	107299055.77109124
1.0786986351013184	113240831.32920475
1.0827864408493042	116915388.71250868
1.086883783340454	113763023.68996884
1.0909905433654785	100392419.08486436
1.0951062440872192	82010801.52378964
1.0992310047149658	66170427.89984869
1.10336434841156	53451591.100101374
1.1075061559677124	42637122.55328655
1.1116561889648438	34611882.59459939
1.115814208984375	30939114.365482926
1.1199802160263062	31351116.413079176
1.124153733253479	34565727.102217175
1.1283347606658936	36005514.661933936
1.1325229406356812	30731921.080490455
1.1367181539535522	26769036.84822545
1.1409201622009277	30053068.998569712
1.145128846168518	35838969.27512339
1.1493438482284546	39626424.73078977
1.1535650491714478	39180635.42042488
1.1577922105789185	37674486.23529868
1.1620250940322876	36432756.23599296
1.1662636995315552	33638863.9274286
1.170507550239563	31998059.80303341
1.174756646156311	31920759.398276687
1.1790107488632202	34556702.16375694
1.1832695007324219	43270377.24698435
1.1875330209732056	53919280.5206048
1.191800832748413	63339496.203666955
1.1960728168487549	72139060.2617786
1.2003488540649414	80070554.78613126
1.2046287059783936	88582352.37454966
1.2089121341705322	97114163.78066857
1.2131990194320679	105116219.3299939
1.2174891233444214	113282789.34118763
1.2217823266983032	120878893.49987987
1.2260783910751343	128961570.13832714
1.230377197265625	136475492.1918206
1.2346785068511963	140219257.2503174
1.238982081413269	134943412.16677243
1.2432878017425537	124765191.90010555
1.2475954294204712	119177795.31112117
1.2519049644470215	115530547.94047773
1.256216049194336	129401655.2242302
1.2605286836624146	154543752.53121772
1.2648425102233887	165007869.27607894
1.2691574096679688	167019030.43195996
1.2734732627868652	166784844.8085208
1.2777899503707886	165473812.77550718
1.2821072340011597	161818712.508678
1.2864248752593994	153831479.06889233
1.2907428741455078	147250582.37097263
1.2950609922409058	145383657.43519235
1.2993791103363037	143640769.8100202
1.303696870803833	140280015.06005266
1.3080145120620728	135063038.91943115
1.3123314380645752	126452485.80910186
1.3166478872299194	117122514.91927049
1.3209635019302368	107046581.03978537
1.3252781629562378	89273313.91225865
1.3295916318893433	60529904.183725
1.3339040279388428	30918457.132013246
1.3382149934768677	13790466.679276917
1.3425244092941284	8163824.486123694
1.3468321561813354	6146272.571352727
1.3511382341384888	4820585.101158744
1.3554422855377197	3979030.8973460915
1.3597444295883179	3963561.411420411
1.3640443086624146	4760321.083320203
1.3683418035507202	5358437.534927872
1.3726370334625244	5722000.266321014
1.3769296407699585	6540008.67400682
1.381219506263733	6788842.366748326
1.3855066299438477	6412308.531045872
1.3897908926010132	6212615.140625363
1.3940720558166504	5875907.827300063
1.3983501195907593	5612495.454285108
1.4026249647140503	5710880.544881121
1.4068963527679443	5543999.320893433
1.4111642837524414	5207205.200607262
1.4154287576675415	5240634.730497853
1.419689416885376	5210176.729366952
1.4239463806152344	5168487.6376774805
1.4281994104385376	5704975.706150946
1.4324485063552856	6447738.219259849
1.436693549156189	6938738.549651842
1.440934419631958	7366246.690781396
1.4451709985733032	8079492.5380327245
1.449403166770935	9725835.92885665
1.453631043434143	11738146.319851935
1.4578542709350586	13069525.794344168
1.4620729684829712	13580098.816236235
1.4662868976593018	13611329.531497434
1.4704961776733398	13749861.932357797
1.4747005701065063	14571650.459166173
1.4788999557495117	15776666.256964646
1.4830944538116455	16642503.341584807
1.4872838258743286	17509827.960180774
1.491468071937561	18592435.7107305
1.4956470727920532	19787931.98137787
1.4998208284378052	21225826.297456343
1.5039892196655273	22974120.016137492
1.5081522464752197	25188587.713127766
1.5123097896575928	27724514.784792617
1.5164618492126465	29635529.30410113
1.5206083059310913	31466567.181713916
1.5247491598129272	33782160.9919172
1.5288842916488647	36160401.97652228
1.5330137014389038	38921827.617581934
1.5371372699737549	41423472.905305214
1.541254997253418	43516168.910992235
1.545366883277893	46447125.20828181
1.5494728088378906	49181097.5886943
1.5535727739334106	50365160.95352467
1.5576666593551636	51629561.17920156
1.561754584312439	55391516.64498911
1.5658363103866577	60565102.369241975
1.5699119567871094	63876534.25529531
1.5739814043045044	65502430.18062646
1.5780447721481323	67014611.175751485
1.582101821899414	68669243.52388977
1.5861525535583496	69934355.4334271
1.5901970863342285	70009456.46149702
1.5942351818084717	69548165.19607754
1.5982669591903687	68686727.35841995
1.6022924184799194	66209168.16212379
1.606311559677124	62925465.56717739
1.6103241443634033	60262110.301690884
1.6143304109573364	57334629.443830974
1.6183301210403442	54343613.46753037
1.6223233938217163	53548070.47492479
1.6263102293014526	54526157.31455204
1.6302905082702637	55827044.449964836
1.634264349937439	58540112.26990387
1.638231635093689	62797979.797300614
1.6421923637390137	64634510.41310008
1.646146535873413	62823391.295379
1.6500942707061768	62042360.81860188
1.6540353298187256	60222870.91751769
1.6579699516296387	57488729.49641189
1.661897897720337	54591683.57531497
1.6658192873001099	39094618.873712584
1.6697341203689575	25543184.010963384
1.6736423969268799	33551363.88647658
1.677544116973877	44914405.58143998
1.6814392805099487	46402099.31849533
1.6853278875350952	43290861.77682971
1.6892099380493164	39301361.0991025
1.6930854320526123	35116354.57494982
1.696954369544983	31285393.92669308
1.7008168697357178	29031884.310630478
1.7046726942062378	29065012.27649638
1.708522081375122	30835760.88680185
1.712364912033081	31885217.7719508
1.7162011861801147	31900768.101921175
1.7200311422348022	32076127.81637228
1.723854422569275	30887956.772536524
1.7276713848114014	28826935.153665725
1.731481909751892	27115153.532961417
1.7352858781814575	25887793.20839123
1.7390835285186768	25665933.47967989
1.7428747415542603	25774255.37347287
1.7466596364974976	25304593.779418178
1.7504380941390991	24258168.65454778
1.7542102336883545	22287408.20097544
1.7579760551452637	20385727.363622785
1.7617355585098267	19517807.042421818
1.7654887437820435	18333959.597774122
1.7692357301712036	16492355.726442967
1.7729763984680176	14983121.710057382
1.776710867881775	14272027.994117524
1.7804391384124756	13999126.553926772
1.7841613292694092	12973848.903257431
1.7878772020339966	11873873.064195506
1.7915871143341064	10871800.274086908
1.7952908277511597	10288602.510030402
1.7989884614944458	10311501.648707995
1.8026801347732544	9385781.092567906
1.806365728378296	8807084.678236485
1.8100452423095703	9278095.958899572
1.8137187957763672	9904735.983096655
1.817386507987976	9428573.173441702
1.8210482597351074	9081635.053498892
1.8247040510177612	10074823.182434203
1.828354001045227	9887241.526140293
1.8319982290267944	8800716.86297679
1.8356364965438843	8172811.116054796
1.8392690420150757	8097203.27801293
1.8428958654403687	8421269.32248103
1.8465168476104736	8167691.752438342
1.8501322269439697	7911000.81228966
1.8537418842315674	7719000.4788166275
1.8573459386825562	6624836.137336644
1.860944390296936	5640495.607207668
1.864537239074707	5509882.710715069
1.8681244850158691	5715362.13698839
1.871706247329712	6284372.52085878
1.8752825260162354	7481849.225703518
1.8788533210754395	9290147.789072104
1.8824186325073242	10933259.673699241
1.8859784603118896	11555888.638295949
1.8895330429077148	11612187.581467528
1.8930821418762207	12397217.353125565
1.8966259956359863	13321028.784238838
1.9001644849777222	12892979.05359216
1.9036977291107178	12292889.023563089
1.9072256088256836	12883675.74404751
1.9107483625411987	13002121.289467638
1.9142658710479736	12519953.329143943
1.9177782535552979	12735514.41531879
1.9212853908538818	12330839.39082867
1.9247875213623047	11403744.600240607
1.9282845258712769	10574381.94394854
1.9317764043807983	9610751.848567102
1.9352631568908691	8725426.771417785
1.9387450218200684	7800206.399441559
1.942221760749817	7983271.442350639
1.9456936120986938	8992495.641718773
1.9491604566574097	9579360.253643613
1.952622413635254	9545300.82784064
1.956079363822937	9072698.546432953
1.959531545639038	9189432.71143658
1.962978720664978	9705167.345381392
1.966421127319336	10493756.208972728
1.9698586463928223	11228712.001502499
1.9732913970947266	11119051.39532326
1.9767193794250488	11192473.601559145
1.9801424741744995	11576228.76446925
1.9835609197616577	12157412.149356643
1.9869745969772339	12807288.302034482
1.990383505821228	12959038.945751337
1.9937876462936401	13955340.574860044
1.9971871376037598	14958631.673209075
2.000581979751587	15511955.604374452
2.003972291946411	16328814.871140657
2.007357597351074	16365698.58162371
2.0107386112213135	16893331.019688662
2.0141148567199707	18136997.44600288
2.017486572265625	18516239.884039935
2.0208535194396973	19946331.469260234
2.0242159366607666	21787633.09710463
2.027573823928833	21529031.302140255
2.0309269428253174	21748310.298491355
2.034275770187378	23583971.928670995
2.0376198291778564	24702369.634798557
2.040959596633911	24858385.97109669
2.044294595718384	25820554.74452754
2.0476250648498535	27454525.48178044
2.0509510040283203	27782920.48923069
2.054272413253784	27905868.518418238
2.057589530944824	29765429.85528562
2.0609018802642822	30672701.269384895
2.0642096996307373	30477317.610734474
2.0675129890441895	31271977.550223954
2.0708119869232178	31730349.798077136
2.074106216430664	31621272.72306457
2.0773961544036865	31789586.50461946
2.080681324005127	32163135.16216509
2.0839622020721436	32406800.980693758
2.087238311767578	32667370.411654834
2.090510129928589	33110519.654950887
2.0937774181365967	33221694.303930555
2.0970399379730225	33033084.554143727
2.1002981662750244	32651826.198918864
2.1035518646240234	32158776.049097504
2.1068007946014404	31680499.856937703
2.1100454330444336	31319736.15996392
2.1132853031158447	31414182.778965767
2.116520881652832	31020521.344602156
2.1197516918182373	30396697.74257658
2.1229779720306396	30455615.975919224
2.12619948387146	30312911.858014774
2.1294167041778564	29704963.70556054
2.132629156112671	29432584.09342632
2.1358368396759033	29086794.970267985
2.139039993286133	27811427.052612033
2.1422386169433594	25915933.830360528
2.145432472229004	24331221.6363797
2.1486217975616455	23770428.107110362
2.151806354522705	23663013.468992557
2.1549863815307617	23392434.104922254
2.1581614017486572	22767671.380011965
2.16133189201355	21839746.6945483
2.1644976139068604	21004543.780037325
2.167658567428589	20120392.83507507
2.1708147525787354	19379117.16418703
2.173966407775879	18598958.972757258
2.1771130561828613	17505413.89302792
2.1802549362182617	16572682.018511217
2.183391809463501	15493933.749831617
2.1865241527557373	14113245.129919855
2.1896514892578125	12606128.222907338
2.1927738189697266	10829655.518382918
2.1958916187286377	8529004.87767042
2.1990041732788086	6045636.582717486
2.2021119594573975	4354037.191258498
2.2052149772644043	3696214.4136579325
2.208312749862671	3903443.3036750006
2.2114057540893555	4794005.972893131
2.214493751525879	5900635.056777151
2.217576742172241	6670778.874230528
2.2206547260284424	6942764.171413367
2.2237277030944824	6815685.561037925
2.2267956733703613	6342187.734522888
2.2298583984375	5862624.139805651
2.2329163551330566	5565614.179600741
2.235969066619873	5312277.521592552
2.2390167713165283	4977407.877920605
2.2420592308044434	4546921.248048787
2.2450966835021973	4149902.174452357
2.248128890991211	3930717.812710923
2.2511560916900635	3831150.798342557
2.254178285598755	3777627.6350823473
2.257194995880127	3751930.4126582695
2.260206699371338	3717323.6952798
2.2632133960723877	3741562.455330851
2.266214609146118	3732765.1300122305
2.2692108154296875	3645910.802046264
2.2722020149230957	3594507.101255297
2.2751877307891846	3549684.212108209
2.278168201446533	3445844.8984059454
2.2811436653137207	3205647.7555551874
2.284113883972168	2872127.8272012
2.287078857421875	2618132.776162447
2.290038824081421	2389044.247757022
2.2929933071136475	2211370.6586314584
2.295942783355713	2269063.381203195
2.298887014389038	2577395.0477976385
2.301826238632202	2940260.922180663
2.304760217666626	3444472.2134207664
2.3076889514923096	4423683.297382639
2.310612440109253	5495923.996332127
2.3135311603546143	5590204.073435098
2.3164443969726562	4082816.6556827617
2.319352865219116	2449637.4904529797
2.322256088256836	1943008.0674884329
2.3251543045043945	1831167.6610440116
2.328047275543213	1793104.48560231
2.330935478210449	1931957.8574697932
2.3338186740875244	2103559.364657805
2.3366971015930176	2251077.552828171
2.3395702838897705	2377099.98033109
2.3424389362335205	2413391.4377024993
2.3453025817871094	2337519.6760838074
2.348161458969116	2317313.028209668
2.351015567779541	2454524.472985415
2.353865146636963	2671987.644095451
2.3567099571228027	2901493.7084690714
2.3595502376556396	3201372.231845251
2.3623859882354736	3566647.791090952
2.3652172088623047	3850141.034824366
2.368043899536133	3623252.556523888
2.370866537094116	2692642.0664555584
2.3736846446990967	2125993.932158006
2.3764986991882324	2198589.740589353
2.3793084621429443	2128721.288507403
2.3821144104003906	1976653.6184979714
2.384916305541992	2218140.0005222443
2.387714147567749	2807788.969560423
2.3905084133148193	3112335.312409553
2.393299102783203	3128944.1640015035
2.3960859775543213	3318355.323117737
2.398869514465332	3665775.757993147
2.4016497135162354	3992907.114574876
2.4044265747070312	4307894.039048339
2.407200336456299	4443156.133877031
2.409970998764038	4538675.586887292
2.4127390384674072	4796990.012024594
2.415503978729248	4785835.67641093
2.418266534805298	4623188.508055566
2.4210267066955566	4594437.262160531
2.4237842559814453	4334509.3975401325
2.426539897918701	4107028.262990952
2.429293394088745	4404266.6297636125
2.4320452213287354	4777632.327048014
2.4347951412200928	4673478.347817511
2.4375438690185547	4806272.961580125
2.440291166305542	5287166.381169755
2.443037271499634	5257644.646860242
2.445782423019409	5031709.081872023
2.4485268592834473	5029584.291282839
2.451270818710327	5011905.964165438
2.454014539718628	5095074.908723566
2.4567582607269287	5585785.66032377
2.4595019817352295	5825746.428523971
2.4622461795806885	6055107.124601682
2.4649908542633057	6443593.17257269
2.4677364826202393	5957353.2257274855
2.4704833030700684	5291660.764537426
2.473231554031372	5126813.784850416
2.4759814739227295	5355398.650919706
2.4787333011627197	5623888.487535919
2.481487512588501	5675228.952879953
2.4842441082000732	6180692.36699099
