#wavelength	surface flux
0.6450077295303345	850.5700245343143
0.6472567915916443	1339.0112132039183
0.6494921445846558	1746.8718818611121
0.6517150402069092	2007.081989395587
0.6539263725280762	2280.9929474676255
0.6561272740364075	2578.0606771911584
0.6583186388015747	2899.0942908574866
0.6605015397071838	3246.151436132679
0.6626768708229065	3614.851871528789
0.6648455858230591	3997.8703957214975
0.6670085787773132	4318.516463493316
0.6691668033599854	4372.761545705794
0.6713210344314575	4522.908040168792
0.6734722256660461	5251.319625154639
0.6756211519241333	6022.097905329114
0.6777685880661011	6491.00265685149
0.6799154281616211	6881.044008375113
0.6820623278617859	7236.335851752088
0.6842101216316223	7552.582487461517
0.6863595843315125	7820.4903570295955
0.688511312007904	8015.551857358396
0.6906660795211792	8085.643697971114
0.6928245425224304	8073.185317219827
0.6949873566627502	8132.096479134502
0.6971551775932312	8226.937165976955
0.6993286609649658	8200.421901918424
0.7015084028244019	8067.156095613643
0.7036949396133423	7903.794947212019
0.7058889269828796	7718.301329256399
0.7080909013748169	7501.8799295860745
0.710301399230957	7254.840625390836
0.712520956993103	6970.184969843943
0.7147500514984131	6589.127740781144
0.7169892191886902	6110.017524426655
0.7192389369010925	5728.507116763108
0.7214996814727783	5474.433344851982
0.723771870136261	5179.31539159842
0.7260559797286987	4862.672589286147
0.7283523678779602	4598.546515439837
0.7306615710258484	4378.183584053112
0.7329838871955872	4213.30742098345
0.7353196740150452	4060.9800094510388
0.7376693487167358	3868.8537414732587
0.7400332689285278	3665.2441571742615
0.7424117922782898	3462.1128527660653
0.7448052167892456	3252.835325218362
0.7472138404846191	3032.607418355179
0.7496379613876343	2802.507769036287
0.7520779371261597	2565.9396233070906
0.7545340061187744	2319.5111707094507
0.7570064663887024	2049.5651409320653
0.7594954967498779	1726.548074287369
0.7620013952255249	1308.6535241035551
0.7645244002342224	815.9891114894068
0.7670646905899048	472.9195402725366
0.7696225643157959	518.7946189335997
0.7721980810165405	1014.1211512583312
0.7747915983200073	1761.5529382812629
0.7774031162261963	2379.0627551192792
0.7800329327583313	2897.975398810157
0.7826811671257019	3731.3116440765657
0.7853479981422424	4757.091346925552
0.7880334854125977	5708.813072560261
0.7907378077507019	6490.710280104281
0.7934610247612	6928.297684435726
0.7962033748626709	7975.33803692495
0.7989648580551147	10052.943296814808
0.801745593547821	12090.366892256552
0.8045456409454346	13905.590326388063
0.8073651194572449	15770.939939921085
0.8102040886878967	17554.69581756
0.8130625486373901	19395.91474022008
0.8159406185150146	21926.899622313806
0.8188382983207703	25286.621694836984
0.8217556476593018	28736.440328190416
0.8246926665306091	32579.692958230364
0.8276493549346924	37134.31050032993
0.8306257724761963	41825.42976130119
0.8336219191551208	46953.03592111514
0.8366377949714661	52883.28235805859
0.8396733403205872	59579.91774067713
0.8427285552024841	67149.33839384177
0.8458034992218018	75334.3266701528
0.8488980531692505	81236.37938231537
0.8520121574401855	86338.98245316748
0.8551458716392517	99650.04854745165
0.8582990765571594	116920.66388962438
0.8614717125892639	130158.48888854161
0.8646637797355652	143070.70225790952
0.8678751587867737	158244.19296733208
0.8711057901382446	174880.99108085566
0.8743556141853333	191455.27098138677
0.87762451171875	204803.0741327501
0.8809124231338501	208971.696417799
0.8842192888259888	206447.34322386046
0.8875449895858765	205328.43010218252
0.8908893465995789	198752.75664534277
0.894252359867096	190833.2842306931
0.8976338505744934	219006.55520206378
0.9010337591171265	284818.5520524476
0.9044519662857056	350195.89241618634
0.9078882932662964	389780.7459598785
0.9113426208496094	405451.92980463576
0.914814829826355	415105.04635191587
0.9183048605918884	435870.4147093925
0.9218124747276306	453045.12507379515
0.925337553024292	390362.6969545889
0.9288799166679382	253113.38756732305
0.9324395060539246	177985.5520035169
0.9360161423683167	217514.60252690766
0.9396095871925354	296796.938141772
0.943219780921936	328434.03847446403
0.9468464851379395	313558.58792118385
0.9504896402359009	307580.3213608084
0.9541489481925964	305813.9940678503
0.9578243494033813	300763.8668825661
0.9615156054496765	320990.0218065218
0.9652225375175476	390167.5377066733
0.9689450263977051	483776.75828031765
0.9726828336715698	548115.43420367
0.9764357805252075	590616.6744401463
0.9802037477493286	638802.7494817344
0.983986496925354	688782.5137631889
0.9877838492393494	752140.8249727081
0.9915955662727356	841243.1941258175
0.9954215884208679	949527.7286077881
0.9992615580558777	1072589.8111164025
1.0031154155731201	1205058.3092576186
1.0069829225540161	1317622.7174183594
1.0108637809753418	1392323.6023366207
1.0147579908370972	1440039.9874131086
1.018665075302124	1473798.456879984
1.022585153579712	1520834.4844800779
1.0265177488327026	1591357.0881806468
1.0304628610610962	1650844.2222527892
1.0344202518463135	1701438.7822165247
1.0383895635604858	1786678.2487355499
1.0423706769943237	1892308.3554935558
1.0463634729385376	1982758.3862671598
1.0503677129745483	2072101.2256147263
1.0543830394744873	2169746.0025380324
1.058409333229065	2244338.0515824226
1.0624464750289917	2287396.024890302
1.0664942264556885	2305282.9080745704
1.0705522298812866	2295116.317707605
1.0746204853057861	2286759.1310479017
1.0786986351013184	2291131.969635656
1.0827864408493042	2270795.335665384
1.086883783340454	2155489.603043522
1.0909905433654785	1893276.4329650705
1.0951062440872192	1536695.1365996304
1.0992310047149658	1178867.6794448053
1.10336434841156	857618.3476819536
1.1075061559677124	595657.3463454512
1.1116561889648438	404747.4058346686
1.115814208984375	303304.502042566
1.1199802160263062	293045.1397036665
1.124153733253479	337381.4988705097
1.1283347606658936	371448.80478670803
1.1325229406356812	344280.53871234995
1.1367181539535522	384548.5584806301
1.1409201622009277	498532.4910989055
1.145128846168518	514988.90663553635
1.1493438482284546	461158.28742148285
1.1535650491714478	400198.808731094
1.1577922105789185	364833.5611440047
1.1620250940322876	375528.7787724202
1.1662636995315552	427336.7221184883
1.170507550239563	554137.934111568
1.174756646156311	736415.6781908467
1.1790107488632202	949064.7482458733
1.1832695007324219	1177421.3114229392
1.1875330209732056	1382154.7869167805
1.191800832748413	1585758.720527027
1.1960728168487549	1804220.423183808
1.2003488540649414	2002276.0698856995
1.2046287059783936	2188077.362586244
1.2089121341705322	2346026.6193011906
1.2131990194320679	2476566.316996097
1.2174891233444214	2622601.5746907867
1.2217823266983032	2780714.3213897273
1.2260783910751343	2965493.187094722
1.230377197265625	3169370.0134123885
1.2346785068511963	3348605.0404942194
1.238982081413269	3501151.6707975455
1.2432878017425537	3642512.5645202505
1.2475954294204712	3755602.41204046
1.2519049644470215	3822984.478126183
1.256216049194336	3964914.4779801834
1.2605286836624146	4165667.4881001925
1.2648425102233887	4263939.784878476
1.2691574096679688	4250224.440911756
1.2734732627868652	4147313.635006777
1.2777899503707886	3980140.700732805
1.2821072340011597	3744504.8848741804
1.2864248752593994	3453941.9756105044
1.2907428741455078	3217780.8065215736
1.2950609922409058	3093447.8045125124
1.2993791103363037	3001121.305476018
1.303696870803833	2880449.782596081
1.3080145120620728	2741438.8565485785
1.3123314380645752	2525583.3078231732
1.3166478872299194	2337087.662673037
1.3209635019302368	2241835.2700089705
1.3252781629562378	1978455.930949739
1.3295916318893433	1393759.4000298583
1.3339040279388428	751533.1779157475
1.3382149934768677	348139.29824668675
1.3425244092941284	160082.54454508194
1.3468321561813354	81640.30035960546
1.3511382341384888	47158.78084232592
1.3554422855377197	27218.827348807987
1.3597444295883179	21995.271785991998
1.3640443086624146	30499.874408633248
1.3683418035507202	40667.648502376454
1.3726370334625244	57884.60137986389
1.3769296407699585	82499.81828784669
1.381219506263733	78054.76897814366
1.3855066299438477	56618.9039070875
1.3897908926010132	52659.32347044293
1.3940720558166504	54431.8575959753
1.3983501195907593	56420.24012087094
1.4026249647140503	62773.11770977209
1.4068963527679443	66212.22156309201
1.4111642837524414	67441.68065587082
1.4154287576675415	71338.86682566392
1.419689416885376	73858.66128478647
1.4239463806152344	86922.13952904935
1.4281994104385376	124150.4063641195
1.4324485063552856	156181.69000392233
1.436693549156189	168646.02509699122
1.440934419631958	190342.57231138644
1.4451709985733032	239976.6897855516
1.449403166770935	326346.66414094693
1.453631043434143	416858.1509696447
1.4578542709350586	478878.8882854312
1.4620729684829712	483944.79663229355
1.4662868976593018	429428.0092011378
1.4704961776733398	358172.4652279109
1.4747005701065063	324706.2516374523
1.4788999557495117	344558.3121898412
1.4830944538116455	373550.90986858215
1.4872838258743286	393450.7028467731
1.491468071937561	415310.8718692437
1.4956470727920532	468273.7380991304
1.4998208284378052	565237.7915123024
1.5039892196655273	633413.0097765597
1.5081522464752197	610874.0664173878
1.5123097896575928	550575.518254443
1.5164618492126465	581914.3212928469
1.5206083059310913	748295.2051938253
1.5247491598129272	929319.7793007491
1.5288842916488647	1070855.0695837466
1.5330137014389038	1196604.3462195792
1.5371372699737549	1303952.8337712546
1.541254997253418	1416390.9321383694
1.545366883277893	1552051.4444839815
1.5494728088378906	1701726.1732073815
1.5535727739334106	1882956.0984633057
1.5576666593551636	2131328.0159041905
1.561754584312439	2477012.221055574
1.5658363103866577	2861249.0294501367
1.5699119567871094	3121256.3760589086
1.5739814043045044	3259110.4798136097
1.5780447721481323	3410252.527463417
1.582101821899414	3566443.493240259
1.5861525535583496	3645589.7161396
1.5901970863342285	3620035.112784141
1.5942351818084717	3528391.817245064
1.5982669591903687	3381297.7228637883
1.6022924184799194	3131655.646314514
1.606311559677124	2810439.5518062455
1.6103241443634033	2471738.329944138
1.6143304109573364	2088913.1441318977
1.6183301210403442	1716820.8031676202
1.6223233938217163	1480243.283187034
1.6263102293014526	1365477.3304977622
1.6302905082702637	1331329.0961156115
1.634264349937439	1433119.5617878507
1.638231635093689	1645602.3341703059
1.6421923637390137	1753488.0231678113
1.646146535873413	1651739.8563898664
1.6500942707061768	1612420.5513686738
1.6540353298187256	1633255.1588636574
1.6579699516296387	1665957.713862338
1.661897897720337	1658891.1765329195
1.6658192873001099	1095041.8207167813
1.6697341203689575	573235.8056453271
1.6736423969268799	786711.7957429528
1.677544116973877	1069264.133248741
1.6814392805099487	1050413.9714223493
1.6853278875350952	955595.772159628
1.6892099380493164	853893.2275856026
1.6930854320526123	719188.4812871679
1.696954369544983	594941.9147659637
1.7008168697357178	510381.73750161246
1.7046726942062378	510126.6995022259
1.708522081375122	643774.8277493236
1.712364912033081	824005.8056747996
1.7162011861801147	1004907.7671700378
1.7200311422348022	1133566.338009951
1.723854422569275	1088190.966034058
1.7276713848114014	1016431.2996867098
1.731481909751892	1019717.400244496
1.7352858781814575	1059639.6578765416
1.7390835285186768	1153722.0793362348
1.7428747415542603	1250849.3989817882
1.7466596364974976	1289117.8039672172
1.7504380941390991	1249279.3193385133
1.7542102336883545	1101784.7867645582
1.7579760551452637	942185.192190055
1.7617355585098267	856664.1134719054
1.7654887437820435	783042.7128451731
1.7692357301712036	702393.0181849945
1.7729763984680176	623287.6918474901
1.776710867881775	583360.4247885483
1.7804391384124756	582482.242307385
1.7841613292694092	520011.00021223456
1.7878772020339966	434641.0123014532
1.7915871143341064	357118.0808913537
1.7952908277511597	313834.1278523199
1.7989884614944458	322264.21060581144
1.8026801347732544	260983.49136846472
1.806365728378296	209080.79435753042
1.8100452423095703	222711.49920686055
1.8137187957763672	226702.84122255433
1.817386507987976	204178.07774339616
1.8210482597351074	226013.9496923693
1.8247040510177612	279609.638555333
1.828354001045227	226759.2747396317
1.8319982290267944	146945.48866505385
1.8356364965438843	119836.29980455912
1.8392690420150757	122580.8662460683
1.8428958654403687	180781.84152666244
1.8465168476104736	213567.7820039085
1.8501322269439697	205465.50717073982
1.8537418842315674	198906.21575453161
1.8573459386825562	165532.486921744
1.860944390296936	127723.7566822969
1.864537239074707	101083.48142810508
1.8681244850158691	75751.55789044434
1.871706247329712	77347.91907883351
1.8752825260162354	148409.9838172145
1.8788533210754395	283931.86773622077
1.8824186325073242	372231.3922008029
1.8859784603118896	359241.998166355
1.8895330429077148	331901.5085681169
1.8930821418762207	379432.5950950629
1.8966259956359863	411158.1322377302
1.9001644849777222	308145.82882989175
1.9036977291107178	216532.7467906872
1.9072256088256836	221008.82861941945
1.9107483625411987	208115.9163147144
1.9142658710479736	172530.80260907253
1.9177782535552979	173908.90821919465
1.9212853908538818	169588.76181822395
1.9247875213623047	141245.48372521313
1.9282845258712769	115205.16498232158
1.9317764043807983	99346.29995867978
1.9352631568908691	90624.35755639001
1.9387450218200684	81852.12070667278
1.942221760749817	93013.27144827147
1.9456936120986938	113726.45221424157
1.9491604566574097	120090.6493892745
1.952622413635254	118177.71299255278
1.956079363822937	129768.88567777257
1.959531545639038	159165.48360959403
1.962978720664978	180819.42306300963
1.966421127319336	199909.0874865516
1.9698586463928223	205136.87169913668
1.9732913970947266	209089.47894491933
1.9767193794250488	250960.51997469953
1.9801424741744995	268935.08358309773
1.9835609197616577	278221.74420858955
1.9869745969772339	324669.23107682366
1.990383505821228	359713.26525405975
1.9937876462936401	428708.88013243116
1.9971871376037598	522898.6764553019
2.000581979751587	565976.8938591722
2.003972291946411	568926.1273731734
2.007357597351074	578376.5719794163
2.0107386112213135	617433.0889763618
2.0141148567199707	618090.990440783
2.017486572265625	553296.5298740944
2.0208535194396973	556942.5979568096
2.0242159366607666	651318.686409626
2.027573823928833	708359.7598952317
2.0309269428253174	756329.0846117103
2.034275770187378	831211.78041348
2.0376198291778564	871974.0699629916
2.040959596633911	902599.4564383123
2.044294595718384	1003768.0586173786
2.0476250648498535	1123899.9756530582
2.0509510040283203	1180965.1760066592
2.054272413253784	1236464.156794526
2.057589530944824	1335250.3852431069
2.0609018802642822	1421151.6346829233
2.0642096996307373	1481114.460002807
2.0675129890441895	1542155.9760904144
2.0708119869232178	1599611.0711223632
2.074106216430664	1650067.9225089524
2.0773961544036865	1687986.9087917786
2.080681324005127	1722174.3185521606
2.0839622020721436	1763411.0390331256
2.087238311767578	1797822.67106643
2.090510129928589	1825630.3201908343
2.0937774181365967	1834235.2526908307
2.0970399379730225	1822175.8902355141
2.1002981662750244	1801304.2517399804
2.1035518646240234	1785599.4019286884
2.1068007946014404	1769960.5417503552
2.1100454330444336	1743166.9088527183
2.1132853031158447	1729536.8879139938
2.116520881652832	1696209.7504373698
2.1197516918182373	1648967.0160038124
2.1229779720306396	1621295.1417082944
2.12619948387146	1591878.2380517644
2.1294167041778564	1557413.3910682756
2.132629156112671	1528070.79920836
2.1358368396759033	1492634.2105557367
2.139039993286133	1431338.080096288
2.1422386169433594	1320033.8354538202
2.145432472229004	1206680.4945604277
2.1486217975616455	1151250.0351732317
2.151806354522705	1112754.7680435134
2.1549863815307617	1062624.7790610185
2.1581614017486572	1003527.8564743479
2.16133189201355	918813.3416622356
2.1644976139068604	843147.2167730947
2.167658567428589	788361.5062705948
2.1708147525787354	745539.2643791479
2.173966407775879	715318.6446350178
2.1771130561828613	665724.8892314719
2.1802549362182617	612357.5388835246
2.183391809463501	567648.2042492863
2.1865241527557373	525366.6180727633
2.1896514892578125	453677.78536854504
2.1927738189697266	336967.87362366304
2.1958916187286377	215337.17557847488
2.1990041732788086	117562.59658033635
2.2021119594573975	68921.5173209254
2.2052149772644043	78575.56946809818
2.208312749862671	120468.49990305463
2.2114057540893555	155444.6351453828
2.214493751525879	169691.10397088213
2.217576742172241	177028.3443845355
2.2206547260284424	171103.82298649015
2.2237277030944824	154822.5604914565
2.2267956733703613	135168.69895382426
2.2298583984375	111740.874553205
2.2329163551330566	104649.1713073921
2.235969066619873	105430.34953858345
2.2390167713165283	90597.10056369433
2.2420592308044434	76157.92091932983
2.2450966835021973	68701.14521112389
2.248128890991211	58391.609817165234
2.2511560916900635	51366.942576279485
2.254178285598755	47171.320268624935
2.257194995880127	44151.604157640424
2.260206699371338	44707.05185410971
2.2632133960723877	46672.30830260902
2.266214609146118	49992.587425757854
2.2692108154296875	54193.650536606445
2.2722020149230957	58274.25637197384
2.2751877307891846	57732.16343282807
2.278168201446533	56682.37408187821
2.2811436653137207	55091.1827974893
2.284113883972168	46500.38707073203
2.287078857421875	41092.17464352246
2.290038824081421	38912.478879128124
2.2929933071136475	35516.99557916198
2.295942783355713	35571.42253176996
2.298887014389038	40606.845575387466
2.301826238632202	48050.74082699762
2.304760217666626	62780.05941196756
2.3076889514923096	102761.38863977467
2.310612440109253	161744.05489421764
2.3135311603546143	170449.39591089773
2.3164443969726562	97296.71163149239
2.319352865219116	32078.44340473038
2.322256088256836	24471.953278584984
2.3251543045043945	32017.31776130239
2.328047275543213	33658.51319417228
2.330935478210449	34553.19722217809
2.3338186740875244	37095.469743398266
2.3366971015930176	38399.14083420402
2.3395702838897705	38450.23795335853
2.3424389362335205	39246.1876706237
2.3453025817871094	37426.91498557182
2.348161458969116	36973.79141138857
2.351015567779541	42738.176568138115
2.353865146636963	50126.26622262835
2.3567099571228027	60372.13493971144
2.3595502376556396	79737.8177146256
2.3623859882354736	98927.34603168642
2.3652172088623047	99864.72873225533
2.368043899536133	76215.68334569749
2.370866537094116	42189.467626524354
2.3736846446990967	29656.69011691889
2.3764986991882324	42225.748888906215
2.3793084621429443	54453.77573929789
2.3821144104003906	55962.572067224
2.384916305541992	62992.461758923346
2.387714147567749	82083.58212608569
2.3905084133148193	91646.51459805248
2.393299102783203	87487.12036125906
2.3960859775543213	88467.62809614983
2.398869514465332	106822.40882363866
2.4016497135162354	129502.98652519842
2.4044265747070312	138599.9556298136
2.407200336456299	138492.3238338001
2.409970998764038	163612.47774190467
2.4127390384674072	202850.6658149187
2.415503978729248	189336.9373013609
2.418266534805298	154463.89783059058
2.4210267066955566	153379.4229481882
2.4237842559814453	146812.6207812256
2.426539897918701	140255.8327655562
2.429293394088745	178461.69473061722
2.4320452213287354	214882.2923038501
2.4347951412200928	205930.61882861855
2.4375438690185547	226698.7958080796
2.440291166305542	282281.13817662385
2.443037271499634	287889.3927350715
2.445782423019409	258920.93675452718
2.4485268592834473	247732.36913672587
2.451270818710327	251446.3812469714
2.454014539718628	273133.39710835577
2.4567582607269287	315130.896207024
2.4595019817352295	338415.2058612622
2.4622461795806885	366018.8766418376
2.4649908542633057	407552.728218285
2.4677364826202393	380712.6018130765
2.4704833030700684	321290.7196102796
2.473231554031372	296846.1215915008
2.4759814739227295	305530.005471492
2.4787333011627197	317883.69067276083
2.481487512588501	326145.50944018655
