#wavelength	surface flux
0.6450077295303345	1440.3188541174254
0.6472567915916443	2268.924595121639
0.6494921445846558	2958.9561107681143
0.6517150402069092	3396.0409567827014
0.6539263725280762	3857.417330771537
0.6561272740364075	4360.561945129777
0.6583186388015747	4903.749067655667
0.6605015397071838	5487.141001437343
0.6626768708229065	6106.391626677293
0.6648455858230591	6752.087535303373
0.6670085787773132	7274.829394963418
0.6691668033599854	7284.952314477418
0.6713210344314575	7492.153463340442
0.6734722256660461	8837.621164883805
0.6756211519241333	10294.088840562838
0.6777685880661011	11183.555602246239
0.6799154281616211	11928.034181658213
0.6820623278617859	12619.500380606189
0.6842101216316223	13251.20115959814
0.6863595843315125	13800.112800731411
0.688511312007904	14186.658501586815
0.6906660795211792	14339.440472201713
0.6928245425224304	14404.062529185823
0.6949873566627502	14556.883587444161
0.6971551775932312	14700.101139313387
0.6993286609649658	14682.180496878098
0.7015084028244019	14516.987960587121
0.7036949396133423	14265.268595259147
0.7058889269828796	13929.861008506918
0.7080909013748169	13502.637074282187
0.710301399230957	12997.486508491185
0.712520956993103	12424.225012808613
0.7147500514984131	11746.093088613712
0.7169892191886902	10976.111962629853
0.7192389369010925	10279.700485063424
0.7214996814727783	9675.749502874043
0.723771870136261	9024.382308685805
0.7260559797286987	8356.058489350897
0.7283523678779602	7766.052380593479
0.7306615710258484	7251.248759084266
0.7329838871955872	6798.4677036172525
0.7353196740150452	6379.693912872552
0.7376693487167358	5961.511454584896
0.7400332689285278	5558.947952981618
0.7424117922782898	5177.098783951949
0.7448052167892456	4806.425532291286
0.7472138404846191	4438.536330201208
0.7496379613876343	4072.9697804599427
0.7520779371261597	3708.113976935641
0.7545340061187744	3334.630766658554
0.7570064663887024	2938.4257812528745
0.7594954967498779	2492.1379985432095
0.7620013952255249	1936.402881478622
0.7645244002342224	1266.1776672288383
0.7670646905899048	784.472359032008
0.7696225643157959	853.894340208099
0.7721980810165405	1554.3540421388388
0.7747915983200073	2583.3314269699476
0.7774031162261963	3445.361528063089
0.7800329327583313	4207.67506825058
0.7826811671257019	5372.170328011536
0.7853479981422424	6760.129713922275
0.7880334854125977	8048.503051855491
0.7907378077507019	9130.48634941312
0.7934610247612	9784.124651854865
0.7962033748626709	11255.262231806018
0.7989648580551147	14142.606814629307
0.801745593547821	17128.709253576533
0.8045456409454346	19994.28085246719
0.8073651194572449	23149.48701252072
0.8102040886878967	26563.895082137275
0.8130625486373901	30364.813615085877
0.8159406185150146	34994.46781188963
0.8188382983207703	40551.07628284915
0.8217556476593018	46493.958878653204
0.8246926665306091	52898.82929533919
0.8276493549346924	59882.719374601045
0.8306257724761963	67144.29577458285
0.8336219191551208	74998.52196868637
0.8366377949714661	83684.11248463843
0.8396733403205872	93188.38329066087
0.8427285552024841	103843.20268894016
0.8458034992218018	115540.61408914607
0.8488980531692505	123700.4141682122
0.8520121574401855	130832.83486288587
0.8551458716392517	151792.1171540977
0.8582990765571594	179558.64862215912
0.8614717125892639	200509.95008056567
0.8646637797355652	219903.0700128023
0.8678751587867737	241222.1355995564
0.8711057901382446	262885.71683836496
0.8743556141853333	284019.1404253402
0.87762451171875	303219.60640773707
0.8809124231338501	315517.9745516818
0.8842192888259888	321524.56124460965
0.8875449895858765	326879.08371897653
0.8908893465995789	321965.73140796233
0.894252359867096	315083.48304001207
0.8976338505744934	356446.27682863723
0.9010337591171265	438000.4303200466
0.9044519662857056	511097.3903153609
0.9078882932662964	560674.663769434
0.9113426208496094	589036.3234406487
0.914814829826355	608565.6249253092
0.9183048605918884	634208.3448862098
0.9218124747276306	653572.7037931848
0.925337553024292	592273.7892560691
0.9288799166679382	450290.26296205836
0.9324395060539246	376466.9629217419
0.9360161423683167	437492.4519423104
0.9396095871925354	543315.8198030364
0.943219780921936	588700.1859557502
0.9468464851379395	580635.3131312015
0.9504896402359009	585514.6328822083
0.9541489481925964	593162.0969582975
0.9578243494033813	592842.7161151245
0.9615156054496765	619341.9025833996
0.9652225375175476	696186.538235024
0.9689450263977051	795788.0529698113
0.9726828336715698	868029.6469716055
0.9764357805252075	920596.4368126377
0.9802037477493286	978101.1375644844
0.983986496925354	1037956.1769161179
0.9877838492393494	1112600.5136062803
0.9915955662727356	1209317.5408234184
0.9954215884208679	1312779.4328763862
0.9992615580558777	1418201.2903300729
1.0031154155731201	1531577.894390612
1.0069829225540161	1633146.4374939627
1.0108637809753418	1706088.016852757
1.0147579908370972	1760951.1315034414
1.018665075302124	1806925.0512352334
1.022585153579712	1853518.50335693
1.0265177488327026	1903794.1922831717
1.0304628610610962	1955521.3293712863
1.0344202518463135	2021295.8142346751
1.0383895635604858	2108677.7928283713
1.0423706769943237	2201822.1859236923
1.0463634729385376	2287368.050919082
1.0503677129745483	2372873.693066392
1.0543830394744873	2457886.3991881222
1.058409333229065	2521902.7860128726
1.0624464750289917	2565164.772927182
1.0664942264556885	2592591.579195545
1.0705522298812866	2593058.8136847964
1.0746204853057861	2580121.47610795
1.0786986351013184	2569482.2073098305
1.0827864408493042	2542854.023629826
1.086883783340454	2452934.7056305273
1.0909905433654785	2264198.9523255304
1.0951062440872192	2000739.7250688781
1.0992310047149658	1706390.8834358319
1.10336434841156	1400401.636866851
1.1075061559677124	1108107.070532396
1.1116561889648438	863676.3653219382
1.115814208984375	728732.1092180399
1.1199802160263062	729874.6205713097
1.124153733253479	825488.2396977297
1.1283347606658936	891563.9489778486
1.1325229406356812	825463.2710784185
1.1367181539535522	863011.9331995848
1.1409201622009277	1042113.5175345674
1.145128846168518	1090524.588474189
1.1493438482284546	1040943.3021023754
1.1535650491714478	973170.2010785665
1.1577922105789185	932931.5240998826
1.1620250940322876	964175.6946525818
1.1662636995315552	1047161.3521150629
1.170507550239563	1209730.645860733
1.174756646156311	1426513.1151555271
1.1790107488632202	1678139.3901140767
1.1832695007324219	1956818.026371403
1.1875330209732056	2199264.5201487965
1.191800832748413	2415810.752154058
1.1960728168487549	2629427.782319068
1.2003488540649414	2816733.2746301396
1.2046287059783936	2993041.296611136
1.2089121341705322	3151158.756416871
1.2131990194320679	3289146.589694685
1.2174891233444214	3439658.1439708276
1.2217823266983032	3593978.3407930126
1.2260783910751343	3754388.834817157
1.230377197265625	3916598.762600124
1.2346785068511963	4047867.8679442857
1.238982081413269	4139888.055638019
1.2432878017425537	4211459.425517099
1.2475954294204712	4259708.673222288
1.2519049644470215	4274145.442967785
1.256216049194336	4373651.766292157
1.2605286836624146	4530520.042851296
1.2648425102233887	4602108.197482522
1.2691574096679688	4621004.05137639
1.2734732627868652	4614245.320084805
1.2777899503707886	4574891.474730771
1.2821072340011597	4484206.677362374
1.2864248752593994	4342155.34184577
1.2907428741455078	4211592.895104378
1.2950609922409058	4135696.9154802104
1.2993791103363037	4076412.7574662687
1.303696870803833	4000411.7333790096
1.3080145120620728	3897070.611868275
1.3123314380645752	3709834.477143245
1.3166478872299194	3525706.423034413
1.3209635019302368	3378997.642082525
1.3252781629562378	3034232.2618670156
1.3295916318893433	2323422.8805203703
1.3339040279388428	1465007.8239178667
1.3382149934768677	820695.6498018398
1.3425244092941284	475488.60929318145
1.3468321561813354	317074.5689561086
1.3511382341384888	226366.3163623243
1.3554422855377197	167925.4995933293
1.3597444295883179	158453.73618160622
1.3640443086624146	201816.1757191457
1.3683418035507202	253303.7588876817
1.3726370334625244	314016.87387805514
1.3769296407699585	386793.7340865366
1.381219506263733	367395.42904120387
1.3855066299438477	298352.2055986098
1.3897908926010132	282763.0884113545
1.3940720558166504	282922.93804985384
1.3983501195907593	290722.55309159524
1.4026249647140503	315825.9034774774
1.4068963527679443	325199.9846573297
1.4111642837524414	321767.68106892746
1.4154287576675415	330890.03559648665
1.419689416885376	342922.89239695884
1.4239463806152344	377904.5717737062
1.4281994104385376	459286.34251642134
1.4324485063552856	532903.5959793201
1.436693549156189	578248.1808433302
1.440934419631958	633390.6372689917
1.4451709985733032	726216.5954349125
1.449403166770935	884020.1874431882
1.453631043434143	1055272.67604594
1.4578542709350586	1186373.7794547612
1.4620729684829712	1234176.180075493
1.4662868976593018	1188773.5223773706
1.4704961776733398	1121477.1417940045
1.4747005701065063	1118443.363858575
1.4788999557495117	1176825.831400164
1.4830944538116455	1234512.0956461614
1.4872838258743286	1291025.2962316142
1.491468071937561	1371103.3458546055
1.4956470727920532	1499855.5285757338
1.4998208284378052	1678848.1192161816
1.5039892196655273	1826753.4658106903
1.5081522464752197	1867610.8244892363
1.5123097896575928	1865474.7742999147
1.5164618492126465	1977353.014424169
1.5206083059310913	2248568.3624769514
1.5247491598129272	2522852.0668478105
1.5288842916488647	2731321.6936624995
1.5330137014389038	2916929.275558374
1.5371372699737549	3080635.9616479324
1.541254997253418	3231385.055231505
1.545366883277893	3398570.124485212
1.5494728088378906	3572150.463263142
1.5535727739334106	3747116.998070092
1.5576666593551636	3968722.6103206193
1.561754584312439	4273154.223377787
1.5658363103866577	4594113.88460509
1.5699119567871094	4803848.85211234
1.5739814043045044	4918832.26283025
1.5780447721481323	5040451.561750851
1.582101821899414	5161379.130808727
1.5861525535583496	5221522.097019858
1.5901970863342285	5198716.019048791
1.5942351818084717	5123639.042237943
1.5982669591903687	5007653.379823717
1.6022924184799194	4806103.693231158
1.606311559677124	4533268.261391054
1.6103241443634033	4229263.5243916875
1.6143304109573364	3873536.975750631
1.6183301210403442	3505735.364232245
1.6223233938217163	3235191.4574765577
1.6263102293014526	3070474.169093776
1.6302905082702637	2997866.323734417
1.634264349937439	3090433.8245815737
1.638231635093689	3338092.620414858
1.6421923637390137	3507918.439216889
1.646146535873413	3475319.404949619
1.6500942707061768	3490764.946219422
1.6540353298187256	3511809.0608824557
1.6579699516296387	3544281.4108690484
1.661897897720337	3409347.636795318
1.6658192873001099	2366589.3175121965
1.6697341203689575	1624004.33760129
1.6736423969268799	2235786.5229701726
1.677544116973877	2869964.8194842176
1.6814392805099487	2892885.9338531
1.6853278875350952	2728535.523847437
1.6892099380493164	2545264.7456599516
1.6930854320526123	2326114.1214951365
1.696954369544983	2109709.6839463976
1.7008168697357178	1951903.6114768626
1.7046726942062378	1941730.0795616289
1.708522081375122	2147960.9793187645
1.712364912033081	2406732.090047717
1.7162011861801147	2643347.432163239
1.7200311422348022	2820271.2271961705
1.723854422569275	2776648.3235755493
1.7276713848114014	2688586.684308959
1.731481909751892	2682152.0936153173
1.7352858781814575	2699821.660851968
1.7390835285186768	2760465.2896402543
1.7428747415542603	2824699.612829226
1.7466596364974976	2824779.878191938
1.7504380941390991	2735599.93429797
1.7542102336883545	2525705.037810176
1.7579760551452637	2314605.7084954507
1.7617355585098267	2190637.441928421
1.7654887437820435	2043487.9272935097
1.7692357301712036	1883130.677061556
1.7729763984680176	1743909.917779787
1.776710867881775	1643471.1236106358
1.7804391384124756	1585780.6206603495
1.7841613292694092	1444770.0021159914
1.7878772020339966	1299576.558565324
1.7915871143341064	1165264.2435881277
1.7952908277511597	1069144.8148969458
1.7989884614944458	1043520.0862822721
1.8026801347732544	899355.1505456201
1.806365728378296	810364.364664187
1.8100452423095703	852010.3245474208
1.8137187957763672	870716.9154717508
1.817386507987976	807608.9566896672
1.8210482597351074	821550.4251649835
1.8247040510177612	950632.645085666
1.828354001045227	869503.5006694098
1.8319982290267944	703611.3949305023
1.8356364965438843	630924.9438355874
1.8392690420150757	627820.8969815699
1.8428958654403687	766622.8267460607
1.8465168476104736	837949.5453088698
1.8501322269439697	813351.02941272
1.8537418842315674	783341.2204307484
1.8573459386825562	676433.7415693873
1.860944390296936	571148.5248060359
1.864537239074707	496474.81555512646
1.8681244850158691	423290.7848657083
1.871706247329712	452208.77999004105
1.8752825260162354	694709.8232405402
1.8788533210754395	1071998.4854958437
1.8824186325073242	1300664.6428470202
1.8859784603118896	1295937.8425823373
1.8895330429077148	1260503.1151744358
1.8930821418762207	1379090.151809733
1.8966259956359863	1449011.9115970533
1.9001644849777222	1218081.7931183781
1.9036977291107178	1008477.2665525584
1.9072256088256836	1026160.7399278226
1.9107483625411987	1000134.529007983
1.9142658710479736	904466.1330861795
1.9177782535552979	909125.332727228
1.9212853908538818	874329.6518296911
1.9247875213623047	771012.7367335497
1.9282845258712769	687832.6791125351
1.9317764043807983	629827.7650699969
1.9352631568908691	587160.1134463316
1.9387450218200684	534276.7596455871
1.942221760749817	576316.4096623234
1.9456936120986938	668973.5183666779
1.9491604566574097	715857.2579746493
1.952622413635254	722773.0944450324
1.956079363822937	727303.2761622366
1.959531545639038	803770.726632946
1.962978720664978	899359.0653645202
1.966421127319336	999590.588558524
1.9698586463928223	1036619.1846855741
1.9732913970947266	1031543.3534344889
1.9767193794250488	1141290.2603393875
1.9801424741744995	1236780.7050599211
1.9835609197616577	1335436.0987312095
1.9869745969772339	1466557.4524298059
1.990383505821228	1497809.669152822
1.9937876462936401	1639234.543531466
1.9971871376037598	1843747.6166195255
2.000581979751587	1932518.716570901
2.003972291946411	1985477.3179340938
2.007357597351074	2007336.091926179
2.0107386112213135	2089017.522135581
2.0141148567199707	2157811.4420680683
2.017486572265625	2084312.3680308224
2.0208535194396973	2136012.3813772337
2.0242159366607666	2337365.2979871463
2.027573823928833	2420593.857328436
2.0309269428253174	2490998.196353785
2.034275770187378	2648775.3119892753
2.0376198291778564	2754995.835264535
2.040959596633911	2807328.4135615053
2.044294595718384	2957291.3772295066
2.0476250648498535	3147202.568406318
2.0509510040283203	3228892.0389376883
2.054272413253784	3302130.364137602
2.057589530944824	3451224.7170337923
2.0609018802642822	3565931.1497336463
2.0642096996307373	3628799.027184934
2.0675129890441895	3702462.700614045
2.0708119869232178	3770777.41505871
2.074106216430664	3822691.136751362
2.0773961544036865	3863339.361159752
2.080681324005127	3908039.798421612
2.0839622020721436	3956857.2580316314
2.087238311767578	3993561.503401298
2.090510129928589	4023084.458399109
2.0937774181365967	4032427.877530172
2.0970399379730225	4022463.8911687913
2.1002981662750244	4000136.1639387403
2.1035518646240234	3977358.876991035
2.1068007946014404	3954978.2018974843
2.1100454330444336	3927463.375557226
2.1132853031158447	3917814.259342915
2.116520881652832	3881928.0160410497
2.1197516918182373	3829916.053322685
2.1229779720306396	3804294.117677944
2.12619948387146	3774441.342034951
2.1294167041778564	3732776.3882304155
2.132629156112671	3694424.824479007
2.1358368396759033	3645023.946086359
2.139039993286133	3566810.416795339
2.1422386169433594	3431462.5760789798
2.145432472229004	3288059.4199727643
2.1486217975616455	3215039.7994974973
2.151806354522705	3168899.567828798
2.1549863815307617	3113528.7631393545
2.1581614017486572	3031314.675887836
2.16133189201355	2900195.74036041
2.1644976139068604	2786459.371708067
2.167658567428589	2697756.166287541
2.1708147525787354	2615809.533201658
2.173966407775879	2538647.9949018257
2.1771130561828613	2428111.516089471
2.1802549362182617	2318489.731968067
2.183391809463501	2213920.341894354
2.1865241527557373	2096946.1147278664
2.1896514892578125	1912630.813772351
2.1927738189697266	1613700.0960776082
2.1958916187286377	1232560.9261870387
2.1990041732788086	837907.2498195891
2.2021119594573975	603564.1336582133
2.2052149772644043	622269.5561357506
2.208312749862671	792489.582222835
2.2114057540893555	948798.2751993517
2.214493751525879	1027980.9732681243
2.217576742172241	1070638.8668118876
2.2206547260284424	1060405.3594895303
2.2237277030944824	1007653.5899464181
2.2267956733703613	919303.8973630277
2.2298583984375	814479.2716486459
2.2329163551330566	779468.8537405477
2.235969066619873	774729.8649448542
2.2390167713165283	706255.7039030795
2.2420592308044434	629460.3845996211
2.2450966835021973	580086.4138265816
2.248128890991211	528695.678310455
2.2511560916900635	496696.3729371332
2.254178285598755	473419.2268846242
2.257194995880127	454874.9558244055
2.260206699371338	452902.9631943813
2.2632133960723877	461026.0552562454
2.266214609146118	481436.9112654486
2.2692108154296875	502065.4623238485
2.2722020149230957	514720.35962199164
2.2751877307891846	505251.16094560584
2.278168201446533	499229.57700905506
2.2811436653137207	486854.96846093854
2.284113883972168	436367.3831964946
2.287078857421875	403958.0214349925
2.290038824081421	381907.05178590567
2.2929933071136475	356564.80614022963
2.295942783355713	360239.5764142653
2.298887014389038	402922.46093209967
2.301826238632202	465788.6196401568
2.304760217666626	561375.095448321
2.3076889514923096	764188.1172218985
2.310612440109253	1022738.7571973844
2.3135311603546143	1030969.891443413
2.3164443969726562	640349.9555931867
2.319352865219116	289756.65785239224
2.322256088256836	256959.0394190402
2.3251543045043945	306215.1484499511
2.328047275543213	316070.71789531974
2.330935478210449	321687.14018448506
2.3338186740875244	333889.0611855364
2.3366971015930176	340233.6612708308
2.3395702838897705	338504.0230862657
2.3424389362335205	337049.37040035974
2.3453025817871094	326716.1614962262
2.348161458969116	330961.16677114856
2.351015567779541	369964.4838095413
2.353865146636963	418396.5899601794
2.3567099571228027	475929.4074201177
2.3595502376556396	576461.4654744009
2.3623859882354736	682349.6221027507
2.3652172088623047	697652.4455695836
2.368043899536133	562408.2976243596
2.370866537094116	343392.2071847187
2.3736846446990967	262095.09743847407
2.3764986991882324	336552.00223345024
2.3793084621429443	401535.8117953353
2.3821144104003906	413799.0595306144
2.384916305541992	458022.0012391097
2.387714147567749	561522.4690367331
2.3905084133148193	612987.3342314761
2.393299102783203	596568.0937879996
2.3960859775543213	609640.2309244212
2.398869514465332	702856.48556442
2.4016497135162354	799349.6089825591
2.4044265747070312	822929.7316326844
2.407200336456299	809574.6878173797
2.409970998764038	895011.0012037939
2.4127390384674072	1039439.8282836737
2.415503978729248	988559.7334182395
2.418266534805298	873414.4136384582
2.4210267066955566	911255.7269101704
2.4237842559814453	911771.3992382598
2.426539897918701	871445.5952899809
2.429293394088745	998184.3859301601
2.4320452213287354	1133363.0239854418
2.4347951412200928	1068816.614225696
2.4375438690185547	1099971.6999659378
2.440291166305542	1288165.3099491517
2.443037271499634	1298903.217385176
2.445782423019409	1190136.0102517186
2.4485268592834473	1159852.4782110094
2.451270818710327	1153949.116142165
2.454014539718628	1193821.5529480898
2.4567582607269287	1329189.8636185643
2.4595019817352295	1369421.3776712797
2.4622461795806885	1411742.7199648395
2.4649908542633057	1517487.1064551766
2.4677364826202393	1399521.5139895617
2.4704833030700684	1205537.217209169
2.473231554031372	1119169.4989521254
2.4759814739227295	1122070.7343201477
2.4787333011627197	1164809.0688931716
2.481487512588501	1200787.7067245066
