#wavelength	surface flux
0.6450077295303345	32669.972931556124
0.6472567915916443	52577.606286205875
0.6494921445846558	71250.0492126839
0.6517150402069092	85431.16317362021
0.6539263725280762	100965.48214006267
0.6561272740364075	118244.34056316543
0.6583186388015747	137299.11111156858
0.6605015397071838	158026.83717861286
0.6626768708229065	179875.35486816004
0.6648455858230591	200834.75733639914
0.6670085787773132	209354.5824183659
0.6691668033599854	187355.12435761918
0.6713210344314575	180229.90995857722
0.6734722256660461	242955.10191131072
0.6756211519241333	320893.59629125305
0.6777685880661011	368209.7025560344
0.6799154281616211	402550.216930964
0.6820623278617859	432611.78938349156
0.6842101216316223	459438.1006595646
0.6863595843315125	482596.25051376753
0.688511312007904	500479.7983036959
0.6906660795211792	509824.44713064766
0.6928245425224304	512724.8907879358
0.6949873566627502	518802.3242150212
0.6971551775932312	526340.6944356837
0.6993286609649658	524845.0527789369
0.7015084028244019	514736.8103687776
0.7036949396133423	500663.2219669328
0.7058889269828796	483280.6802961992
0.7080909013748169	462410.40099058027
0.710301399230957	438310.3014734839
0.712520956993103	411174.1325459419
0.7147500514984131	379128.72021572996
0.7169892191886902	343384.1461625681
0.7192389369010925	312039.7950546478
0.7214996814727783	284936.7882958854
0.723771870136261	255997.97761387008
0.7260559797286987	226603.98127811952
0.7283523678779602	199581.6603466449
0.7306615710258484	174587.48689443184
0.7329838871955872	151524.54087519136
0.7353196740150452	130105.05300098928
0.7376693487167358	109550.95436422798
0.7400332689285278	90502.30380500323
0.7424117922782898	73413.16626076412
0.7448052167892456	58393.430196245754
0.7472138404846191	45407.87661127268
0.7496379613876343	34376.77909678701
0.7520779371261597	25296.99388241062
0.7545340061187744	18096.801759970273
0.7570064663887024	12603.814062939282
0.7594954967498779	8538.77659293638
0.7620013952255249	5467.22313937935
0.7645244002342224	3025.964344182189
0.7670646905899048	1572.6632349123136
0.7696225643157959	1727.5099441805
0.7721980810165405	3776.2804730721955
0.7747915983200073	7388.523360305954
0.7774031162261963	11562.591209692502
0.7800329327583313	17467.554336899615
0.7826811671257019	28663.523568202036
0.7853479981422424	45059.755843361694
0.7880334854125977	65140.71489314104
0.7907378077507019	84867.69925926169
0.7934610247612	99454.17093726418
0.7962033748626709	133713.09029834493
0.7989648580551147	199971.48384745404
0.801745593547821	271803.81500041654
0.8045456409454346	343479.55980418663
0.8073651194572449	422259.66446779016
0.8102040886878967	507265.1529999162
0.8130625486373901	602926.5804893895
0.8159406185150146	716834.8925067661
0.8188382983207703	849813.7059003791
0.8217556476593018	1004791.7504901707
0.8246926665306091	1188321.7348229713
0.8276493549346924	1391825.1431654948
0.8306257724761963	1605980.4498202354
0.8336219191551208	1839791.0571967869
0.8366377949714661	2099551.3842602884
0.8396733403205872	2387636.279813952
0.8427285552024841	2708695.9818333737
0.8458034992218018	3032411.18643875
0.8488980531692505	3168444.5797239807
0.8520121574401855	3236478.0468522348
0.8551458716392517	3827359.1536123487
0.8582990765571594	4523490.02187305
0.8614717125892639	4554151.625887988
0.8646637797355652	4478065.237153457
0.8678751587867737	4828436.271145917
0.8711057901382446	5276709.323975788
0.8743556141853333	5752275.973445056
0.87762451171875	6306502.75514495
0.8809124231338501	6737224.438552728
0.8842192888259888	7117277.734101117
0.8875449895858765	7489729.380275401
0.8908893465995789	7351391.306122333
0.894252359867096	7064233.13581696
0.8976338505744934	8271155.35357325
0.9010337591171265	10600409.78565377
0.9044519662857056	12590994.252584107
0.9078882932662964	13969343.62103822
0.9113426208496094	14887682.414008144
0.914814829826355	15652225.05402774
0.9183048605918884	16622183.589717524
0.9218124747276306	17300139.45422571
0.925337553024292	15522981.706601784
0.9288799166679382	11837828.189000022
0.9324395060539246	10323778.326240636
0.9360161423683167	11880472.874222873
0.9396095871925354	14340575.078910798
0.943219780921936	15883016.833857693
0.9468464851379395	16259823.209069537
0.9504896402359009	16444308.815690255
0.9541489481925964	16482379.82796963
0.9578243494033813	16251412.551263701
0.9615156054496765	16626721.209101904
0.9652225375175476	18279758.871271122
0.9689450263977051	20508914.6939884
0.9726828336715698	22278169.014152475
0.9764357805252075	23914727.233001526
0.9802037477493286	25737250.992270205
0.983986496925354	27468433.271575987
0.9877838492393494	28879726.030013848
0.9915955662727356	29418595.013199463
0.9954215884208679	28547790.00706534
0.9992615580558777	25855449.534314506
1.0031154155731201	24338657.811142378
1.0069829225540161	26047714.36201652
1.0108637809753418	29219634.238574386
1.0147579908370972	33057926.64399355
1.018665075302124	37165020.18084607
1.022585153579712	40735775.711601965
1.0265177488327026	43491434.07332352
1.0304628610610962	46616970.549209185
1.0344202518463135	50714801.746182285
1.0383895635604858	54697209.056824766
1.0423706769943237	57729762.00871247
1.0463634729385376	59867900.784424186
1.0503677129745483	61155813.47147334
1.0543830394744873	62281975.403114535
1.058409333229065	64028133.69495131
1.0624464750289917	66507456.35893849
1.0664942264556885	69421431.51016179
1.0705522298812866	72487048.78077802
1.0746204853057861	75949011.51431644
1.0786986351013184	79238167.60410435
1.0827864408493042	80805204.90120377
1.086883783340454	77222183.75254534
1.0909905433654785	66159909.26164595
1.0951062440872192	51968553.220200814
1.0992310047149658	40358898.37700869
1.10336434841156	31504578.922133766
1.1075061559677124	24275229.578170132
1.1116561889648438	18964272.96252809
1.115814208984375	16413353.092117013
1.1199802160263062	16489350.276978152
1.124153733253479	18253133.459243793
1.1283347606658936	19073273.05794593
1.1325229406356812	16276399.60975083
1.1367181539535522	14678421.673826147
1.1409201622009277	17093454.370850466
1.145128846168518	19966863.36344158
1.1493438482284546	21353396.563120134
1.1535650491714478	20616914.26839783
1.1577922105789185	19551872.771626364
1.1620250940322876	18967763.692802146
1.1662636995315552	18037513.535917364
1.170507550239563	18211558.78209098
1.174756646156311	19301396.781545453
1.1790107488632202	21866870.960989237
1.1832695007324219	27651576.10379902
1.1875330209732056	34294315.62932466
1.191800832748413	40656137.27545453
1.1960728168487549	47213657.79561643
1.2003488540649414	53207789.78706893
1.2046287059783936	59353731.03951142
1.2089121341705322	65343378.75490237
1.2131990194320679	70851773.16159901
1.2174891233444214	76515723.99279745
1.2217823266983032	81869147.23987074
1.2260783910751343	87463871.2574042
1.230377197265625	92835243.14292851
1.2346785068511963	96030279.63441421
1.238982081413269	93627757.49712776
1.2432878017425537	87981079.97940177
1.2475954294204712	84764932.77063166
1.2519049644470215	82489168.12192878
1.256216049194336	91706529.33458889
1.2605286836624146	108137873.40968366
1.2648425102233887	114459610.54551615
1.2691574096679688	114784772.1909327
1.2734732627868652	113657774.07678686
1.2777899503707886	111907076.56680664
1.2821072340011597	108377009.54749975
1.2864248752593994	101971223.58025037
1.2907428741455078	96765272.76626648
1.2950609922409058	94918841.15964502
1.2993791103363037	93140339.34010512
1.303696870803833	90283473.86815082
1.3080145120620728	86398558.19102463
1.3123314380645752	80066731.26683697
1.3166478872299194	73452121.25975977
1.3209635019302368	67005674.508312695
1.3252781629562378	55484529.952669084
1.3295916318893433	36794929.51928897
1.3339040279388428	18122015.806791447
1.3382149934768677	7696594.067513197
1.3425244092941284	4297033.5343897175
1.3468321561813354	3061566.6855568658
1.3511382341384888	2302785.1131497184
1.3554422855377197	1829666.4211246194
1.3597444295883179	1793575.395605361
1.3640443086624146	2202404.281720216
1.3683418035507202	2529274.2590576266
1.3726370334625244	2760821.691616599
1.3769296407699585	3232565.517488535
1.381219506263733	3337288.6651947945
1.3855066299438477	3089485.831090016
1.3897908926010132	2991668.8178186114
1.3940720558166504	2847989.19082803
1.3983501195907593	2727556.290885545
1.4026249647140503	2789130.7918239105
1.4068963527679443	2725581.733215828
1.4111642837524414	2589933.9954595445
1.4154287576675415	2639076.251754434
1.419689416885376	2634101.420328393
1.4239463806152344	2649447.7815009602
1.4281994104385376	3023107.3116913117
1.4324485063552856	3486389.1895192396
1.436693549156189	3768445.3387740855
1.440934419631958	4037497.425193131
1.4451709985733032	4515863.883780753
1.449403166770935	5586103.328410907
1.453631043434143	6877693.951666067
1.4578542709350586	7734959.132470786
1.4620729684829712	8072829.205407417
1.4662868976593018	8082242.835563192
1.4704961776733398	8119418.931150206
1.4747005701065063	8613390.090014733
1.4788999557495117	9394775.22552776
1.4830944538116455	9945247.033539856
1.4872838258743286	10500842.597555093
1.491468071937561	11256972.598570053
1.4956470727920532	12137919.790363213
1.4998208284378052	13176329.937279593
1.5039892196655273	14368645.605036205
1.5081522464752197	15834807.26904151
1.5123097896575928	17501316.450417206
1.5164618492126465	18810199.28835924
1.5206083059310913	20195983.88790057
1.5247491598129272	21979223.964942154
1.5288842916488647	23791371.58866941
1.5330137014389038	25817648.81476846
1.5371372699737549	27641679.849552087
1.541254997253418	29184782.848893512
1.545366883277893	31343571.2151841
1.5494728088378906	33351994.79163258
1.5535727739334106	34285171.036569744
1.5576666593551636	35457355.220658
1.561754584312439	38450614.11064603
1.5658363103866577	42245724.32872114
1.5699119567871094	44500649.156707056
1.5739814043045044	45517660.58389003
1.5780447721481323	46640384.59157092
1.582101821899414	47802099.41209842
1.5861525535583496	48351397.13277315
1.5901970863342285	47867633.58210474
1.5942351818084717	46952964.97927785
1.5982669591903687	45738401.22808863
1.6022924184799194	43318813.62784299
1.606311559677124	40299489.92736608
1.6103241443634033	37738432.217519626
1.6143304109573364	34949399.21235984
1.6183301210403442	32228977.107151642
1.6223233938217163	31344690.56908438
1.6263102293014526	31927772.11925537
1.6302905082702637	32848177.316840854
1.634264349937439	34915574.677479446
1.638231635093689	38282352.477638
1.6421923637390137	39716544.75271717
1.646146535873413	37969435.86014257
1.6500942707061768	37214764.3500666
1.6540353298187256	36064422.81383981
1.6579699516296387	34037364.806319654
1.661897897720337	32436149.51293454
1.6658192873001099	22543702.51327124
1.6697341203689575	13141346.197026804
1.6736423969268799	17596086.245060697
1.677544116973877	24574127.533381328
1.6814392805099487	25366239.33233829
1.6853278875350952	23351336.77700656
1.6892099380493164	20907820.989054408
1.6930854320526123	18279902.79094502
1.696954369544983	15902531.604631284
1.7008168697357178	14514691.025317293
1.7046726942062378	14683049.41628572
1.708522081375122	16265458.233579159
1.712364912033081	17511020.265435774
1.7162011861801147	18057125.391865365
1.7200311422348022	18513459.592149723
1.723854422569275	17794795.486471426
1.7276713848114014	16542124.553194478
1.731481909751892	15614585.386164391
1.7352858781814575	14996057.923979077
1.7390835285186768	15092652.841214692
1.7428747415542603	15438769.48926538
1.7466596364974976	15385478.671729703
1.7504380941390991	14829778.125744121
1.7542102336883545	13497179.719473245
1.7579760551452637	12171950.265797649
1.7617355585098267	11585685.372059602
1.7654887437820435	10863795.23428681
1.7692357301712036	9728307.19942831
1.7729763984680176	8778448.675593795
1.776710867881775	8387399.594107825
1.7804391384124756	8299396.689997087
1.7841613292694092	7659953.978709563
1.7878772020339966	6925291.561428842
1.7915871143341064	6227565.936262221
1.7952908277511597	5834562.799252223
1.7989884614944458	5914644.844728405
1.8026801347732544	5345886.800933965
1.806365728378296	4957423.764016041
1.8100452423095703	5266475.456113223
1.8137187957763672	5644272.4960092055
1.817386507987976	5346245.979228941
1.8210482597351074	5218240.048446758
1.8247040510177612	5885076.287810905
1.828354001045227	5647951.715087733
1.8319982290267944	4857695.796312837
1.8356364965438843	4434037.928473105
1.8392690420150757	4402965.783185862
1.8428958654403687	4743897.783578668
1.8465168476104736	4696271.474429896
1.8501322269439697	4537061.8867609715
1.8537418842315674	4437022.779071067
1.8573459386825562	3793811.53479465
1.860944390296936	3171049.3457864267
1.864537239074707	3013705.2812803686
1.8681244850158691	3042149.287314424
1.871706247329712	3363502.0275155255
1.8752825260162354	4211869.10067525
1.8788533210754395	5520742.478199554
1.8824186325073242	6619826.724323213
1.8859784603118896	6954540.76403749
1.8895330429077148	6974679.342681612
1.8930821418762207	7579875.4295689
1.8966259956359863	8181340.86058681
1.9001644849777222	7681849.696084934
1.9036977291107178	7165767.707693351
1.9072256088256836	7588308.213790634
1.9107483625411987	7620646.773316715
1.9142658710479736	7225004.530312663
1.9177782535552979	7401927.427464027
1.9212853908538818	7175678.579443916
1.9247875213623047	6512142.125395466
1.9282845258712769	5902156.827563111
1.9317764043807983	5274579.225037703
1.9352631568908691	4765613.793446087
1.9387450218200684	4267461.445154912
1.942221760749817	4444838.987709989
1.9456936120986938	5063795.237035581
1.9491604566574097	5407728.795830801
1.952622413635254	5410969.175116697
1.956079363822937	5159739.108607737
1.959531545639038	5275797.287118585
1.962978720664978	5651617.895623664
1.966421127319336	6194577.080985144
1.9698586463928223	6665838.419203568
1.9732913970947266	6633860.698512419
1.9767193794250488	6779318.085224359
1.9801424741744995	7082258.100256183
1.9835609197616577	7500173.292232555
1.9869745969772339	7979451.514615052
1.990383505821228	8137403.980820138
1.9937876462936401	8896232.545401381
1.9971871376037598	9671601.611168867
2.000581979751587	10098209.911435688
2.003972291946411	10640139.38000331
2.007357597351074	10675670.403335338
2.0107386112213135	11110452.02565803
2.0141148567199707	11954436.314182602
2.017486572265625	12146177.13859666
2.0208535194396973	13197573.920099005
2.0242159366607666	14604693.798244618
2.027573823928833	14485034.14098943
2.0309269428253174	14672227.976554299
2.034275770187378	16026314.740746923
2.0376198291778564	16841999.056395166
2.040959596633911	16938306.642596204
2.044294595718384	17729283.270348154
2.0476250648498535	19042797.058391847
2.0509510040283203	19283404.627248786
2.054272413253784	19362998.48230051
2.057589530944824	20746966.60329221
2.0609018802642822	21442724.02221801
2.0642096996307373	21326476.29741476
2.0675129890441895	21870258.189966824
2.0708119869232178	22195680.113412008
2.074106216430664	22149989.083692446
2.0773961544036865	22243420.991512943
2.080681324005127	22486945.95292028
2.0839622020721436	22655748.796458624
2.087238311767578	22812534.06614174
2.090510129928589	23094041.540521454
2.0937774181365967	23117344.331358135
2.0970399379730225	22900144.956667203
2.1002981662750244	22518437.93131521
2.1035518646240234	22068905.291553352
2.1068007946014404	21656850.15587626
2.1100454330444336	21314587.130378835
2.1132853031158447	21295398.86196694
2.116520881652832	20935316.14947799
2.1197516918182373	20403280.299354296
2.1229779720306396	20360342.333975676
2.12619948387146	20211493.905232947
2.1294167041778564	19761583.16023196
2.132629156112671	19522768.519343052
2.1358368396759033	19218632.165829908
2.139039993286133	18253985.227356553
2.1422386169433594	16758872.878985139
2.145432472229004	15458464.628281796
2.1486217975616455	15029540.311537117
2.151806354522705	14982493.129867604
2.1549863815307617	14755279.182735763
2.1581614017486572	14249041.108219082
2.16133189201355	13523229.788075304
2.1644976139068604	12882843.300340917
2.167658567428589	12249077.363190478
2.1708147525787354	11766543.414205646
2.173966407775879	11293728.612692602
2.1771130561828613	10594948.325361509
2.1802549362182617	9985363.29736231
2.183391809463501	9277315.195792956
2.1865241527557373	8391064.042076416
2.1896514892578125	7396518.992299226
2.1927738189697266	6187827.488711178
2.1958916187286377	4696314.1404837165
2.1990041732788086	3170217.2216439056
2.2021119594573975	2206102.5111886654
2.2052149772644043	1924877.593688818
2.208312749862671	2132847.48118652
2.2114057540893555	2674123.6451290525
2.214493751525879	3287657.8486611354
2.217576742172241	3699337.9413416064
2.2206547260284424	3832612.812544114
2.2237277030944824	3726402.8827528665
2.2267956733703613	3427039.1547520626
2.2298583984375	3133986.2107496816
2.2329163551330566	2958429.193771907
2.235969066619873	2816412.569852406
2.2390167713165283	2609729.1160594393
2.2420592308044434	2359522.1261968673
2.2450966835021973	2139869.0714629744
2.248128890991211	2001756.9491549183
2.2511560916900635	1936068.5218648883
2.254178285598755	1904561.7221740575
2.257194995880127	1892631.0650080247
2.260206699371338	1883494.7471493047
2.2632133960723877	1908856.0621677297
2.266214609146118	1922991.6724005572
2.2692108154296875	1892935.2505465723
2.2722020149230957	1871896.3435826367
2.2751877307891846	1841632.6809985265
2.278168201446533	1792737.4058600417
2.2811436653137207	1679056.674054684
2.284113883972168	1491567.999860334
2.287078857421875	1344374.174270903
2.290038824081421	1222630.4405763866
2.2929933071136475	1131824.271007738
2.295942783355713	1165393.3716069178
2.298887014389038	1335533.6192737264
2.301826238632202	1536995.8425967833
2.304760217666626	1827454.966873603
2.3076889514923096	2423915.076913558
2.310612440109253	3127147.078910351
2.3135311603546143	3231724.7779165925
2.3164443969726562	2284703.0110633615
2.319352865219116	1259325.4907522795
2.322256088256836	975442.2096505823
2.3251543045043945	943556.3464678241
2.328047275543213	937313.5449093067
2.330935478210449	1022975.1858735528
2.3338186740875244	1124213.461986435
2.3366971015930176	1207658.1158084376
2.3395702838897705	1273103.730404128
2.3424389362335205	1283127.8034493777
2.3453025817871094	1225871.8283596106
2.348161458969116	1208348.2646096526
2.351015567779541	1290308.082933206
2.353865146636963	1410585.6540008944
2.3567099571228027	1540293.5317172783
2.3595502376556396	1733554.887637192
2.3623859882354736	1968647.8046045771
2.3652172088623047	2129195.7514402764
2.368043899536133	1973195.5008562773
2.370866537094116	1416795.3973946692
2.3736846446990967	1087514.0494387934
2.3764986991882324	1145141.85513287
2.3793084621429443	1131155.7260735475
2.3821144104003906	1062968.5414930321
2.384916305541992	1217251.6739673002
2.387714147567749	1568049.1017432385
2.3905084133148193	1740364.0279162345
2.393299102783203	1738273.4778498376
2.3960859775543213	1840702.5723074786
2.398869514465332	2054048.7651132387
2.4016497135162354	2271895.8510472146
2.4044265747070312	2469515.216536675
2.407200336456299	2548240.959999351
2.409970998764038	2629480.8492665826
2.4127390384674072	2814944.9140813886
2.415503978729248	2790194.0814187382
2.418266534805298	2659773.0196677265
2.4210267066955566	2638825.6962643294
2.4237842559814453	2474779.2631784314
2.426539897918701	2341297.299341155
2.429293394088745	2564983.0638749795
2.4320452213287354	2826387.5147913806
2.4347951412200928	2766000.7852307106
2.4375438690185547	2866385.8763197255
2.440291166305542	3200749.420051086
2.443037271499634	3204236.6226660195
2.445782423019409	3061340.176223759
2.4485268592834473	3056356.2895299452
2.451270818710327	3058447.6497293655
2.454014539718628	3135969.672692818
2.4567582607269287	3455310.005999991
2.4595019817352295	3617454.396305595
2.4622461795806885	3787711.969628421
2.4649908542633057	4064198.6440888764
2.4677364826202393	3770703.9770838283
2.4704833030700684	3335391.2864839593
2.473231554031372	3222423.6380928583
2.4759814739227295	3368180.8805639553
2.4787333011627197	3544604.007480273
