#wavelength	surface flux
0.6450077295303345	241.633415984928
0.6472567915916443	380.0731621093229
0.6494921445846558	496.7461768843651
0.6517150402069092	571.311398504701
0.6539263725280762	648.0196772875598
0.6561272740364075	729.1741711024669
0.6583186388015747	816.3306855119295
0.6605015397071838	912.3504930774916
0.6626768708229065	1014.4822928710556
0.6648455858230591	1120.1762024043753
0.6670085787773132	1212.8333640929554
0.6691668033599854	1245.9497186317128
0.6713210344314575	1297.639375357567
0.6734722256660461	1473.0192221420336
0.6756211519241333	1652.6891388971858
0.6777685880661011	1762.2828667717386
0.6799154281616211	1852.3380400943017
0.6820623278617859	1931.969218662188
0.6842101216316223	2000.4351495697824
0.6863595843315125	2055.2982209817196
0.688511312007904	2084.9233352142246
0.6906660795211792	2050.9443953805867
0.6928245425224304	1974.727303315149
0.6949873566627502	1974.5032669025495
0.6971551775932312	2035.5284415285482
0.6993286609649658	2036.0799259587893
0.7015084028244019	1985.431229466797
0.7036949396133423	1946.6789478299174
0.7058889269828796	1922.9929432713952
0.7080909013748169	1897.883952965156
0.710301399230957	1863.8314937023133
0.712520956993103	1810.7759312444828
0.7147500514984131	1689.6604122017222
0.7169892191886902	1491.8415836237357
0.7192389369010925	1361.1717721522198
0.7214996814727783	1329.0886875525437
0.723771870136261	1269.2759411582622
0.7260559797286987	1189.243687717258
0.7283523678779602	1143.5680937966301
0.7306615710258484	1128.9162267764902
0.7329838871955872	1160.7707649806937
0.7353196740150452	1201.0991254518894
0.7376693487167358	1204.7270849013107
0.7400332689285278	1199.4562753146954
0.7424117922782898	1195.3817901333207
0.7448052167892456	1183.108229332641
0.7472138404846191	1154.475845117872
0.7496379613876343	1105.4774787108197
0.7520779371261597	1036.561290377084
0.7545340061187744	947.8634892901581
0.7570064663887024	838.5480971328484
0.7594954967498779	701.6581517741237
0.7620013952255249	526.0525000110351
0.7645244002342224	323.05942982981867
0.7670646905899048	181.13518636250305
0.7696225643157959	199.53671836000774
0.7721980810165405	405.1482194424727
0.7747915983200073	713.7857626676794
0.7774031162261963	956.191931608333
0.7800329327583313	1148.3637233224526
0.7826811671257019	1493.0148221875859
0.7853479981422424	1919.5080730162217
0.7880334854125977	2276.9258828864017
0.7907378077507019	2529.690961688646
0.7934610247612	2612.4547647631375
0.7962033748626709	2909.9759008367064
0.7989648580551147	3593.0196240862815
0.801745593547821	4229.687192953096
0.8045456409454346	4737.122281336614
0.8073651194572449	5155.437115699479
0.8102040886878967	5335.949815967291
0.8130625486373901	5415.66228366131
0.8159406185150146	5932.101953440585
0.8188382983207703	6975.678428240812
0.8217556476593018	7909.366536894442
0.8246926665306091	8917.740649780793
0.8276493549346924	10256.528569914864
0.8306257724761963	11490.685552396742
0.8336219191551208	12802.402043557211
0.8366377949714661	14453.179515535334
0.8396733403205872	16416.255571965907
0.8427285552024841	18714.905201633497
0.8458034992218018	21309.87400056622
0.8488980531692505	23488.626513698182
0.8520121574401855	25370.988585361752
0.8551458716392517	28812.910423560937
0.8582990765571594	32766.475710615512
0.8614717125892639	35489.48956767641
0.8646637797355652	38406.49558889715
0.8678751587867737	42572.91376113888
0.8711057901382446	47334.6069113259
0.8743556141853333	51446.44645409972
0.87762451171875	52796.07451696783
0.8809124231338501	48336.47736283744
0.8842192888259888	40862.72917716117
0.8875449895858765	36140.68579638379
0.8908893465995789	32942.59782135153
0.894252359867096	30271.607945763564
0.8976338505744934	36119.984052219756
0.9010337591171265	55132.02785786305
0.9044519662857056	77745.96339298676
0.9078882932662964	89247.23745578842
0.9113426208496094	89454.72771677822
0.914814829826355	87441.53938707468
0.9183048605918884	91158.9251556315
0.9218124747276306	95560.10368431687
0.925337553024292	75948.98274272379
0.9288799166679382	37570.4444362948
0.9324395060539246	16362.77075836755
0.9360161423683167	20372.886593852625
0.9396095871925354	32873.34535424342
0.943219780921936	37574.51315790285
0.9468464851379395	33716.78427384967
0.9504896402359009	30978.875044048564
0.9541489481925964	29516.65442810894
0.9578243494033813	28563.25146384103
0.9615156054496765	32529.12811584532
0.9652225375175476	47612.54331602801
0.9689450263977051	69201.251581905
0.9726828336715698	81735.6782600413
0.9764357805252075	87393.13463943927
0.9802037477493286	95167.71429196882
0.983986496925354	103236.14646541639
0.9877838492393494	114784.0381716979
0.9915955662727356	136790.86133349108
0.9954215884208679	170552.08716887096
0.9992615580558777	214449.3960332368
1.0031154155731201	262802.5951112486
1.0069829225540161	297935.000542653
1.0108637809753418	308313.5160972208
1.0147579908370972	298803.12485786097
1.018665075302124	281414.735763167
1.022585153579712	281828.5775027343
1.0265177488327026	308813.7459548116
1.0304628610610962	325411.2464463021
1.0344202518463135	323867.1181413791
1.0383895635604858	348368.34268123505
1.0423706769943237	396853.89708067913
1.0463634729385376	437677.94620596035
1.0503677129745483	474917.3767384293
1.0543830394744873	517423.28256445384
1.058409333229065	552404.4041685751
1.0624464750289917	571055.0414460154
1.0664942264556885	574331.522566627
1.0705522298812866	567089.4670162542
1.0746204853057861	565149.5220155601
1.0786986351013184	567340.5400053143
1.0827864408493042	557655.1477590409
1.086883783340454	514718.2066472242
1.0909905433654785	423666.19158425846
1.0951062440872192	309024.48512906826
1.0992310047149658	206681.20566176347
1.10336434841156	126734.68779664356
1.1075061559677124	71241.42862680671
1.1116561889648438	37235.45016434003
1.115814208984375	20052.51132493978
1.1199802160263062	15801.861708924413
1.124153733253479	17218.51624749385
1.1283347606658936	19592.653362960704
1.1325229406356812	19449.890835271908
1.1367181539535522	26542.42313371507
1.1409201622009277	38789.51958608435
1.145128846168518	37338.04808449242
1.1493438482284546	26977.546028205885
1.1535650491714478	18645.1787842464
1.1577922105789185	15049.296942066881
1.1620250940322876	15594.834370266888
1.1662636995315552	20937.605700969212
1.170507550239563	37661.00399067374
1.174756646156311	65546.98079530797
1.1790107488632202	101216.90825573397
1.1832695007324219	138302.62998220208
1.1875330209732056	168275.63259242583
1.191800832748413	198237.7220843941
1.1960728168487549	234119.5057239459
1.2003488540649414	269546.3976561056
1.2046287059783936	306073.98924447066
1.2089121341705322	335309.1801065606
1.2131990194320679	356208.9266253113
1.2174891233444214	382540.00221078057
1.2217823266983032	421687.40542802995
1.2260783910751343	487002.96457089914
1.230377197265625	571081.1738232406
1.2346785068511963	653612.3469058783
1.238982081413269	741823.5951705456
1.2432878017425537	841205.193596111
1.2475954294204712	930216.7923114818
1.2519049644470215	991081.8102178851
1.256216049194336	1057053.3637159413
1.2605286836624146	1149224.8226062385
1.2648425102233887	1216397.6630237326
1.2691574096679688	1206134.0302466112
1.2734732627868652	1111614.7535136626
1.2777899503707886	973473.4319641759
1.2821072340011597	820479.7192880205
1.2864248752593994	671997.0296701821
1.2907428741455078	572165.7422626923
1.2950609922409058	530383.2569852932
1.2993791103363037	501814.1620763554
1.303696870803833	454497.5632646787
1.3080145120620728	401648.10890141997
1.3123314380645752	336767.6515598148
1.3166478872299194	289991.4164073368
1.3209635019302368	287562.86499530694
1.3252781629562378	261815.18229186742
1.3295916318893433	171690.50732880886
1.3339040279388428	74847.58171343096
1.3382149934768677	26349.31169114147
1.3425244092941284	9252.233207368596
1.3468321561813354	2816.623127404464
1.3511382341384888	1111.850527516339
1.3554422855377197	437.1417510678736
1.3597444295883179	232.0943058809314
1.3640443086624146	325.49237844141396
1.3683418035507202	472.78721265004134
1.3726370334625244	899.6859887164379
1.3769296407699585	1481.4525565987649
1.381219506263733	1295.2027743616768
1.3855066299438477	787.4714383566017
1.3897908926010132	792.0954535783012
1.3940720558166504	931.2440095744273
1.3983501195907593	1026.403009621053
1.4026249647140503	1160.2332684689661
1.4068963527679443	1264.7210662163473
1.4111642837524414	1484.2237807174713
1.4154287576675415	1792.4274351136808
1.419689416885376	1931.029162479307
1.4239463806152344	2758.6280248126113
1.4281994104385376	5305.425716021281
1.4324485063552856	7168.771701695969
1.436693549156189	7288.245657256992
1.440934419631958	8806.17407668215
1.4451709985733032	13294.8951238772
1.449403166770935	20747.53958419253
1.453631043434143	28288.688921605775
1.4578542709350586	32698.216362249153
1.4620729684829712	29771.92178724255
1.4662868976593018	20760.282017449947
1.4704961776733398	12248.155973829815
1.4747005701065063	7605.699997226252
1.4788999557495117	7513.460577694178
1.4830944538116455	8799.49867687263
1.4872838258743286	9139.961521192154
1.491468071937561	8860.18859309421
1.4956470727920532	10388.27947486166
1.4998208284378052	14698.45704241039
1.5039892196655273	17260.942439842187
1.5081522464752197	14325.581646550232
1.5123097896575928	9059.11158133281
1.5164618492126465	9080.687487548767
1.5206083059310913	16817.927896982488
1.5247491598129272	25892.95084366528
1.5288842916488647	33872.486898659845
1.5330137014389038	41757.54189977081
1.5371372699737549	48119.76040747625
1.541254997253418	56151.938722964245
1.545366883277893	66828.43563914513
1.5494728088378906	81605.00954950348
1.5535727739334106	111437.7701154999
1.5576666593551636	160467.55855247294
1.561754584312439	234161.1220894133
1.5658363103866577	331217.48633497406
1.5699119567871094	411694.29392990837
1.5739814043045044	464702.19564190303
1.5780447721481323	526978.150265826
1.582101821899414	596777.1592098091
1.5861525535583496	644229.9076050106
1.5901970863342285	655554.8842842832
1.5942351818084717	638988.3756436014
1.5982669591903687	596671.848513566
1.6022924184799194	518311.37872468354
1.606311559677124	422219.8140042219
1.6103241443634033	331215.40051323327
1.6143304109573364	236380.80966985854
1.6183301210403442	151426.2921204296
1.6223233938217163	106450.29305742247
1.6263102293014526	90421.56626518237
1.6302905082702637	87435.99871835884
1.634264349937439	100300.96356883964
1.638231635093689	124372.90735339466
1.6421923637390137	132815.1374571986
1.646146535873413	112166.7380866982
1.6500942707061768	105110.89623454912
1.6540353298187256	115499.80204054044
1.6579699516296387	126648.4173419177
1.661897897720337	133455.98399497737
1.6658192873001099	84750.49032536583
1.6697341203689575	31026.080903664777
1.6736423969268799	34500.02115357933
1.677544116973877	45604.06594022564
1.6814392805099487	40960.25829333753
1.6853278875350952	35639.89423109592
1.6892099380493164	29983.155738655827
1.6930854320526123	21328.180613772343
1.696954369544983	14674.140201102178
1.7008168697357178	10774.001307201028
1.7046726942062378	10915.984874577627
1.708522081375122	18609.948634090913
1.712364912033081	31494.24439043293
1.7162011861801147	49363.580359356776
1.7200311422348022	62136.519227804674
1.723854422569275	55458.81667375892
1.7276713848114014	47294.36120640296
1.731481909751892	49420.44035451323
1.7352858781814575	57513.737480881384
1.7390835285186768	74805.0251309508
1.7428747415542603	94920.41546080235
1.7466596364974976	107421.50562633845
1.7504380941390991	107471.04694654985
1.7542102336883545	89611.01223319372
1.7579760551452637	67184.57164971904
1.7617355585098267	56255.5654849697
1.7654887437820435	51977.87585224818
1.7692357301712036	46894.2123613679
1.7729763984680176	39793.337789975056
1.776710867881775	39962.2072605966
1.7804391384124756	45337.31552134526
1.7841613292694092	40306.69209359248
1.7878772020339966	30371.842879001433
1.7915871143341064	22106.12752157751
1.7952908277511597	18589.40895992169
1.7989884614944458	20961.043947006863
1.8026801347732544	16163.587252843467
1.806365728378296	10712.0133485115
1.8100452423095703	10598.01403169586
1.8137187957763672	9589.407617293102
1.817386507987976	8102.4747919247875
1.8210482597351074	10735.681839693509
1.8247040510177612	14386.51849263046
1.828354001045227	10004.27591045936
1.8319982290267944	4337.27195614282
1.8356364965438843	2941.2519214135473
1.8392690420150757	3429.4821333811456
1.8428958654403687	7418.832531682969
1.8465168476104736	10114.743365902428
1.8501322269439697	9778.872433362549
1.8537418842315674	9215.207805444514
1.8573459386825562	7304.168573504726
1.860944390296936	5342.365909365756
1.864537239074707	3937.4343730342675
1.8681244850158691	2334.5441486903946
1.871706247329712	1734.975538183392
1.8752825260162354	4908.827749421915
1.8788533210754395	12939.349865240989
1.8824186325073242	18509.635537586346
1.8859784603118896	17193.330016969554
1.8895330429077148	14669.98002607461
1.8930821418762207	16840.81756637492
1.8966259956359863	18529.513091377878
1.9001644849777222	11930.990078975712
1.9036977291107178	5952.735442227796
1.9072256088256836	5940.330538153724
1.9107483625411987	5536.409364540128
1.9142658710479736	4133.65826389774
1.9177782535552979	4137.813025309647
1.9212853908538818	4311.419184149633
1.9247875213623047	3652.9879435837615
1.9282845258712769	2805.445570104511
1.9317764043807983	2293.2424892571316
1.9352631568908691	2102.884358007833
1.9387450218200684	1913.7612582093923
1.942221760749817	2267.3619691201006
1.9456936120986938	2998.660867672205
1.9491604566574097	3163.362730067127
1.952622413635254	3074.5303525998834
1.956079363822937	4156.130091945799
1.959531545639038	6159.517123540776
1.962978720664978	7173.11386187003
1.966421127319336	7624.3128388336445
1.9698586463928223	7470.026842636859
1.9732913970947266	7649.077575910379
1.9767193794250488	9972.469417320915
1.9801424741744995	10045.388133852284
1.9835609197616577	9011.211661616142
1.9869745969772339	11247.557380367278
1.990383505821228	14096.492598593615
1.9937876462936401	19000.64497568669
1.9971871376037598	26072.403839291237
2.000581979751587	28630.29793410959
2.003972291946411	26373.644415723487
2.007357597351074	26575.73730316656
2.0107386112213135	28034.01813791502
2.0141148567199707	25629.06320651519
2.017486572265625	20918.95570211343
2.0208535194396973	19748.8878556798
2.0242159366607666	24502.21555513507
2.027573823928833	29200.5537618499
2.0309269428253174	33628.56743706627
2.034275770187378	38790.7758140526
2.0376198291778564	40834.2918658594
2.040959596633911	42912.64934426849
2.044294595718384	50684.58350506362
2.0476250648498535	59298.16166552406
2.0509510040283203	65236.89149697628
2.054272413253784	71971.39144749357
2.057589530944824	80464.23807900792
2.0609018802642822	89298.57610088201
2.0642096996307373	97294.18263039965
2.0675129890441895	104704.10508387808
2.0708119869232178	111941.4783816047
2.074106216430664	119525.89566396721
2.0773961544036865	125657.06872306044
2.080681324005127	130113.16190592093
2.0839622020721436	135983.115677298
2.087238311767578	141480.88679051513
2.090510129928589	146246.19034210665
2.0937774181365967	148407.94148910014
2.0970399379730225	147035.34288986132
2.1002981662750244	145286.90945063776
2.1035518646240234	145550.43838263382
2.1068007946014404	145404.8115252781
2.1100454330444336	142200.54864297167
2.1132853031158447	140182.35980175124
2.116520881652832	136313.21237774653
2.1197516918182373	130611.71843315904
2.1229779720306396	126495.92827266766
2.12619948387146	122589.14989082512
2.1294167041778564	119200.17640197091
2.132629156112671	116635.11053419905
2.1358368396759033	113866.53702077518
2.139039993286133	108371.89545694717
2.1422386169433594	96344.58146804835
2.145432472229004	83979.09057382
2.1486217975616455	78032.7850358378
2.151806354522705	73421.96889904229
2.1549863815307617	67235.47787609346
2.1581614017486572	61224.311858458066
2.16133189201355	53406.29034064575
2.1644976139068604	46173.59407047374
2.167658567428589	41367.81368242022
2.1708147525787354	38263.618924212475
2.173966407775879	37579.844748949385
2.1771130561828613	34988.029521904034
2.1802549362182617	31018.259367148243
2.183391809463501	28321.08614462007
2.1865241527557373	26553.56822606857
2.1896514892578125	22261.52961710639
2.1927738189697266	14533.867592279805
2.1958916187286377	7567.996487585843
2.1990041732788086	3215.5555422076427
2.2021119594573975	1416.9199424051876
2.2052149772644043	2028.347101195613
2.208312749862671	4012.979798345461
2.2114057540893555	5459.246839130477
2.214493751525879	5680.627397882418
2.217576742172241	5596.847216506802
2.2206547260284424	5059.307817002776
2.2237277030944824	4271.498764258724
2.2267956733703613	3548.6518335256746
2.2298583984375	2693.6181308171444
2.2329163551330566	2458.916818341737
2.235969066619873	2488.9861151791765
2.2390167713165283	1981.7597301715773
2.2420592308044434	1589.0162123335601
2.2450966835021973	1400.5075220270473
2.248128890991211	1058.9213491930007
2.2511560916900635	851.0894889569205
2.254178285598755	751.9941001650243
2.257194995880127	660.768825087513
2.260206699371338	676.439023467442
2.2632133960723877	724.7801299358321
2.266214609146118	808.162899994522
2.2692108154296875	983.343402603361
2.2722020149230957	1226.8812066251326
2.2751877307891846	1264.366007766132
2.278168201446533	1204.2662230728374
2.2811436653137207	1159.3808600080388
2.284113883972168	907.0904401336895
2.287078857421875	734.0778463668895
2.290038824081421	680.9332382375709
2.2929933071136475	595.8123914056027
2.295942783355713	578.6561738739396
2.298887014389038	655.1429217104826
2.301826238632202	788.5269350060955
2.304760217666626	1170.703150239669
2.3076889514923096	2655.530048723653
2.310612440109253	5324.0295073506995
2.3135311603546143	5972.141506914622
2.3164443969726562	3152.738383947786
2.319352865219116	737.5156099989072
2.322256088256836	467.26011636958356
2.3251543045043945	700.8666290034379
2.328047275543213	739.4665353035418
2.330935478210449	731.1825238005405
2.3338186740875244	801.1094816080027
2.3366971015930176	822.8708111636439
2.3395702838897705	803.772638355743
2.3424389362335205	855.7777759225702
2.3453025817871094	799.4188365814364
2.348161458969116	736.1262616903007
2.351015567779541	901.4012700973525
2.353865146636963	1141.439897805316
2.3567099571228027	1539.9511989897587
2.3595502376556396	2383.90711130508
2.3623859882354736	3137.001629104704
2.3652172088623047	2986.228914396551
2.368043899536133	2029.4859302541722
2.370866537094116	986.5672091206577
2.3736846446990967	669.5857189310343
2.3764986991882324	1210.8149050794516
2.3793084621429443	1775.7898214150878
2.3821144104003906	1777.86703449895
2.384916305541992	1906.0199876895733
2.387714147567749	2564.7257232749457
2.3905084133148193	2897.878001852124
2.393299102783203	2669.834523217946
2.3960859775543213	2624.687198834785
2.398869514465332	3313.4971425171443
2.4016497135162354	4305.207820602541
2.4044265747070312	4888.012052550645
2.407200336456299	5234.955159329974
2.409970998764038	7259.86544242652
2.4127390384674072	9839.089453693105
2.415503978729248	8805.795848048292
2.418266534805298	6290.0897723399
2.4210267066955566	5645.10818118916
2.4237842559814453	5000.880952244425
2.426539897918701	4868.59060447326
2.429293394088745	7263.32685598022
2.4320452213287354	9265.219792977034
2.4347951412200928	9162.30745869375
2.4375438690185547	11510.021820566482
2.440291166305542	15734.45324747033
2.443037271499634	16360.565181090762
2.445782423019409	14330.684216646623
2.4485268592834473	13366.213805667661
2.451270818710327	14088.0855847614
2.454014539718628	16397.50219439323
2.4567582607269287	19789.92084641151
2.4595019817352295	22646.871703155382
2.4622461795806885	25964.915451506255
2.4649908542633057	30418.777692424992
2.4677364826202393	30039.764109994157
2.4704833030700684	25833.581793310306
2.473231554031372	24100.870937635962
2.4759814739227295	25707.957104465415
2.4787333011627197	26459.455470568133
2.481487512588501	26226.805750809363
2.4842441082000732	30673.604721884778
