#wavelength	surface flux
0.6450077295303345	156407.45912274715
0.6472567915916443	249480.66612501646
0.6494921445846558	332870.92296262697
0.6517150402069092	392233.08463420684
0.6539263725280762	455688.14407421136
0.6561272740364075	524724.9671648626
0.6583186388015747	599063.8520455512
0.6605015397071838	677193.1030874146
0.6626768708229065	754601.3190474595
0.6648455858230591	816951.4472878479
0.6670085787773132	807480.6119690335
0.6691668033599854	661400.6714331203
0.6713210344314575	593095.791020485
0.6734722256660461	842637.4640522716
0.6756211519241333	1175341.8953179736
0.6777685880661011	1374973.324445617
0.6799154281616211	1505529.7790905084
0.6820623278617859	1616167.7473080878
0.6842101216316223	1714146.8779437998
0.6863595843315125	1797362.7035065417
0.688511312007904	1862585.397138783
0.6906660795211792	1897349.2727344218
0.6928245425224304	1907556.8940681682
0.6949873566627502	1933250.297155944
0.6971551775932312	1970820.610380456
0.6993286609649658	1975199.363612346
0.7015084028244019	1946604.3387910214
0.7036949396133423	1898148.3118043775
0.7058889269828796	1825367.879901504
0.7080909013748169	1741153.540655299
0.710301399230957	1657463.2637339912
0.712520956993103	1568366.2392561452
0.7147500514984131	1465889.0453059901
0.7169892191886902	1354864.4378467586
0.7192389369010925	1253400.457392088
0.7214996814727783	1157765.6356100447
0.723771870136261	1054240.5397546615
0.7260559797286987	947964.1944798104
0.7283523678779602	846392.8562587523
0.7306615710258484	749415.4528913237
0.7329838871955872	657636.7690286253
0.7353196740150452	571062.7994375331
0.7376693487167358	488199.06038737914
0.7400332689285278	410842.98609225795
0.7424117922782898	340081.836211296
0.7448052167892456	276202.1509298984
0.7472138404846191	219090.71896782774
0.7496379613876343	168521.53333507228
0.7520779371261597	124693.96468493264
0.7545340061187744	87832.93274264644
0.7570064663887024	58032.52988507858
0.7594954967498779	35233.96985427336
0.7620013952255249	18988.380219617102
0.7645244002342224	8560.247650446889
0.7670646905899048	3658.8311872935637
0.7696225643157959	4087.595544525422
0.7721980810165405	10937.868309180834
0.7747915983200073	25691.699834640134
0.7774031162261963	45714.20473416588
0.7800329327583313	75529.34291069821
0.7826811671257019	130430.80303970032
0.7853479981422424	207037.20907141778
0.7880334854125977	295036.23556825763
0.7907378077507019	376723.2595934001
0.7934610247612	431424.8096491978
0.7962033748626709	559822.4061132739
0.7989648580551147	809847.1541424259
0.801745593547821	1071920.4867504092
0.8045456409454346	1323532.7753193325
0.8073651194572449	1596873.5401660553
0.8102040886878967	1892536.0221760736
0.8130625486373901	2219710.8412125595
0.8159406185150146	2568173.5087809656
0.8188382983207703	2946772.6671176874
0.8217556476593018	3456929.609677656
0.8246926665306091	4086173.9660350876
0.8276493549346924	4729080.110235219
0.8306257724761963	5389085.887035319
0.8336219191551208	6105406.079917882
0.8366377949714661	6887808.834616195
0.8396733403205872	7731664.3668576535
0.8427285552024841	8605125.13695263
0.8458034992218018	9401230.664257575
0.8488980531692505	9618906.683449935
0.8520121574401855	9658248.74362631
0.8551458716392517	11275067.782869395
0.8582990765571594	13002723.7699383
0.8614717125892639	12200012.27007377
0.8646637797355652	10998378.129301677
0.8678751587867737	11488509.743667264
0.8711057901382446	12339378.832153792
0.8743556141853333	13323892.539572297
0.87762451171875	14825203.829957077
0.8809124231338501	16372086.168769753
0.8842192888259888	18038685.629720178
0.8875449895858765	19509218.584975183
0.8908893465995789	19516265.85778947
0.894252359867096	19122663.683449246
0.8976338505744934	22258519.93645203
0.9010337591171265	27717084.47076055
0.9044519662857056	32083661.052413147
0.9078882932662964	35525632.31881686
0.9113426208496094	38694923.22974779
0.914814829826355	41772983.55473346
0.9183048605918884	44589474.730759144
0.9218124747276306	45522984.87175861
0.925337553024292	41323742.935454294
0.9288799166679382	34109569.497627944
0.9324395060539246	31768354.116628416
0.9360161423683167	35655408.07384133
0.9396095871925354	41158296.0781758
0.943219780921936	44916921.62604076
0.9468464851379395	46394114.875352204
0.9504896402359009	47051224.934007704
0.9541489481925964	46981008.98481136
0.9578243494033813	46246677.59516774
0.9615156054496765	46701513.97763867
0.9652225375175476	49803541.45079228
0.9689450263977051	54307629.26485652
0.9726828336715698	58159694.43177442
0.9764357805252075	62068788.041424245
0.9802037477493286	66688683.533802286
0.983986496925354	71131202.19469754
0.9877838492393494	72523242.9160154
0.9915955662727356	68332452.18953474
0.9954215884208679	61549983.83287208
0.9992615580558777	52416011.62277129
1.0031154155731201	45977260.91264779
1.0069829225540161	47822010.61996285
1.0108637809753418	53834487.850923054
1.0147579908370972	61353517.62666907
1.018665075302124	69498409.21418795
1.022585153579712	76339550.52128395
1.0265177488327026	80716151.1139757
1.0304628610610962	86162071.17960182
1.0344202518463135	94671269.86391708
1.0383895635604858	102954317.68233998
1.0423706769943237	108268698.31947409
1.0463634729385376	110407724.13241874
1.0503677129745483	109902212.01053171
1.0543830394744873	109320263.06625408
1.058409333229065	111285927.85337378
1.0624464750289917	116104916.38078837
1.0664942264556885	122902466.06698768
1.0705522298812866	130865362.81376846
1.0746204853057861	140052648.35921705
1.0786986351013184	149251801.40745285
1.0827864408493042	155794610.9133553
1.086883783340454	154177331.69444337
1.0909905433654785	140058829.1221293
1.0951062440872192	118910096.336858
1.0992310047149658	99465903.13180228
1.10336434841156	82799805.10826954
1.1075061559677124	68179952.50373572
1.1116561889648438	57556225.585416794
1.115814208984375	53102982.75263263
1.1199802160263062	54197607.48574445
1.124153733253479	59441535.51103903
1.1283347606658936	61771471.080029555
1.1325229406356812	53076408.810671166
1.1367181539535522	45251124.72770055
1.1409201622009277	49081856.24470383
1.145128846168518	59273965.5210036
1.1493438482284546	67176133.59169072
1.1535650491714478	67721671.12990195
1.1577922105789185	65903082.47816071
1.1620250940322876	63609489.20339929
1.1662636995315552	57461229.59699163
1.170507550239563	52115472.99206814
1.174756646156311	49378237.39929117
1.1790107488632202	51246726.46082464
1.1832695007324219	63277517.22085243
1.1875330209732056	78799940.38720159
1.191800832748413	91514416.03208755
1.1960728168487549	102233893.05473803
1.2003488540649414	111835733.9063467
1.2046287059783936	122773863.5455741
1.2089121341705322	134023111.10498175
1.2131990194320679	144742138.51473972
1.2174891233444214	155621503.0997001
1.2217823266983032	165576544.1397472
1.2260783910751343	176369092.86301953
1.230377197265625	186049419.41325557
1.2346785068511963	189902496.9878184
1.238982081413269	180870032.9598244
1.2432878017425537	165182823.30950096
1.2475954294204712	156877000.03713882
1.2519049644470215	151872816.4129378
1.256216049194336	170269055.59380808
1.2605286836624146	204063367.44217563
1.2648425102233887	219130142.0822624
1.2691574096679688	223731363.5516862
1.2734732627868652	225092841.46461493
1.2777899503707886	224824346.5774398
1.2821072340011597	221815514.8665278
1.2864248752593994	212766488.39540282
1.2907428741455078	205163791.03888452
1.2950609922409058	203825054.93739504
1.2993791103363037	202851505.5766753
1.303696870803833	199613380.64440793
1.3080145120620728	193412551.4876846
1.3123314380645752	183052066.17151237
1.3166478872299194	171375748.55016863
1.3209635019302368	157349158.33414197
1.3252781629562378	132717826.57361056
1.3295916318893433	92620852.40186091
1.3339040279388428	49555678.35547865
1.3382149934768677	23490937.390667494
1.3425244092941284	14789714.30258805
1.3468321561813354	11724835.0153204
1.3511382341384888	9565607.835056512
1.3554422855377197	8167005.154140268
1.3597444295883179	8227842.922186223
1.3640443086624146	9653218.042756604
1.3683418035507202	10662266.90913427
1.3726370334625244	11204483.29278137
1.3769296407699585	12548656.991578242
1.381219506263733	13071024.786980303
1.3855066299438477	12544213.790466765
1.3897908926010132	12149337.658125017
1.3940720558166504	11442619.077294575
1.3983501195907593	10926913.357390076
1.4026249647140503	11077440.206867497
1.4068963527679443	10716447.703000737
1.4111642837524414	9986245.264396494
1.4154287576675415	9926410.508924523
1.419689416885376	9835748.21309298
1.4239463806152344	9665703.134613577
1.4281994104385376	10369223.07750373
1.4324485063552856	11487345.052144801
1.436693549156189	12285665.466713918
1.440934419631958	12931264.213998267
1.4451709985733032	13942594.48887957
1.449403166770935	16328087.065360485
1.453631043434143	19270234.442951743
1.4578542709350586	21212524.72434144
1.4620729684829712	21920476.80310168
1.4662868976593018	21942072.112523004
1.4704961776733398	22198902.005947076
1.4747005701065063	23430536.948503725
1.4788999557495117	25162516.86097278
1.4830944538116455	26440811.24321467
1.4872838258743286	27694223.713189926
1.491468071937561	29115495.918017987
1.4956470727920532	30627926.962304268
1.4998208284378052	32533256.391234912
1.5039892196655273	34939092.5507286
1.5081522464752197	37980937.70166649
1.5123097896575928	41447927.57384083
1.5164618492126465	44014679.67496618
1.5206083059310913	46370065.21022835
1.5247491598129272	49256192.052380465
1.5288842916488647	52196611.4686602
1.5330137014389038	55759131.56054418
1.5371372699737549	59018370.6986713
1.541254997253418	61714603.3982104
1.545366883277893	65487632.45996694
1.5494728088378906	69046454.7760286
1.5535727739334106	70545594.61159155
1.5576666593551636	71848258.91598076
1.561754584312439	76394896.46016972
1.5658363103866577	83171128.80102655
1.5699119567871094	87817279.76042157
1.5739814043045044	90279722.47694853
1.5780447721481323	92302509.26498578
1.582101821899414	94624736.6177071
1.5861525535583496	96976919.77893396
1.5901970863342285	98049014.62999742
1.5942351818084717	98491663.02083771
1.5982669591903687	98452647.01932219
1.6022924184799194	96465645.57272129
1.606311559677124	93564327.13438077
1.6103241443634033	91452952.68852146
1.6143304109573364	89068633.88290817
1.6183301210403442	86431634.17019902
1.6223233938217163	86123860.50956061
1.6263102293014526	87713822.41831559
1.6302905082702637	89521854.11984585
1.634264349937439	92868425.47117622
1.638231635093689	97762093.45383468
1.6421923637390137	99877310.15946287
1.646146535873413	98514557.61667895
1.6500942707061768	98103245.12476979
1.6540353298187256	95847303.4381306
1.6579699516296387	92689842.71008047
1.661897897720337	88087232.72210309
1.6658192873001099	66544684.8482579
1.6697341203689575	49368590.09328037
1.6736423969268799	61861555.16970085
1.677544116973877	78022374.95614491
1.6814392805099487	80312735.40433188
1.6853278875350952	75957140.26759963
1.6892099380493164	69979553.21478923
1.6930854320526123	63843173.63725682
1.696954369544983	58209014.98669411
1.7008168697357178	54879537.11768785
1.7046726942062378	54441651.19403712
1.708522081375122	55557639.39014123
1.712364912033081	55368124.60644837
1.7162011861801147	53924488.44980477
1.7200311422348022	53228374.00882721
1.723854422569275	51319379.390278526
1.7276713848114014	48117245.4375035
1.731481909751892	45184246.29018592
1.7352858781814575	42942328.03176537
1.7390835285186768	42002042.006991245
1.7428747415542603	41445974.37606488
1.7466596364974976	40120116.30978698
1.7504380941390991	38277699.23153546
1.7542102336883545	35480797.426604606
1.7579760551452637	32864784.664820537
1.7617355585098267	31624763.516975395
1.7654887437820435	29787400.028711647
1.7692357301712036	26960920.161848653
1.7729763984680176	24669228.934110045
1.776710867881775	23432270.910463862
1.7804391384124756	22802851.495769117
1.7841613292694092	21242946.74165693
1.7878772020339966	19699411.524316587
1.7915871143341064	18394216.9447184
1.7952908277511597	17595154.91588087
1.7989884614944458	17434997.330564674
1.8026801347732544	15967286.453909922
1.806365728378296	15118592.300931841
1.8100452423095703	15758179.028078858
1.8137187957763672	16702847.075674772
1.817386507987976	15989307.656425864
1.8210482597351074	15285187.135917492
1.8247040510177612	16676933.837248357
1.828354001045227	16657718.178503634
1.8319982290267944	15281383.183601582
1.8356364965438843	14422628.674176123
1.8392690420150757	14257663.310277527
1.8428958654403687	14404900.367897976
1.8465168476104736	13768564.123456506
1.8501322269439697	13382490.431668364
1.8537418842315674	13041800.205837272
1.8573459386825562	11297309.59672019
1.860944390296936	9840855.125736248
1.864537239074707	9840618.503260018
1.8681244850158691	10400591.476344502
1.871706247329712	11311476.42783395
1.8752825260162354	12842346.118748222
1.8788533210754395	15151552.080712631
1.8824186325073242	17454354.228437133
1.8859784603118896	18479283.23492415
1.8895330429077148	18564639.40374679
1.8930821418762207	19476006.676847726
1.8966259956359863	20791204.918192215
1.9001644849777222	20607917.374698054
1.9036977291107178	19976424.852902114
1.9072256088256836	20701980.815084267
1.9107483625411987	20935147.341289196
1.9142658710479736	20417572.082224887
1.9177782535552979	20638287.352167834
1.9212853908538818	19980668.804243814
1.9247875213623047	18792245.632282894
1.9282845258712769	17783564.7578565
1.9317764043807983	16454154.760824675
1.9352631568908691	15076057.815637494
1.9387450218200684	13547198.725366866
1.942221760749817	13678202.728647245
1.9456936120986938	15175253.657673042
1.9491604566574097	16048730.406784989
1.952622413635254	15919870.461668933
1.956079363822937	15147471.496273056
1.959531545639038	15239676.418970773
1.962978720664978	15871822.985390604
1.966421127319336	16885117.506791994
1.9698586463928223	17889549.495921295
1.9732913970947266	17653088.549041107
1.9767193794250488	17580285.459223077
1.9801424741744995	18015200.023976326
1.9835609197616577	18758182.541065615
1.9869745969772339	19591992.711295903
1.990383505821228	19714050.27400609
1.9937876462936401	20915679.73381484
1.9971871376037598	22126095.116904303
2.000581979751587	22801106.363428857
2.003972291946411	23916037.91474478
2.007357597351074	23941360.799386647
2.0107386112213135	24511272.6273264
2.0141148567199707	26158131.26535091
2.017486572265625	26762276.34098425
2.0208535194396973	28556362.536687426
2.0242159366607666	30796593.13257964
2.027573823928833	30387550.868273303
2.0309269428253174	30664494.679344986
2.034275770187378	32981968.861690152
2.0376198291778564	34394532.48317102
2.040959596633911	34644846.37062743
2.044294595718384	35763112.474384665
2.0476250648498535	37688867.58716395
2.0509510040283203	38147808.09301432
2.054272413253784	38360169.69462899
2.057589530944824	40730922.43349244
2.0609018802642822	41863379.33057527
2.0642096996307373	41601736.00011168
2.0675129890441895	42732943.52828911
2.0708119869232178	43380837.46908925
2.074106216430664	43212654.083474815
2.0773961544036865	43511289.09922228
2.080681324005127	44072109.774295494
2.0839622020721436	44438827.25779743
2.087238311767578	44874015.16931644
2.090510129928589	45556765.3041153
2.0937774181365967	45833654.620510064
2.0970399379730225	45757135.50504738
2.1002981662750244	45483111.52670733
2.1035518646240234	45048563.53396675
2.1068007946014404	44589825.170743965
2.1100454330444336	44308511.60976787
2.1132853031158447	44619763.825323686
2.116520881652832	44264913.67692581
2.1197516918182373	43624579.38873469
2.1229779720306396	43881618.00245736
2.12619948387146	43785902.72475589
2.1294167041778564	43026779.66939078
2.132629156112671	42792505.99428979
2.1358368396759033	42496442.77678817
2.139039993286133	40982624.20312797
2.1422386169433594	38870962.99487914
2.145432472229004	37237433.3172576
2.1486217975616455	36572151.18030509
2.151806354522705	36327350.85285175
2.1549863815307617	36034171.132633045
2.1581614017486572	35362224.019086644
2.16133189201355	34297037.41072433
2.1644976139068604	33327691.1495712
2.167658567428589	32249316.115372207
2.1708147525787354	31219379.372783568
2.173966407775879	30044106.007419176
2.1771130561828613	28497443.45344106
2.1802549362182617	27241224.314301144
2.183391809463501	25783400.60656103
2.1865241527557373	23805357.878605112
2.1896514892578125	21695200.539344948
2.1927738189697266	19254206.477190282
2.1958916187286377	15862167.845514162
2.1990041732788086	11962689.770733556
2.2021119594573975	9036916.835769061
2.2052149772644043	7607538.50547624
2.208312749862671	7740613.108941396
2.2114057540893555	9231497.082516383
2.214493751525879	11202011.648657715
2.217576742172241	12579906.35403145
2.2206547260284424	13064264.890434776
2.2237277030944824	12928920.221135715
2.2267956733703613	12203079.463961722
2.2298583984375	11431880.555126533
2.2329163551330566	10942709.881378874
2.235969066619873	10492765.926663162
2.2390167713165283	9939605.90222298
2.2420592308044434	9194498.451895831
2.2450966835021973	8473275.561198877
2.248128890991211	8101863.264382361
2.2511560916900635	7940390.235491382
2.254178285598755	7844826.470652999
2.257194995880127	7791400.443926445
2.260206699371338	7711456.453602168
2.2632133960723877	7718773.104951775
2.266214609146118	7643009.360511022
2.2692108154296875	7432607.868117882
2.2722020149230957	7311092.083077367
2.2751877307891846	7228999.874595901
2.278168201446533	6997097.7900201725
2.2811436653137207	6491510.652786364
2.284113883972168	5882577.570929469
2.287078857421875	5433070.350743233
2.290038824081421	4974466.495965737
2.2929933071136475	4574755.266709408
2.295942783355713	4628560.623699655
2.298887014389038	5171838.264580232
2.301826238632202	5838549.81461274
2.304760217666626	6724258.643481181
2.3076889514923096	8312256.258182337
2.310612440109253	9902350.270346966
2.3135311603546143	9901036.464157624
2.3164443969726562	7506397.922735892
2.319352865219116	4920978.109330209
2.322256088256836	4005919.8186833835
2.3251543045043945	3696320.9150209725
2.328047275543213	3571147.1560841193
2.330935478210449	3787612.937684362
2.3338186740875244	4076087.879270001
2.3366971015930176	4347201.895369697
2.3395702838897705	4608039.11110546
2.3424389362335205	4726558.851798793
2.3453025817871094	4651231.124721205
2.348161458969116	4639934.618475633
2.351015567779541	4863562.665990907
2.353865146636963	5262681.72775123
2.3567099571228027	5693746.530871903
2.3595502376556396	6158688.957506236
2.3623859882354736	6712480.228124823
2.3652172088623047	7197076.430720097
2.368043899536133	6842527.16760641
2.370866537094116	5268959.015510702
2.3736846446990967	4309148.674022885
2.3764986991882324	4407720.872290572
2.3793084621429443	4206163.712747068
2.3821144104003906	3860678.4665531986
2.384916305541992	4228250.098897584
2.387714147567749	5242558.581522109
2.3905084133148193	5800272.187912165
2.393299102783203	5869884.34367265
2.3960859775543213	6224453.691349596
2.398869514465332	6801684.125193446
2.4016497135162354	7288118.300042706
2.4044265747070312	7778922.540647121
2.407200336456299	7992164.3504404845
2.409970998764038	8076708.489420604
2.4127390384674072	8431072.709025795
2.415503978729248	8446797.33048737
2.418266534805298	8235760.986376847
2.4210267066955566	8193043.372572043
2.4237842559814453	7798915.5737129245
2.426539897918701	7421382.831877961
2.429293394088745	7807305.768864933
2.4320452213287354	8332826.7912813155
2.4347951412200928	8134762.806869556
2.4375438690185547	8302737.96560728
2.440291166305542	9001559.565873105
2.443037271499634	8883497.366921166
2.445782423019409	8494227.081875209
2.4485268592834473	8485353.882984553
2.451270818710327	8406388.601748345
2.454014539718628	8456206.815274626
2.4567582607269287	9218807.57924384
2.4595019817352295	9573951.712581495
2.4622461795806885	9854257.341312625
2.4649908542633057	10385999.079474557
2.4677364826202393	9589339.55018425
2.4704833030700684	8576841.187513934
2.473231554031372	8330200.200861844
2.4759814739227295	8678841.915910646
2.4787333011627197	9077358.906182824
2.481487512588501	9122099.128816562
