#wavelength	surface flux
0.6450077295303345	13672.586023947597
0.6472567915916443	21358.701365453617
0.6494921445846558	27497.140297641006
0.6517150402069092	31113.490035495455
0.6539263725280762	34803.05256380029
0.6561272740364075	38724.813676350466
0.6583186388015747	42908.534281289714
0.6605015397071838	47398.942171122304
0.6626768708229065	52178.29677657765
0.6648455858230591	57146.15541701465
0.6670085787773132	61056.65882267704
0.6691668033599854	61408.562396404115
0.6713210344314575	63575.63616798339
0.6734722256660461	73849.60508851623
0.6756211519241333	85168.26918813623
0.6777685880661011	92871.86125021306
0.6799154281616211	99750.43760697324
0.6820623278617859	106672.00039620647
0.6842101216316223	113642.08194796368
0.6863595843315125	120594.28717618903
0.688511312007904	127268.67500693895
0.6906660795211792	132872.26686984955
0.6928245425224304	137933.8226063674
0.6949873566627502	144579.9684808575
0.6971551775932312	152291.52734611087
0.6993286609649658	158721.57403951028
0.7015084028244019	163649.12642884304
0.7036949396133423	168373.30316511873
0.7058889269828796	173025.90275878413
0.7080909013748169	176811.95341687795
0.710301399230957	179604.51171370992
0.712520956993103	181054.89110101984
0.7147500514984131	179750.91875986086
0.7169892191886902	175392.92856264013
0.7192389369010925	171479.6019883019
0.7214996814727783	169396.6872849308
0.723771870136261	165636.98557679515
0.7260559797286987	159283.85296371204
0.7283523678779602	151798.3044528847
0.7306615710258484	143656.78731581056
0.7329838871955872	135384.87218070673
0.7353196740150452	126184.16665267239
0.7376693487167358	115304.37866801416
0.7400332689285278	103831.34258451825
0.7424117922782898	92050.02577250973
0.7448052167892456	79874.78295455514
0.7472138404846191	67797.99422582524
0.7496379613876343	56050.42961610287
0.7520779371261597	44887.035453434146
0.7545340061187744	34620.193906610686
0.7570064663887024	25428.292866106578
0.7594954967498779	17398.559126081043
0.7620013952255249	10543.90463936964
0.7645244002342224	5135.981128633486
0.7670646905899048	2089.3023065906955
0.7696225643157959	2192.5234892159947
0.7721980810165405	6145.964337168631
0.7747915983200073	13833.249014779145
0.7774031162261963	23230.6120548002
0.7800329327583313	34778.96382157208
0.7826811671257019	52878.43503966705
0.7853479981422424	77009.00846230754
0.7880334854125977	103060.72106398025
0.7907378077507019	119817.5253489842
0.7934610247612	119945.44865388914
0.7962033748626709	152048.68490125675
0.7989648580551147	232256.84005167472
0.801745593547821	307769.71490298555
0.8045456409454346	369022.6319394179
0.8073651194572449	428421.0430165131
0.8102040886878967	483647.4449934334
0.8130625486373901	543936.5933719752
0.8159406185150146	624445.5056574815
0.8188382983207703	720362.645898938
0.8217556476593018	820119.8135417063
0.8246926665306091	927154.2966092679
0.8276493549346924	1043060.3159988679
0.8306257724761963	1161814.2184444692
0.8336219191551208	1281593.7436402699
0.8366377949714661	1406884.253400292
0.8396733403205872	1548134.4821504336
0.8427285552024841	1714084.0507277711
0.8458034992218018	1891067.1560000528
0.8488980531692505	1973376.852338143
0.8520121574401855	2010291.846498765
0.8551458716392517	2310808.7195190224
0.8582990765571594	2762666.5334217376
0.8614717125892639	3085866.18409768
0.8646637797355652	3355326.473177798
0.8678751587867737	3649930.0586452736
0.8711057901382446	3968962.6550829276
0.8743556141853333	4293994.187606879
0.87762451171875	4605143.794222494
0.8809124231338501	4881281.854509007
0.8842192888259888	5119899.491136519
0.8875449895858765	5237536.169824212
0.8908893465995789	4947317.0761667155
0.894252359867096	4598292.079445165
0.8976338505744934	5229049.281095065
0.9010337591171265	6539822.3588974625
0.9044519662857056	7535235.608268046
0.9078882932662964	8106681.204383503
0.9113426208496094	8483389.445926627
0.914814829826355	8687184.124835439
0.9183048605918884	8814382.462226916
0.9218124747276306	8887702.43112636
0.925337553024292	7462617.107025137
0.9288799166679382	4749963.172162711
0.9324395060539246	3594859.9577299543
0.9360161423683167	4448610.1613321435
0.9396095871925354	5458872.893492976
0.943219780921936	4971607.529895674
0.9468464851379395	3911709.734866126
0.9504896402359009	4189999.8508031494
0.9541489481925964	5431277.147418432
0.9578243494033813	5910543.037601618
0.9615156054496765	5148136.269081308
0.9652225375175476	4878562.312373857
0.9689450263977051	6421069.774108686
0.9726828336715698	9180234.100081567
0.9764357805252075	10975508.162743988
0.9802037477493286	11492632.815919112
0.983986496925354	12583170.276763521
0.9877838492393494	14545834.660519218
0.9915955662727356	16630628.382430952
0.9954215884208679	18462833.331609577
0.9992615580558777	19934125.372473635
1.0031154155731201	21457341.83679218
1.0069829225540161	23603429.828756377
1.0108637809753418	26299954.737511
1.0147579908370972	29122306.27465545
1.018665075302124	31466187.163305454
1.022585153579712	33065652.35594833
1.0265177488327026	34506233.73364896
1.0304628610610962	36665950.2520307
1.0344202518463135	39522031.08039202
1.0383895635604858	42160606.61325348
1.0423706769943237	44270069.66612835
1.0463634729385376	46054700.56676152
1.0503677129745483	47766394.329465084
1.0543830394744873	49858384.17771372
1.058409333229065	52178558.16877772
1.0624464750289917	54122632.61062777
1.0664942264556885	55342268.91596055
1.0705522298812866	56250806.36993124
1.0746204853057861	57772948.613139726
1.0786986351013184	59497067.19498479
1.0827864408493042	59777120.84363657
1.086883783340454	55690755.399024285
1.0909905433654785	45331587.34971345
1.0951062440872192	32772584.760838464
1.0992310047149658	21733302.03750932
1.10336434841156	12639842.20523411
1.1075061559677124	8224042.631954754
1.1116561889648438	6668336.852749293
1.115814208984375	5039378.804608261
1.1199802160263062	3783108.8969688765
1.124153733253479	3032676.2112850198
1.1283347606658936	3376547.6244389787
1.1325229406356812	3778464.0982437287
1.1367181539535522	5049897.977933976
1.1409201622009277	6510165.595604563
1.145128846168518	6464019.042620479
1.1493438482284546	5842906.721704247
1.1535650491714478	4264269.828608041
1.1577922105789185	3064956.24056289
1.1620250940322876	3461595.7786443685
1.1662636995315552	4283329.163268867
1.170507550239563	5189365.212104239
1.174756646156311	7294315.476646383
1.1790107488632202	11619088.396221206
1.1832695007324219	17660747.787017636
1.1875330209732056	22760559.215394687
1.191800832748413	28068767.488103762
1.1960728168487549	34789600.70980948
1.2003488540649414	40480121.549426176
1.2046287059783936	45865523.99617484
1.2089121341705322	49507033.4909259
1.2131990194320679	52604959.577135876
1.2174891233444214	58970279.745593786
1.2217823266983032	66435007.68328809
1.2260783910751343	72206484.96144368
1.230377197265625	75911490.70584272
1.2346785068511963	78818163.0143755
1.238982081413269	79936484.56549913
1.2432878017425537	79220492.84061311
1.2475954294204712	78992210.89263165
1.2519049644470215	79106848.80467863
1.256216049194336	84071236.92944545
1.2605286836624146	89991076.01376097
1.2648425102233887	89763418.82888359
1.2691574096679688	87966872.39621848
1.2734732627868652	86607694.54583575
1.2777899503707886	83222065.68229082
1.2821072340011597	76772195.20521098
1.2864248752593994	69275239.55352986
1.2907428741455078	61540670.081429474
1.2950609922409058	56431815.42425464
1.2993791103363037	54450423.44381505
1.303696870803833	53527079.83976872
1.3080145120620728	52844602.90926922
1.3123314380645752	49850316.37669027
1.3166478872299194	46418645.19887219
1.3209635019302368	41118191.11507511
1.3252781629562378	30080918.32880132
1.3295916318893433	17283588.15891742
1.3339040279388428	7280313.211930545
1.3382149934768677	1974253.9063130554
1.3425244092941284	559781.3463459144
1.3468321561813354	335681.99061795406
1.3511382341384888	207440.56226646638
1.3554422855377197	127291.21399893527
1.3597444295883179	139251.19880979045
1.3640443086624146	131713.68206798146
1.3683418035507202	145407.92743750988
1.3726370334625244	202472.3687374916
1.3769296407699585	204557.41669760933
1.381219506263733	110028.11229418781
1.3855066299438477	49999.799943367005
1.3897908926010132	81981.45254492047
1.3940720558166504	150265.5942482279
1.3983501195907593	240151.07489597338
1.4026249647140503	406788.1263165336
1.4068963527679443	502862.13231472205
1.4111642837524414	342721.19378879335
1.4154287576675415	173129.764176184
1.419689416885376	166611.41372177604
1.4239463806152344	234653.4527026323
1.4281994104385376	350840.0613382628
1.4324485063552856	398215.26799693145
1.436693549156189	415223.84872876643
1.440934419631958	615736.7347398859
1.4451709985733032	925960.165145502
1.449403166770935	1230252.0516534646
1.453631043434143	1563593.1900554583
1.4578542709350586	2047735.0701562492
1.4620729684829712	2422988.265633389
1.4662868976593018	2454668.693768942
1.4704961776733398	2551504.777006859
1.4747005701065063	2749189.861802586
1.4788999557495117	2776245.746686898
1.4830944538116455	2915893.503018953
1.4872838258743286	3142907.339938544
1.491468071937561	3332021.5324247186
1.4956470727920532	3968736.3340655626
1.4998208284378052	5406131.435985691
1.5039892196655273	6812751.176025804
1.5081522464752197	7296364.349700907
1.5123097896575928	8208211.066798754
1.5164618492126465	10221930.727889774
1.5206083059310913	12759598.84648046
1.5247491598129272	14966404.849914942
1.5288842916488647	16194887.580741916
1.5330137014389038	17933029.743134033
1.5371372699737549	19790224.70015861
1.541254997253418	21060362.02470802
1.545366883277893	23346375.516640674
1.5494728088378906	25935747.564592026
1.5535727739334106	27456000.574902117
1.5576666593551636	29194663.672691997
1.561754584312439	32452341.924649093
1.5658363103866577	36041288.68971265
1.5699119567871094	38212941.49261007
1.5739814043045044	38949430.170759246
1.5780447721481323	39930662.565593295
1.582101821899414	42309177.098676644
1.5861525535583496	44690469.892195724
1.5901970863342285	44855645.27494151
1.5942351818084717	43784017.65689063
1.5982669591903687	43212660.57583705
1.6022924184799194	41679698.47395072
1.606311559677124	39041674.926865615
1.6103241443634033	37102753.07990258
1.6143304109573364	35024941.209317096
1.6183301210403442	31404419.589311544
1.6223233938217163	27211059.190407168
1.6263102293014526	23869631.101683732
1.6302905082702637	22271898.06882591
1.634264349937439	25257609.407615025
1.638231635093689	31868745.819670096
1.6421923637390137	32178156.78609455
1.646146535873413	24397887.201162644
1.6500942707061768	21365545.137003362
1.6540353298187256	25833501.98216074
1.6579699516296387	28384110.357712567
1.661897897720337	25625104.2149445
1.6658192873001099	17733337.416991133
1.6697341203689575	11906786.149169913
1.6736423969268799	14019585.767546335
1.677544116973877	16349756.56968423
1.6814392805099487	15922319.213570967
1.6853278875350952	14749888.442131331
1.6892099380493164	12329346.005391236
1.6930854320526123	9315418.618018733
1.696954369544983	7042440.376537148
1.7008168697357178	6748203.824594748
1.7046726942062378	7796767.771235782
1.708522081375122	9550901.456875678
1.712364912033081	11641868.206870181
1.7162011861801147	13457637.336802643
1.7200311422348022	14363098.645201538
1.723854422569275	13633847.723580092
1.7276713848114014	12128657.659197774
1.731481909751892	10861885.417878203
1.7352858781814575	9829129.446824634
1.7390835285186768	8960595.057885801
1.7428747415542603	8107211.823659978
1.7466596364974976	7415947.2872910565
1.7504380941390991	6601423.404715318
1.7542102336883545	5170933.40336004
1.7579760551452637	4161930.77850981
1.7617355585098267	4022425.536667678
1.7654887437820435	3607330.038932233
1.7692357301712036	2814404.195478906
1.7729763984680176	2161448.3033221783
1.776710867881775	1597154.2813493714
1.7804391384124756	1277994.1274238045
1.7841613292694092	1182893.3693268967
1.7878772020339966	926806.1413613393
1.7915871143341064	679758.939763074
1.7952908277511597	667045.0286878133
1.7989884614944458	677428.560043817
1.8026801347732544	465473.31014752755
1.806365728378296	240251.56529377072
1.8100452423095703	167674.0503177493
1.8137187957763672	134116.20497233223
1.817386507987976	120560.32865137189
1.8210482597351074	121224.94511351857
1.8247040510177612	114677.03843735722
1.828354001045227	100884.54101420828
1.8319982290267944	99510.85208080334
1.8356364965438843	107302.97280307417
1.8392690420150757	182553.41108886743
1.8428958654403687	407858.8307420042
1.8465168476104736	571995.6783198003
1.8501322269439697	455264.52612939297
1.8537418842315674	288204.6667688992
1.8573459386825562	294436.8865855601
1.860944390296936	302326.690487964
1.864537239074707	244349.0048075884
1.8681244850158691	226792.80749777213
1.871706247329712	217429.43922244458
1.8752825260162354	369183.4379639032
1.8788533210754395	794454.5198722292
1.8824186325073242	1006634.1993026487
1.8859784603118896	820436.6649592071
1.8895330429077148	775488.1915404559
1.8930821418762207	1252685.459921982
1.8966259956359863	1503139.723990718
1.9001644849777222	865161.330283785
1.9036977291107178	365836.5744869325
1.9072256088256836	501647.3689658681
1.9107483625411987	502253.26737697126
1.9142658710479736	259628.48523358308
1.9177782535552979	132829.32469315492
1.9212853908538818	104912.29873471675
1.9247875213623047	109970.87857874997
1.9282845258712769	143356.4431226263
1.9317764043807983	189438.7470284912
1.9352631568908691	263150.2854179222
1.9387450218200684	366547.27362437965
1.942221760749817	472909.18152866827
1.9456936120986938	500880.81541924033
1.9491604566574097	535917.6422210338
1.952622413635254	527822.1042442379
1.956079363822937	401426.3403102703
1.959531545639038	400524.81443908747
1.962978720664978	625145.7517211648
1.966421127319336	1127392.4457544624
1.9698586463928223	1663669.6083702329
1.9732913970947266	1706630.4917534576
1.9767193794250488	1519723.7240963827
1.9801424741744995	1737964.6381904664
1.9835609197616577	2548714.7978443527
1.9869745969772339	3121468.3256927123
1.990383505821228	2829258.834962212
1.9937876462936401	2699806.9911441472
1.9971871376037598	3066889.8454326126
2.000581979751587	3419120.2115839846
2.003972291946411	3731513.0670406106
2.007357597351074	4382681.65118362
2.0107386112213135	5572578.979061285
2.0141148567199707	6202924.458016376
2.017486572265625	6100247.484786364
2.0208535194396973	6840042.406696572
2.0242159366607666	7981236.957657115
2.027573823928833	8258202.06503049
2.0309269428253174	8413904.264284456
2.034275770187378	9128903.575728182
2.0376198291778564	9922460.855086256
2.040959596633911	10567358.101218874
2.044294595718384	11953908.521280201
2.0476250648498535	13971471.966089163
2.0509510040283203	14329350.722038163
2.054272413253784	13823336.713810474
2.057589530944824	15071385.861207603
2.0609018802642822	16473653.264114989
2.0642096996307373	16776912.902540043
2.0675129890441895	17396318.603119534
2.0708119869232178	18085857.975914866
2.074106216430664	17805992.978508428
2.0773961544036865	17280200.179120477
2.080681324005127	17282067.40253454
2.0839622020721436	17477555.286813106
2.087238311767578	17728705.479509756
2.090510129928589	18013245.690386914
2.0937774181365967	18044558.866029523
2.0970399379730225	17918264.774938926
2.1002981662750244	17571214.91108027
2.1035518646240234	16893318.69868426
2.1068007946014404	16216323.082510361
2.1100454330444336	15988287.492139833
2.1132853031158447	16117195.156978492
2.116520881652832	16020686.216574913
2.1197516918182373	15744167.08591952
2.1229779720306396	15609020.47550862
2.12619948387146	15460908.947409444
2.1294167041778564	15185904.788085597
2.132629156112671	14919675.942876562
2.1358368396759033	14420742.478307102
2.139039993286133	13678502.40725721
2.1422386169433594	12755021.57478732
2.145432472229004	11855828.197261244
2.1486217975616455	11371028.830615548
2.151806354522705	10881001.202997137
2.1549863815307617	10618685.963504707
2.1581614017486572	10510787.003121343
2.16133189201355	10035050.855166506
2.1644976139068604	9662154.36083483
2.167658567428589	9369883.935912553
2.1708147525787354	8928796.476976072
2.173966407775879	8437001.811809024
2.1771130561828613	7933923.656512497
2.1802549362182617	7420923.100303567
2.183391809463501	6881523.410562286
2.1865241527557373	6309067.864904824
2.1896514892578125	5588020.095673553
2.1927738189697266	4488230.8912821375
2.1958916187286377	3180326.1996721122
2.1990041732788086	2112831.3780499087
2.2021119594573975	1457727.7268452419
2.2052149772644043	1263103.8285183692
2.208312749862671	1522803.831017312
2.2114057540893555	1976131.793027609
2.214493751525879	2246227.877164723
2.217576742172241	2199600.727283598
2.2206547260284424	1993859.9777621008
2.2237277030944824	1819837.3228574349
2.2267956733703613	1641095.8015638639
2.2298583984375	1457778.4819434523
2.2329163551330566	1329282.296940929
2.235969066619873	1219227.7889622864
2.2390167713165283	1118578.9854970947
2.2420592308044434	970472.6146179059
2.2450966835021973	778348.9891534551
2.248128890991211	744289.7931253094
2.2511560916900635	864681.7258009526
2.254178285598755	900766.7277808745
2.257194995880127	868525.6889067602
2.260206699371338	833859.1389964996
2.2632133960723877	752025.2858957599
2.266214609146118	713684.1128499126
2.2692108154296875	794267.7618826844
2.2722020149230957	940470.8917422974
2.2751877307891846	1033357.2640172222
2.278168201446533	996781.6883565487
2.2811436653137207	891088.5910391987
2.284113883972168	801359.0730454398
2.287078857421875	736601.1642939803
2.290038824081421	677354.114005132
2.2929933071136475	652592.290072465
2.295942783355713	668299.7201398317
2.298887014389038	689131.2218406816
2.301826238632202	764252.4633676675
2.304760217666626	1019205.6654620386
2.3076889514923096	1504510.965955357
2.310612440109253	2007578.5687912316
2.3135311603546143	1997917.9711727009
2.3164443969726562	1322341.6172086573
2.319352865219116	681996.6979658034
2.322256088256836	533564.0771269347
2.3251543045043945	577802.3023906825
2.328047275543213	576239.8405049432
2.330935478210449	561495.2840369495
2.3338186740875244	550406.4750476391
2.3366971015930176	523877.1988957625
2.3395702838897705	484095.26194154745
2.3424389362335205	435152.55566501524
2.3453025817871094	399960.16200796526
2.348161458969116	415007.5567839679
2.351015567779541	496190.73336205195
2.353865146636963	621748.1350082279
2.3567099571228027	760087.7116107828
2.3595502376556396	929758.7310143921
2.3623859882354736	1088205.3929682754
2.3652172088623047	1040674.2169345106
2.368043899536133	729855.9246387832
2.370866537094116	412963.7734665365
2.3736846446990967	326698.3815686272
2.3764986991882324	419074.9445440325
2.3793084621429443	531953.9735334008
2.3821144104003906	596006.8467670243
2.384916305541992	643318.4731569404
2.387714147567749	714037.9816043985
2.3905084133148193	775718.796610687
2.393299102783203	796329.3552922871
2.3960859775543213	802516.7853958863
2.398869514465332	845540.5672286485
2.4016497135162354	879077.8886504467
2.4044265747070312	855696.077778692
2.407200336456299	884883.9284727906
2.409970998764038	1051838.4875479839
2.4127390384674072	1228430.4892109658
2.415503978729248	1248121.753467178
2.418266534805298	1187203.7681147114
2.4210267066955566	1196853.5333680208
2.4237842559814453	1239073.3821033332
2.426539897918701	1305094.325007605
2.429293394088745	1522710.9980682968
2.4320452213287354	1763934.887191909
2.4347951412200928	1739649.5272129711
2.4375438690185547	1658769.3356696116
2.440291166305542	1854565.9874080135
2.443037271499634	1944982.8690255163
2.445782423019409	1642522.3443497366
2.4485268592834473	1349295.6899880106
2.451270818710327	1326809.0996167762
2.454014539718628	1493346.126118501
2.4567582607269287	1668931.6993105225
2.4595019817352295	1689320.205106324
2.4622461795806885	1661432.8523372915
2.4649908542633057	1604515.102807264
2.4677364826202393	1412374.6806366767
2.4704833030700684	1194800.1662566578
2.473231554031372	1015484.1655077682
2.4759814739227295	873238.1206822055
2.4787333011627197	823333.6112116951
