#wavelength	surface flux
0.6450077295303345	3534.672309942901
0.6472567915916443	5575.242710617434
0.6494921445846558	7298.644655455078
0.6517150402069092	8424.099935479924
0.6539263725280762	9615.751969232524
0.6561272740364075	10920.007950188417
0.6583186388015747	12343.298246981962
0.6605015397071838	13889.848522275252
0.6626768708229065	15555.027184035605
0.6648455858230591	17298.947982710346
0.6670085787773132	18624.33023980454
0.6691668033599854	18562.544922512345
0.6713210344314575	19216.448854442875
0.6734722256660461	23142.099855878176
0.6756211519241333	27627.13261408345
0.6777685880661011	30710.095471999266
0.6799154281616211	33429.804783060594
0.6820623278617859	36162.40498056112
0.6842101216316223	38926.34015566983
0.6863595843315125	41700.69408117812
0.688511312007904	44429.23516158759
0.6906660795211792	46976.83298999385
0.6928245425224304	49387.03756629226
0.6949873566627502	51939.99269599206
0.6971551775932312	54545.884484341805
0.6993286609649658	56827.19419961153
0.7015084028244019	58713.275874171144
0.7036949396133423	60362.32361773114
0.7058889269828796	61747.98251390484
0.7080909013748169	62725.37176045592
0.710301399230957	63251.47430701263
0.712520956993103	63243.197578681706
0.7147500514984131	62469.049345788175
0.7169892191886902	60881.95746381162
0.7192389369010925	59034.77673356657
0.7214996814727783	57135.20604365505
0.723771870136261	54623.52408085283
0.7260559797286987	51438.49159825445
0.7283523678779602	47906.34421982442
0.7306615710258484	44136.48771866112
0.7329838871955872	40242.44081208464
0.7353196740150452	36163.223043494
0.7376693487167358	31888.524609733107
0.7400332689285278	27647.99086199383
0.7424117922782898	23548.480838127747
0.7448052167892456	19651.026607139644
0.7472138404846191	16054.481271661483
0.7496379613876343	12807.777653068124
0.7520779371261597	9947.898217283748
0.7545340061187744	7491.464812899441
0.7570064663887024	5420.268936916806
0.7594954967498779	3695.7438285952026
0.7620013952255249	2260.1026556503407
0.7645244002342224	1127.5413449235086
0.7670646905899048	488.344949659199
0.7696225643157959	523.0286907223522
0.7721980810165405	1383.6514123340971
0.7747915983200073	3057.6683139716997
0.7774031162261963	5164.720638987209
0.7800329327583313	7871.813799164285
0.7826811671257019	12205.127631372781
0.7853479981422424	18224.068976119353
0.7880334854125977	25231.370718318627
0.7907378077507019	30757.6910411126
0.7934610247612	33057.02600729033
0.7962033748626709	43830.91510569507
0.7989648580551147	67929.36531390232
0.801745593547821	93096.16595080886
0.8045456409454346	116763.95059491304
0.8073651194572449	142555.77962871525
0.8102040886878967	170643.3246862655
0.8130625486373901	202566.55963395897
0.8159406185150146	241131.1801001427
0.8188382983207703	286391.8389857554
0.8217556476593018	336658.9552176864
0.8246926665306091	392688.18979334756
0.8276493549346924	455309.86937022157
0.8306257724761963	523986.18142657395
0.8336219191551208	599089.6256578723
0.8366377949714661	681959.5482914444
0.8396733403205872	774686.8184135667
0.8427285552024841	878493.4823123144
0.8458034992218018	981160.55341952
0.8488980531692505	1025415.4864070581
0.8520121574401855	1053246.4093295794
0.8551458716392517	1246916.6670238387
0.8582990765571594	1538669.2078642535
0.8614717125892639	1763882.492381973
0.8646637797355652	1963031.837245097
0.8678751587867737	2182000.8608590337
0.8711057901382446	2421104.1436633472
0.8743556141853333	2675921.523643155
0.87762451171875	2941617.926019163
0.8809124231338501	3207760.176809527
0.8842192888259888	3471839.202658314
0.8875449895858765	3682515.926444903
0.8908893465995789	3630817.278553803
0.894252359867096	3518764.407469318
0.8976338505744934	4056616.5923920684
0.9010337591171265	5024347.429780058
0.9044519662857056	5761982.121867807
0.9078882932662964	6280174.813802589
0.9113426208496094	6736107.679985835
0.914814829826355	7159338.11616086
0.9183048605918884	7588848.248155884
0.9218124747276306	7942535.617553227
0.925337553024292	7408397.26188931
0.9288799166679382	6008023.922219796
0.9324395060539246	5540123.439974745
0.9360161423683167	6585704.844981349
0.9396095871925354	7731581.2503770925
0.943219780921936	7663307.883789926
0.9468464851379395	7166663.660666777
0.9504896402359009	7615404.913924921
0.9541489481925964	8640221.106143147
0.9578243494033813	9177284.448078416
0.9615156054496765	9043405.939960137
0.9652225375175476	9273767.756995702
0.9689450263977051	10569106.56498807
0.9726828336715698	12385641.203538464
0.9764357805252075	13590600.080408314
0.9802037477493286	14145127.636909463
0.983986496925354	14916478.963659817
0.9877838492393494	15970878.361623924
0.9915955662727356	16842690.802664734
0.9954215884208679	17325021.56031168
0.9992615580558777	17481208.107961502
1.0031154155731201	17662181.27543232
1.0069829225540161	18183196.781302612
1.0108637809753418	18865550.631315224
1.0147579908370972	19356229.66302184
1.018665075302124	19494157.04731356
1.022585153579712	19325036.29983991
1.0265177488327026	19067226.76010589
1.0304628610610962	19010827.487970125
1.0344202518463135	19175056.1366004
1.0383895635604858	19229993.844623085
1.0423706769943237	19045637.02683116
1.0463634729385376	18765142.76368317
1.0503677129745483	18496495.50894145
1.0543830394744873	18318670.46270365
1.058409333229065	18251587.953082543
1.0624464750289917	18128394.722217772
1.0664942264556885	17770203.056283563
1.0705522298812866	17281257.883955926
1.0746204853057861	16865862.578246504
1.0786986351013184	16549942.68612944
1.0827864408493042	16281171.523551915
1.086883783340454	15892107.00088846
1.0909905433654785	15092106.563300546
1.0951062440872192	13819759.689808762
1.0992310047149658	11948707.441934876
1.10336434841156	9665887.89167573
1.1075061559677124	7924654.675772479
1.1116561889648438	6563411.8160131825
1.115814208984375	5435954.15358125
1.1199802160263062	4836894.07041133
1.124153733253479	4759179.445940414
1.1283347606658936	5303776.646218854
1.1325229406356812	5404667.246519051
1.1367181539535522	6140946.571218607
1.1409201622009277	7697971.884892906
1.145128846168518	8025773.206708085
1.1493438482284546	7373344.050237697
1.1535650491714478	6269450.8534209095
1.1577922105789185	5800010.613255049
1.1620250940322876	6452349.055354286
1.1662636995315552	7432839.82201152
1.170507550239563	8507901.691634651
1.174756646156311	10070519.13495625
1.1790107488632202	12216224.603471942
1.1832695007324219	14396782.908418227
1.1875330209732056	15970630.002827322
1.191800832748413	17115006.70998033
1.1960728168487549	18222908.134784438
1.2003488540649414	18967554.01307657
1.2046287059783936	19483669.419327963
1.2089121341705322	19875176.782472096
1.2131990194320679	20224624.497965913
1.2174891233444214	20800906.67432477
1.2217823266983032	21492969.192075875
1.2260783910751343	22185018.967786126
1.230377197265625	22894546.619640764
1.2346785068511963	23690312.699206054
1.238982081413269	24600389.798778173
1.2432878017425537	25500604.860951245
1.2475954294204712	26281765.39825548
1.2519049644470215	27061982.884088628
1.256216049194336	28151656.899206396
1.2605286836624146	29468614.162442647
1.2648425102233887	30737888.47187904
1.2691574096679688	31971145.513741173
1.2734732627868652	33109856.538867317
1.2777899503707886	33904285.950143054
1.2821072340011597	34206057.925367996
1.2864248752593994	34058983.75841836
1.2907428741455078	33616363.19801921
1.2950609922409058	33417954.172247935
1.2993791103363037	33550324.298488438
1.303696870803833	33862798.42823787
1.3080145120620728	34263617.65584134
1.3123314380645752	34376687.78578362
1.3166478872299194	34443496.37742762
1.3209635019302368	33369410.591615345
1.3252781629562378	29078192.122901082
1.3295916318893433	20828167.794020794
1.3339040279388428	10883149.643114492
1.3382149934768677	3882803.1002607793
1.3425244092941284	1159493.161591558
1.3468321561813354	537388.5619463687
1.3511382341384888	305452.9633104087
1.3554422855377197	186756.78815658588
1.3597444295883179	221874.87695278553
1.3640443086624146	261946.42010346957
1.3683418035507202	347713.1754012793
1.3726370334625244	520748.83453752176
1.3769296407699585	553955.1136176148
1.381219506263733	308570.18283069815
1.3855066299438477	121786.83794573844
1.3897908926010132	161288.2085481146
1.3940720558166504	282164.14745525195
1.3983501195907593	460805.3403080865
1.4026249647140503	754689.6039828858
1.4068963527679443	877455.1335964678
1.4111642837524414	592553.8693674499
1.4154287576675415	340842.8566451205
1.419689416885376	355417.9272285773
1.4239463806152344	464776.38738448196
1.4281994104385376	639335.9085603432
1.4324485063552856	753990.6064853327
1.436693549156189	872095.9279040679
1.440934419631958	1279606.4275692534
1.4451709985733032	1904595.7264105717
1.449403166770935	2624279.253259923
1.453631043434143	3381840.8019684074
1.4578542709350586	4219294.516574321
1.4620729684829712	4874468.882825126
1.4662868976593018	4977378.55129175
1.4704961776733398	4855878.573242396
1.4747005701065063	4834535.226097996
1.4788999557495117	4739589.204039724
1.4830944538116455	4618332.123299891
1.4872838258743286	4381257.294545161
1.491468071937561	4093166.0871821446
1.4956470727920532	4605034.663414006
1.4998208284378052	6200873.943116344
1.5039892196655273	7629364.073979699
1.5081522464752197	7709657.828992991
1.5123097896575928	7662379.81557323
1.5164618492126465	8761638.915065847
1.5206083059310913	10356533.803632915
1.5247491598129272	11699287.934462564
1.5288842916488647	12733735.079915846
1.5330137014389038	13536085.735393312
1.5371372699737549	14363281.305899765
1.541254997253418	15229307.901912745
1.545366883277893	15936958.75686689
1.5494728088378906	16718177.604502622
1.5535727739334106	17620671.368255194
1.5576666593551636	18428384.67320419
1.561754584312439	19122752.939380802
1.5658363103866577	19554239.027408507
1.5699119567871094	19495552.12057077
1.5739814043045044	19129938.50149362
1.5780447721481323	18806081.550530586
1.582101821899414	18649994.950591505
1.5861525535583496	18503746.886142742
1.5901970863342285	18098979.340490766
1.5942351818084717	17484319.340920676
1.5982669591903687	16864748.69951655
1.6022924184799194	16138117.283568934
1.606311559677124	15320809.272574564
1.6103241443634033	14599142.335011657
1.6143304109573364	13844307.129684439
1.6183301210403442	12885529.249408176
1.6223233938217163	11811122.911716232
1.6263102293014526	10817133.165798467
1.6302905082702637	10129703.771410637
1.634264349937439	10202051.892887542
1.638231635093689	10842951.258013237
1.6421923637390137	10577259.324540194
1.646146535873413	9135009.519773087
1.6500942707061768	8537168.280427407
1.6540353298187256	9208208.87782691
1.6579699516296387	9515429.107255332
1.661897897720337	8669150.475268902
1.6658192873001099	6702061.926638078
1.6697341203689575	5622593.433471021
1.6736423969268799	6373584.75121746
1.677544116973877	6802418.566436212
1.6814392805099487	6515715.860702804
1.6853278875350952	6164940.810395226
1.6892099380493164	5647278.952770118
1.6930854320526123	4923694.5394631075
1.696954369544983	4279703.810751503
1.7008168697357178	4125075.8805751926
1.7046726942062378	4267289.358119933
1.708522081375122	4576834.068454905
1.712364912033081	4991884.050511091
1.7162011861801147	5335143.185093568
1.7200311422348022	5470523.361016673
1.723854422569275	5283901.388202761
1.7276713848114014	4969343.578643099
1.731481909751892	4717111.590461769
1.7352858781814575	4540673.499582482
1.7390835285186768	4417530.017235788
1.7428747415542603	4274061.988240736
1.7466596364974976	4086061.6487406353
1.7504380941390991	3811037.410561279
1.7542102336883545	3396500.9663536153
1.7579760551452637	3094304.728418698
1.7617355585098267	2958629.8007309344
1.7654887437820435	2680842.335969261
1.7692357301712036	2310133.054117526
1.7729763984680176	1980177.454006882
1.776710867881775	1621722.1372764455
1.7804391384124756	1380579.238197073
1.7841613292694092	1247693.5441908562
1.7878772020339966	1020470.6927131905
1.7915871143341064	814732.8757755468
1.7952908277511597	756934.4063140288
1.7989884614944458	706141.1893915931
1.8026801347732544	496439.78918465954
1.806365728378296	295971.9121937196
1.8100452423095703	221226.25292670354
1.8137187957763672	176340.38957122053
1.817386507987976	154324.49813634608
1.8210482597351074	150178.6735875089
1.8247040510177612	140088.07685714107
1.828354001045227	124315.75884368048
1.8319982290267944	122976.55681837656
1.8356364965438843	128998.68051013672
1.8392690420150757	199488.05555593086
1.8428958654403687	399702.8570003395
1.8465168476104736	531900.199442647
1.8501322269439697	438982.06343858736
1.8537418842315674	305866.32602329046
1.8573459386825562	307349.10387318773
1.860944390296936	314082.93901059567
1.864537239074707	256508.25734649843
1.8681244850158691	229668.18732377506
1.871706247329712	217834.8235381926
1.8752825260162354	334589.6414869994
1.8788533210754395	643084.3801570095
1.8824186325073242	807779.6375310397
1.8859784603118896	700615.593852016
1.8895330429077148	626244.4682960685
1.8930821418762207	776446.8404223743
1.8966259956359863	835967.7993697302
1.9001644849777222	516516.79205679684
1.9036977291107178	265688.74310611223
1.9072256088256836	337677.26771252527
1.9107483625411987	352936.18093358504
1.9142658710479736	223400.43467587177
1.9177782535552979	142621.8472617076
1.9212853908538818	113434.23327730843
1.9247875213623047	115594.40557489167
1.9282845258712769	144850.23707750457
1.9317764043807983	173023.3703251765
1.9352631568908691	207606.06104746598
1.9387450218200684	247591.10247314486
1.942221760749817	284488.10020083643
1.9456936120986938	305072.6858096613
1.9491604566574097	344408.3782058451
1.952622413635254	348513.13676310075
1.956079363822937	277697.8068438139
1.959531545639038	289207.760467378
1.962978720664978	435506.70695792907
1.966421127319336	597547.7985971249
1.9698586463928223	687298.6401769862
1.9732913970947266	702294.817798759
1.9767193794250488	658677.7243069729
1.9801424741744995	640798.2905013441
1.9835609197616577	784632.0418497572
1.9869745969772339	961313.4064132608
1.990383505821228	978442.5517943555
1.9937876462936401	931034.4148003326
1.9971871376037598	991931.1310914172
2.000581979751587	1116970.1416596947
2.003972291946411	1073483.5114845515
2.007357597351074	1034739.4773154674
2.0107386112213135	1193863.1436310955
2.0141148567199707	1250585.6363671192
2.017486572265625	1198563.8952567072
2.0208535194396973	1210266.956563587
2.0242159366607666	1206982.8659543747
2.027573823928833	1235087.7297383929
2.0309269428253174	1305343.1994153846
2.034275770187378	1349337.8972222677
2.0376198291778564	1415756.0022716138
2.040959596633911	1484261.5637993328
2.044294595718384	1557915.5353211989
2.0476250648498535	1652950.2978361957
2.0509510040283203	1690208.2745820428
2.054272413253784	1676163.0290516478
2.057589530944824	1691793.875671194
2.0609018802642822	1729596.306591884
2.0642096996307373	1742243.5716937925
2.0675129890441895	1736579.6908492835
2.0708119869232178	1728722.874439616
2.074106216430664	1718643.7288705227
2.0773961544036865	1709519.9457956816
2.080681324005127	1700589.2237094627
2.0839622020721436	1695782.0491060838
2.087238311767578	1696697.1744632018
2.090510129928589	1693605.9977608775
2.0937774181365967	1683686.9464202637
2.0970399379730225	1672285.703677679
2.1002981662750244	1660182.9558144896
2.1035518646240234	1647036.9346942669
2.1068007946014404	1633797.167112274
2.1100454330444336	1622875.399525756
2.1132853031158447	1615149.336026628
2.116520881652832	1606440.846844254
2.1197516918182373	1595926.4338844484
2.1229779720306396	1586780.7720153693
2.12619948387146	1578780.1777077056
2.1294167041778564	1570395.5857590262
2.132629156112671	1561400.45067975
2.1358368396759033	1547999.6363183416
2.139039993286133	1532094.161123966
2.1422386169433594	1512592.4567646908
2.145432472229004	1495197.9289661718
2.1486217975616455	1482117.0440296053
2.151806354522705	1457322.033887664
2.1549863815307617	1439805.104276488
2.1581614017486572	1434292.8393018658
2.16133189201355	1418289.7147363438
2.1644976139068604	1396397.4167854718
2.167658567428589	1376334.8860923669
2.1708147525787354	1366322.8578515623
2.173966407775879	1358421.8479504534
2.1771130561828613	1327195.5314353863
2.1802549362182617	1278554.6318712905
2.183391809463501	1240093.2485278058
2.1865241527557373	1194503.3328136902
2.1896514892578125	1092285.5733009044
2.1927738189697266	942987.3979063297
2.1958916187286377	818213.979247319
2.1990041732788086	727745.9028960484
2.2021119594573975	645176.4232453898
2.2052149772644043	597509.6175459524
2.208312749862671	618424.9638935701
2.2114057540893555	693134.4521829403
2.214493751525879	757710.3551778907
2.217576742172241	768401.3864394668
2.2206547260284424	743041.3851682472
2.2237277030944824	711332.7928933115
2.2267956733703613	670579.311104044
2.2298583984375	634212.1954582401
2.2329163551330566	623123.993070769
2.235969066619873	615915.8911009631
2.2390167713165283	587227.7600267549
2.2420592308044434	522175.5156213743
2.2450966835021973	427549.73348143476
2.248128890991211	389600.4204205863
2.2511560916900635	436018.61632094067
2.254178285598755	461117.1389604051
2.257194995880127	450951.05879462603
2.260206699371338	451846.6288904358
2.2632133960723877	448437.39600833744
2.266214609146118	452854.5112839379
2.2692108154296875	486593.26687394077
2.2722020149230957	529747.1221626535
2.2751877307891846	545881.2266635917
2.278168201446533	522269.3695901274
2.2811436653137207	483912.6723138375
2.284113883972168	458555.50748342864
2.287078857421875	443430.64997523034
2.290038824081421	426397.3500732489
2.2929933071136475	418363.76142677444
2.295942783355713	418702.98517386714
2.298887014389038	415032.40796302084
2.301826238632202	428623.38697657344
2.304760217666626	494433.8279802595
2.3076889514923096	598451.5550204325
2.310612440109253	678704.9789462171
2.3135311603546143	647758.121388871
2.3164443969726562	481268.77292426233
2.319352865219116	342934.81642264413
2.322256088256836	351750.7509239139
2.3251543045043945	390588.5142466409
2.328047275543213	374513.5416159902
2.330935478210449	364352.03393842967
2.3338186740875244	371976.5584105527
2.3366971015930176	359667.26039889955
2.3395702838897705	338059.771733712
2.3424389362335205	318560.89650192496
2.3453025817871094	303689.6513235791
2.348161458969116	312031.4236017044
2.351015567779541	356985.22410590755
2.353865146636963	424976.85813138424
2.3567099571228027	493070.69267533865
2.3595502376556396	562097.255699359
2.3623859882354736	616154.0926153285
2.3652172088623047	584045.2599554647
2.368043899536133	439519.5545265909
2.370866537094116	288981.87795196945
2.3736846446990967	258922.93459201892
2.3764986991882324	332725.13038743957
2.3793084621429443	412698.89330356475
2.3821144104003906	450497.73324836715
2.384916305541992	468899.8956408102
2.387714147567749	502818.11939146067
2.3905084133148193	536777.169823056
2.393299102783203	546739.3488704712
2.3960859775543213	544195.1081204921
2.398869514465332	561215.36973746
2.4016497135162354	582067.1848995724
2.4044265747070312	578348.4076886064
2.407200336456299	591996.1433662113
2.409970998764038	660623.9224780973
2.4127390384674072	734648.7490358439
2.415503978729248	748379.8797308699
2.418266534805298	728816.1514704938
2.4210267066955566	736363.315925579
2.4237842559814453	761788.2799393551
2.426539897918701	794019.0418637153
2.429293394088745	867033.2802671145
2.4320452213287354	943259.1196089936
2.4347951412200928	941014.5691262198
2.4375438690185547	925477.3124061245
2.440291166305542	996576.2001319313
2.443037271499634	1041777.0987587544
2.445782423019409	961985.4703552789
2.4485268592834473	879208.8520868566
2.451270818710327	894615.6672233974
2.454014539718628	971053.0889743564
2.4567582607269287	1037292.8153747381
2.4595019817352295	1058686.3373593346
2.4622461795806885	1063171.4359940586
2.4649908542633057	1047334.9374771001
2.4677364826202393	986119.4581718406
2.4704833030700684	908272.3437680652
2.473231554031372	830348.8364589139
2.4759814739227295	761913.529234267
2.4787333011627197	739443.3295289812
2.481487512588501	772476.0821798026
