#wavelength	surface flux
0.6450077295303345	226472.62597611974
0.6472567915916443	357726.5634303079
0.6494921445846558	468697.9410014484
0.6517150402069092	540035.1313606566
0.6539263725280762	613754.3293361361
0.6561272740364075	692141.3067997455
0.6583186388015747	774004.3286686919
0.6605015397071838	857068.5955094364
0.6626768708229065	936063.1559428102
0.6648455858230591	992352.3328266089
0.6670085787773132	953165.8767010551
0.6691668033599854	751115.1763811761
0.6713210344314575	649011.6999364919
0.6734722256660461	936057.7583888185
0.6756211519241333	1348479.1902382928
0.6777685880661011	1611826.8553341823
0.6799154281616211	1781692.5803510128
0.6820623278617859	1921621.3186049345
0.6842101216316223	2045848.074511523
0.6863595843315125	2154793.0108164884
0.688511312007904	2254101.4500882644
0.6906660795211792	2347682.4395663035
0.6928245425224304	2438333.9927830794
0.6949873566627502	2535110.0570398113
0.6971551775932312	2633479.879987814
0.6993286609649658	2715379.2427858
0.7015084028244019	2769647.935202911
0.7036949396133423	2804160.4859546404
0.7058889269828796	2829410.086526918
0.7080909013748169	2838336.4655998712
0.710301399230957	2822459.651103939
0.712520956993103	2783129.154675368
0.7147500514984131	2720053.582833504
0.7169892191886902	2632939.1928358143
0.7192389369010925	2531791.5308363107
0.7214996814727783	2418690.519099131
0.723771870136261	2283590.322775865
0.7260559797286987	2126094.941431351
0.7283523678779602	1954041.7052468865
0.7306615710258484	1774743.513577812
0.7329838871955872	1591155.49591107
0.7353196740150452	1400859.8299413882
0.7376693487167358	1206762.6274129346
0.7400332689285278	1016778.2985737923
0.7424117922782898	834108.8392636213
0.7448052167892456	661901.7214025728
0.7472138404846191	505090.5310063514
0.7496379613876343	367238.60099743214
0.7520779371261597	251432.04933147965
0.7545340061187744	159659.51926847853
0.7570064663887024	92027.02482795352
0.7594954967498779	46832.7176664605
0.7620013952255249	20211.661480153754
0.7645244002342224	6895.578612626028
0.7670646905899048	1937.0313334429347
0.7696225643157959	2136.7832249082126
0.7721980810165405	8757.17156795275
0.7747915983200073	26777.236425161278
0.7774031162261963	57552.40004310733
0.7800329327583313	113531.51283716467
0.7826811671257019	227841.90104911925
0.7853479981422424	403362.21174878936
0.7880334854125977	614745.9676939457
0.7907378077507019	765003.4596950982
0.7934610247612	791495.79782075
0.7962033748626709	1107714.1496481695
0.7989648580551147	1867265.8503688013
0.801745593547821	2626979.0219587954
0.8045456409454346	3292507.5445728656
0.8073651194572449	3990262.1953660953
0.8102040886878967	4735235.65589294
0.8130625486373901	5545670.552450151
0.8159406185150146	6397868.980065763
0.8188382983207703	7323325.363289599
0.8217556476593018	8503652.847360227
0.8246926665306091	9881966.564494679
0.8276493549346924	11280243.305602351
0.8306257724761963	12724678.844164373
0.8336219191551208	14251125.526655456
0.8366377949714661	15865434.957066726
0.8396733403205872	17592381.812978227
0.8427285552024841	19434795.27822928
0.8458034992218018	21017393.757662203
0.8488980531692505	20737374.923104666
0.8520121574401855	19790828.00555072
0.8551458716392517	23025202.512063134
0.8582990765571594	27295960.11877302
0.8614717125892639	26784730.453145143
0.8646637797355652	25535549.455757327
0.8678751587867737	27357038.46513749
0.8711057901382446	29920479.074091114
0.8743556141853333	32209919.421856068
0.87762451171875	34950360.58745927
0.8809124231338501	37789016.45039561
0.8842192888259888	40748643.22907861
0.8875449895858765	42998166.39841227
0.8908893465995789	41975083.36072182
0.894252359867096	41180928.8379783
0.8976338505744934	48344256.10268209
0.9010337591171265	59353390.43064597
0.9044519662857056	66935694.63089804
0.9078882932662964	72353170.53541927
0.9113426208496094	77547153.67219163
0.914814829826355	82179201.57647951
0.9183048605918884	86453295.29558004
0.9218124747276306	89765553.85634384
0.925337553024292	85281104.36412983
0.9288799166679382	74493643.35263939
0.9324395060539246	72737589.89604484
0.9360161423683167	81832353.7435462
0.9396095871925354	90071616.17540821
0.943219780921936	90082999.95141774
0.9468464851379395	87315731.06346618
0.9504896402359009	90147660.49207106
0.9541489481925964	95983437.35422827
0.9578243494033813	97672597.10806061
0.9615156054496765	94155934.49790064
0.9652225375175476	93202928.92135444
0.9689450263977051	100139616.98416886
0.9726828336715698	112409838.22960882
0.9764357805252075	121756454.81096551
0.9802037477493286	125468097.3759935
0.983986496925354	127317952.1885586
0.9877838492393494	124446206.69946623
0.9915955662727356	116126296.06040825
0.9954215884208679	108191212.77976492
0.9992615580558777	100988385.09269841
1.0031154155731201	97795790.02115524
1.0069829225540161	102393181.59218962
1.0108637809753418	110425469.45710962
1.0147579908370972	117606670.7790129
1.018665075302124	122419714.31496057
1.022585153579712	124769248.17883219
1.0265177488327026	126157552.5619255
1.0304628610610962	129919998.29748435
1.0344202518463135	135856460.37845412
1.0383895635604858	140363012.38441265
1.0423706769943237	142399167.19356856
1.0463634729385376	142952120.81638694
1.0503677129745483	142290058.07645875
1.0543830394744873	141742247.03343904
1.058409333229065	142831652.22956353
1.0624464750289917	145180920.23926806
1.0664942264556885	147729673.5178371
1.0705522298812866	150261670.4057155
1.0746204853057861	153048321.10814732
1.0786986351013184	155547890.77749234
1.0827864408493042	156954501.1977816
1.086883783340454	155405502.94165987
1.0909905433654785	148281891.3678111
1.0951062440872192	136560508.92885363
1.0992310047149658	120570645.88527718
1.10336434841156	101895955.03017607
1.1075061559677124	89500698.13740622
1.1116561889648438	81781042.12789291
1.115814208984375	75669660.01274922
1.1199802160263062	71971278.04798885
1.124153733253479	70931166.42726812
1.1283347606658936	73700905.45192751
1.1325229406356812	69716861.33423483
1.1367181539535522	69298453.04794307
1.1409201622009277	79723367.0883693
1.145128846168518	87635718.40430987
1.1493438482284546	88983538.56233172
1.1535650491714478	81487322.03888081
1.1577922105789185	75417645.91329259
1.1620250940322876	75580589.3089989
1.1662636995315552	73850428.31756173
1.170507550239563	71132946.891619
1.174756646156311	72678215.51846671
1.1790107488632202	83272598.7316527
1.1832695007324219	103306916.04591647
1.1875330209732056	120496949.8108358
1.191800832748413	130975663.92012009
1.1960728168487549	139951738.1354065
1.2003488540649414	145978515.83768216
1.2046287059783936	150795934.1329308
1.2089121341705322	154377476.45406103
1.2131990194320679	157511954.80480796
1.2174891233444214	162964920.7491088
1.2217823266983032	168622363.06871787
1.2260783910751343	172879354.25815666
1.230377197265625	175895547.75564545
1.2346785068511963	177675505.28695163
1.238982081413269	176094641.92712572
1.2432878017425537	172473505.6342985
1.2475954294204712	170443406.34090135
1.2519049644470215	170010772.01738715
1.256216049194336	178474575.80004054
1.2605286836624146	192140855.4586029
1.2648425102233887	199564919.7824056
1.2691574096679688	203571975.5756456
1.2734732627868652	206865977.89668614
1.2777899503707886	208346862.34248784
1.2821072340011597	207382061.58370748
1.2864248752593994	204635442.90614465
1.2907428741455078	200996554.79821932
1.2950609922409058	198972634.1383121
1.2993791103363037	198617902.91004792
1.303696870803833	198471061.40487137
1.3080145120620728	198328521.5838735
1.3123314380645752	196205455.02718627
1.3166478872299194	192093043.75848708
1.3209635019302368	182261148.12842593
1.3252781629562378	158673153.82176128
1.3295916318893433	116750057.94354708
1.3339040279388428	63855737.194680296
1.3382149934768677	24611139.540132746
1.3425244092941284	10282462.553522184
1.3468321561813354	7600096.338076977
1.3511382341384888	5419374.871848223
1.3554422855377197	4559437.143772814
1.3597444295883179	5987653.652266242
1.3640443086624146	7376225.98948189
1.3683418035507202	8918674.504905486
1.3726370334625244	11032574.271081397
1.3769296407699585	11228953.60572247
1.381219506263733	7242701.815150021
1.3855066299438477	3888965.888518244
1.3897908926010132	4418216.676554562
1.3940720558166504	6012473.665760699
1.3983501195907593	7422051.532104137
1.4026249647140503	10417031.083638556
1.4068963527679443	12311362.691453777
1.4111642837524414	9229795.411437847
1.4154287576675415	6193205.136338597
1.419689416885376	6285572.234972675
1.4239463806152344	7337013.1284736
1.4281994104385376	8979888.051586438
1.4324485063552856	9548390.894866962
1.436693549156189	9605956.676689615
1.440934419631958	11870673.91240518
1.4451709985733032	15471559.38074499
1.449403166770935	19134469.69692058
1.453631043434143	22563956.815532576
1.4578542709350586	26413368.948988333
1.4620729684829712	29943968.361760113
1.4662868976593018	31138177.972355552
1.4704961776733398	31694936.058097307
1.4747005701065063	33122630.51719523
1.4788999557495117	34013210.317520365
1.4830944538116455	35214632.618096344
1.4872838258743286	36802075.85280695
1.491468071937561	37940891.257358566
1.4956470727920532	41272575.975640155
1.4998208284378052	47947232.655279964
1.5039892196655273	53654565.4691115
1.5081522464752197	54903694.931741655
1.5123097896575928	56504146.2470915
1.5164618492126465	61699339.771697946
1.5206083059310913	68267675.28178863
1.5247491598129272	73224983.82209617
1.5288842916488647	75442765.63401945
1.5330137014389038	78182941.52997425
1.5371372699737549	81027897.98163156
1.541254997253418	82422049.55318902
1.545366883277893	84568048.28372672
1.5494728088378906	86810997.76338522
1.5535727739334106	87685523.37034136
1.5576666593551636	88612620.05783279
1.561754584312439	90276434.17222965
1.5658363103866577	91276109.28870496
1.5699119567871094	91158268.19431189
1.5739814043045044	90745540.8261792
1.5780447721481323	90897192.27687143
1.582101821899414	91658687.25432988
1.5861525535583496	92076405.54698154
1.5901970863342285	91197480.99857786
1.5942351818084717	89381071.69136098
1.5982669591903687	87522707.26874529
1.6022924184799194	85227688.93223198
1.606311559677124	82477245.81449763
1.6103241443634033	80058242.22625285
1.6143304109573364	77656343.99489969
1.6183301210403442	74610629.31465855
1.6223233938217163	71263676.65451312
1.6263102293014526	68233719.85092315
1.6302905082702637	66055876.4880087
1.634264349937439	66112261.87178487
1.638231635093689	67981844.7631006
1.6421923637390137	67554546.28035335
1.646146535873413	63958323.09983426
1.6500942707061768	62233333.18607355
1.6540353298187256	63341510.74173704
1.6579699516296387	63255164.628398634
1.661897897720337	59567171.58959051
1.6658192873001099	51671788.968073815
1.6697341203689575	47309018.506335504
1.6736423969268799	50652248.97986045
1.677544116973877	52942778.65610204
1.6814392805099487	51631336.16386889
1.6853278875350952	49595524.61921375
1.6892099380493164	47031124.38198892
1.6930854320526123	43493970.66204766
1.696954369544983	40187711.45096934
1.7008168697357178	39158964.73546006
1.7046726942062378	39688034.73329422
1.708522081375122	40810732.354078434
1.712364912033081	41953489.21476665
1.7162011861801147	42587548.707819626
1.7200311422348022	42342822.77870601
1.723854422569275	40836474.63823702
1.7276713848114014	38854666.93465775
1.731481909751892	37085123.09846
1.7352858781814575	35524107.80832476
1.7390835285186768	33936756.85522733
1.7428747415542603	32205984.665110406
1.7466596364974976	30641892.819699764
1.7504380941390991	28448828.06990934
1.7542102336883545	24877893.869471833
1.7579760551452637	22556998.74594185
1.7617355585098267	22402035.217035625
1.7654887437820435	21243847.718736682
1.7692357301712036	18612436.51832623
1.7729763984680176	16024762.120001666
1.776710867881775	13391186.961702336
1.7804391384124756	11665607.042843765
1.7841613292694092	10793802.525801228
1.7878772020339966	9319600.55259298
1.7915871143341064	8104202.7327182265
1.7952908277511597	7783706.390940948
1.7989884614944458	7265822.210665056
1.8026801347732544	5707648.720646651
1.806365728378296	4254539.679704518
1.8100452423095703	3622502.0201444356
1.8137187957763672	3264093.2416184326
1.817386507987976	3159686.1662907028
1.8210482597351074	3204307.372906123
1.8247040510177612	3180102.01273415
1.828354001045227	3175428.041277753
1.8319982290267944	3364630.4482410112
1.8356364965438843	3527479.420015003
1.8392690420150757	4443464.865667875
1.8428958654403687	6493652.0333130155
1.8465168476104736	7369133.770151431
1.8501322269439697	6098759.134968242
1.8537418842315674	4583566.971669869
1.8573459386825562	4222126.210201875
1.860944390296936	4136439.5856255624
1.864537239074707	4083886.889834265
1.8681244850158691	4544715.252443942
1.871706247329712	4744009.179190264
1.8752825260162354	5725807.63623877
1.8788533210754395	8034239.056617429
1.8824186325073242	9256990.106113777
1.8859784603118896	8952636.31964002
1.8895330429077148	8953228.448635042
1.8930821418762207	10157571.813201979
1.8966259956359863	10500287.642220415
1.9001644849777222	7808843.416217263
1.9036977291107178	5742950.212214577
1.9072256088256836	6769463.586514178
1.9107483625411987	6890781.7444142485
1.9142658710479736	5058126.745682637
1.9177782535552979	3746830.089892519
1.9212853908538818	3052953.575262367
1.9247875213623047	2922315.719419314
1.9282845258712769	3355240.358648708
1.9317764043807983	3860616.378941915
1.9352631568908691	4499656.3088417165
1.9387450218200684	5048455.274227781
1.942221760749817	5374733.329818626
1.9456936120986938	5356816.91862963
1.9491604566574097	5474601.965032174
1.952622413635254	5309616.970683596
1.956079363822937	4500796.405829518
1.959531545639038	4557615.61670185
1.962978720664978	5750639.378743656
1.966421127319336	7630257.229099233
1.9698586463928223	9262182.259692933
1.9732913970947266	9367985.098432355
1.9767193794250488	8923358.034733158
1.9801424741744995	9326916.496988926
1.9835609197616577	10872527.623102909
1.9869745969772339	12151655.802382631
1.990383505821228	11861951.726182453
1.9937876462936401	11821077.829638422
1.9971871376037598	12456020.445995608
2.000581979751587	12917717.642751686
2.003972291946411	13489787.276445612
2.007357597351074	14133258.370639667
2.0107386112213135	14950810.085613381
2.0141148567199707	15397471.281663986
2.017486572265625	15233865.325675514
2.0208535194396973	15626525.868746877
2.0242159366607666	16384487.446154559
2.027573823928833	16599004.568861648
2.0309269428253174	16623582.386546517
2.034275770187378	16896468.19652934
2.0376198291778564	17245056.00418201
2.040959596633911	17480281.160690144
2.044294595718384	17871180.4422718
2.0476250648498535	18451059.54413308
2.0509510040283203	18586554.743319355
2.054272413253784	18419419.407347973
2.057589530944824	18628203.987801436
2.0609018802642822	18878254.81521428
2.0642096996307373	18844352.12733005
2.0675129890441895	18821883.720781807
2.0708119869232178	18823680.15812351
2.074106216430664	18687798.571724426
2.0773961544036865	18535946.42615295
2.080681324005127	18479171.503337827
2.0839622020721436	18453451.882236116
2.087238311767578	18430331.72437595
2.090510129928589	18404582.72119173
2.0937774181365967	18339427.721187152
2.0970399379730225	18244874.6640653
2.1002981662750244	18107879.869105298
2.1035518646240234	17916589.882354707
2.1068007946014404	17724405.519148972
2.1100454330444336	17604047.513554737
2.1132853031158447	17547511.849080525
2.116520881652832	17469806.678639874
2.1197516918182373	17370913.55758255
2.1229779720306396	17286920.905724037
2.12619948387146	17189762.65266891
2.1294167041778564	17065802.050869618
2.132629156112671	16937351.706548505
2.1358368396759033	16773325.240228299
2.139039993286133	16579439.54930603
2.1422386169433594	16363173.62709027
2.145432472229004	16162837.320955383
2.1486217975616455	16027759.31683437
2.151806354522705	15873358.049633458
2.1549863815307617	15770922.646756938
2.1581614017486572	15695920.101119583
2.16133189201355	15531872.207130956
2.1644976139068604	15373130.072388086
2.167658567428589	15215958.803115297
2.1708147525787354	15023849.149531001
2.173966407775879	14807847.510054443
2.1771130561828613	14552988.139690509
2.1802549362182617	14272579.024261419
2.183391809463501	13993467.384298448
2.1865241527557373	13679459.55128495
2.1896514892578125	13198512.441175949
2.1927738189697266	12435132.013437249
2.1958916187286377	11501833.936296681
2.1990041732788086	10544753.05655316
2.2021119594573975	9599276.622473132
2.2052149772644043	8934529.725180278
2.208312749862671	9035928.0676277
2.2114057540893555	9741740.780910037
2.214493751525879	10300777.497074427
2.217576742172241	10378599.060194515
2.2206547260284424	10189801.712550081
2.2237277030944824	9979044.643528853
2.2267956733703613	9669128.701861817
2.2298583984375	9320951.764128398
2.2329163551330566	9083010.495173004
2.235969066619873	8867445.838251851
2.2390167713165283	8610501.287449032
2.2420592308044434	8187211.216568898
2.2450966835021973	7640642.013851398
2.248128890991211	7501874.905846242
2.2511560916900635	7782965.270331009
2.254178285598755	7862156.82586256
2.257194995880127	7766975.686371917
2.260206699371338	7675008.634689353
2.2632133960723877	7425348.437164907
2.266214609146118	7267670.48138839
2.2692108154296875	7463922.976906478
2.2722020149230957	7813508.86746198
2.2751877307891846	7987497.209657447
2.278168201446533	7827548.45147803
2.2811436653137207	7489490.638795032
2.284113883972168	7187489.470965611
2.287078857421875	6950377.755456974
2.290038824081421	6759960.904293801
2.2929933071136475	6708015.730074038
2.295942783355713	6807137.751944047
2.298887014389038	6975813.450667559
2.301826238632202	7303245.473004925
2.304760217666626	7919662.125966975
2.3076889514923096	8719875.425980577
2.310612440109253	9323513.514272783
2.3135311603546143	9064763.943070121
2.3164443969726562	7647455.520306087
2.319352865219116	6180925.791018505
2.322256088256836	5763889.655229972
2.3251543045043945	5793228.738626606
2.328047275543213	5657940.137991128
2.330935478210449	5595939.348861221
2.3338186740875244	5630802.277567451
2.3366971015930176	5630364.996026253
2.3395702838897705	5574270.563895404
2.3424389362335205	5436387.79449827
2.3453025817871094	5330050.172345376
2.348161458969116	5475070.844584488
2.351015567779541	5917581.45759139
2.353865146636963	6487855.640272549
2.3567099571228027	6978033.451664393
2.3595502376556396	7418059.007197554
2.3623859882354736	7791142.705070593
2.3652172088623047	7610494.522931043
2.368043899536133	6499871.56465954
2.370866537094116	5132415.432388597
2.3736846446990967	4718495.41914539
2.3764986991882324	5185647.090144727
2.3793084621429443	5606123.784017592
2.3821144104003906	5773549.056308644
2.384916305541992	6024987.286974132
2.387714147567749	6458645.559949018
2.3905084133148193	6783646.16203951
2.393299102783203	6894058.58536905
2.3960859775543213	6966047.390324589
2.398869514465332	7142071.027372008
2.4016497135162354	7238394.711571018
2.4044265747070312	7128509.49874722
2.407200336456299	7157936.1939708
2.409970998764038	7536520.15302817
2.4127390384674072	7927011.888200802
2.415503978729248	7958289.960068003
2.418266534805298	7792945.411851627
2.4210267066955566	7785735.456385723
2.4237842559814453	7906494.824665891
2.426539897918701	8052973.877434539
2.429293394088745	8402630.466428297
2.4320452213287354	8789931.562303897
2.4347951412200928	8688382.737042325
2.4375438690185547	8423114.061525734
2.440291166305542	8648165.907006986
2.443037271499634	8700164.565895624
2.445782423019409	8076890.5133070545
2.4485268592834473	7537631.3878503805
2.451270818710327	7388179.844167302
2.454014539718628	7517448.97464846
2.4567582607269287	7778651.93042703
2.4595019817352295	7698293.1608464345
2.4622461795806885	7591312.565397378
2.4649908542633057	7509298.027422648
2.4677364826202393	6988154.707655157
2.4704833030700684	6301011.735666882
2.473231554031372	5607088.694880017
2.4759814739227295	4972715.318513807
2.4787333011627197	4736176.786150706
2.481487512588501	5044049.1886612475
2.4842441082000732	5360485.167357037
