#wavelength	surface flux
0.6450077295303345	172949.4186671407
0.6472567915916443	269331.83033165516
0.6494921445846558	344287.18190285517
0.6517150402069092	385978.0089145201
0.6539263725280762	427847.11241989484
0.6561272740364075	471861.5558085642
0.6583186388015747	517910.6586293137
0.6605015397071838	565770.8816661267
0.6626768708229065	614486.4294135369
0.6648455858230591	659818.6534914668
0.6670085787773132	672036.1371228755
0.6691668033599854	604088.4255553866
0.6713210344314575	573720.526705106
0.6734722256660461	721255.0748444184
0.6756211519241333	904843.7085818226
0.6777685880661011	1008505.306224515
0.6799154281616211	1081603.8787545788
0.6820623278617859	1149273.1107106563
0.6842101216316223	1214789.7929745177
0.6863595843315125	1278294.3337586806
0.688511312007904	1337658.2023068096
0.6906660795211792	1388200.3344201264
0.6928245425224304	1435344.0521557545
0.6949873566627502	1492089.521017353
0.6971551775932312	1553167.0679074577
0.6993286609649658	1603891.1994441312
0.7015084028244019	1643076.8328519592
0.7036949396133423	1677118.4065833709
0.7058889269828796	1706701.5079892485
0.7080909013748169	1728430.3209748701
0.710301399230957	1741422.4808826754
0.712520956993103	1743629.103283615
0.7147500514984131	1728841.6863434354
0.7169892191886902	1696656.5799320445
0.7192389369010925	1661578.3719583976
0.7214996814727783	1628224.1943496359
0.723771870136261	1583061.6816344443
0.7260559797286987	1522642.2676163202
0.7283523678779602	1451604.9486289998
0.7306615710258484	1371770.3973139578
0.7329838871955872	1286134.3903097843
0.7353196740150452	1192557.2443392577
0.7376693487167358	1088926.065695344
0.7400332689285278	980329.1458804914
0.7424117922782898	867965.9615634714
0.7448052167892456	751993.8998803265
0.7472138404846191	635662.945069875
0.7496379613876343	521051.680456899
0.7520779371261597	410673.4360412445
0.7545340061187744	307624.3725771515
0.7570064663887024	214791.3653576005
0.7594954967498779	135305.81960665082
0.7620013952255249	72262.636256605
0.7645244002342224	29379.41487025252
0.7670646905899048	9122.994160588563
0.7696225643157959	9749.083845963234
0.7721980810165405	35381.70159810482
0.7747915983200073	92347.02073079011
0.7774031162261963	168645.9216925666
0.7800329327583313	267714.84949549334
0.7826811671257019	428739.3105527946
0.7853479981422424	640879.6656828047
0.7880334854125977	859542.3920388113
0.7907378077507019	986515.8143159437
0.7934610247612	960733.1910747335
0.7962033748626709	1198609.77932423
0.7989648580551147	1827897.1141956975
0.801745593547821	2394532.059704051
0.8045456409454346	2826126.1300798533
0.8073651194572449	3246512.694703894
0.8102040886878967	3660668.463174851
0.8130625486373901	4100012.191967421
0.8159406185150146	4577448.755048648
0.8188382983207703	5099443.703962561
0.8217556476593018	5744732.988015741
0.8246926665306091	6475270.847130265
0.8276493549346924	7197278.280043703
0.8306257724761963	7924216.659896765
0.8336219191551208	8668618.728051698
0.8366377949714661	9435960.15747854
0.8396733403205872	10254970.519191932
0.8427285552024841	11152273.686084839
0.8458034992218018	12004747.002943696
0.8488980531692505	12100491.257135196
0.8520121574401855	11899718.94261786
0.8551458716392517	13591729.057202557
0.8582990765571594	16030653.992534261
0.8614717125892639	16784921.00724169
0.8646637797355652	17125733.45143379
0.8678751587867737	18334096.15219194
0.8711057901382446	19709031.234989237
0.8743556141853333	20937086.634947985
0.87762451171875	22242880.22381246
0.8809124231338501	23532401.033153486
0.8842192888259888	24901682.24733009
0.8875449895858765	25743974.971129943
0.8908893465995789	24623297.837840717
0.894252359867096	23679352.06999351
0.8976338505744934	27170435.004988953
0.9010337591171265	33020116.36058624
0.9044519662857056	37269692.353442885
0.9078882932662964	40135720.06598505
0.9113426208496094	42467739.2298019
0.914814829826355	44007093.47669933
0.9183048605918884	45203553.8097685
0.9218124747276306	46143835.642024405
0.925337553024292	41445874.735348016
0.9288799166679382	32096314.17685691
0.9324395060539246	29454716.412289165
0.9360161423683167	34640100.65589615
0.9396095871925354	39548484.92789547
0.943219780921936	38332985.06639655
0.9468464851379395	35057453.12679961
0.9504896402359009	37079403.697165005
0.9541489481925964	42731684.66382421
0.9578243494033813	44925151.15216568
0.9615156054496765	41581092.981573895
0.9652225375175476	39869675.32879631
0.9689450263977051	45233664.76053527
0.9726828336715698	55948600.05802872
0.9764357805252075	63693936.76298511
0.9802037477493286	66302368.56229067
0.983986496925354	70205506.41459987
0.9877838492393494	75034579.30144651
0.9915955662727356	77115007.18575998
0.9954215884208679	75266067.03399622
0.9992615580558777	69877807.5134243
1.0031154155731201	67584762.92493606
1.0069829225540161	72232595.00776334
1.0108637809753418	80469801.69041143
1.0147579908370972	89591490.30686267
1.018665075302124	97109044.26418428
1.022585153579712	101254760.17759462
1.0265177488327026	104824606.21491933
1.0304628610610962	113008391.98834094
1.0344202518463135	124499267.74818142
1.0383895635604858	133649550.30384317
1.0423706769943237	140276132.24666545
1.0463634729385376	146984088.04546806
1.0503677129745483	152843054.05708253
1.0543830394744873	159800972.88510662
1.058409333229065	168725049.85964975
1.0624464750289917	176544693.10957256
1.0664942264556885	183337665.85732138
1.0705522298812866	191013651.16101754
1.0746204853057861	201029208.59990063
1.0786986351013184	211592242.15447992
1.0827864408493042	217459940.20804915
1.086883783340454	209241104.4980374
1.0909905433654785	180876686.6153655
1.0951062440872192	144230382.41126403
1.0992310047149658	108319235.95732188
1.10336434841156	74295421.32076284
1.1075061559677124	56672175.457149215
1.1116561889648438	50403191.09180966
1.115814208984375	44125538.67229384
1.1199802160263062	38287551.79800837
1.124153733253479	34442989.788969845
1.1283347606658936	36368952.09225085
1.1325229406356812	34197830.064984605
1.1367181539535522	33879172.82854802
1.1409201622009277	41259046.058195464
1.145128846168518	48307875.45854688
1.1493438482284546	50861861.02442069
1.1535650491714478	42736700.5226301
1.1577922105789185	34959090.63256403
1.1620250940322876	35298856.25135069
1.1662636995315552	35845348.22654513
1.170507550239563	35258096.57690798
1.174756646156311	38678227.486318395
1.1790107488632202	51505802.94060996
1.1832695007324219	73452759.00297214
1.1875330209732056	92628661.68704031
1.191800832748413	108942089.33824608
1.1960728168487549	126921816.50320154
1.2003488540649414	140586612.98399505
1.2046287059783936	153317507.95913133
1.2089121341705322	162314909.41530213
1.2131990194320679	170847749.17462787
1.2174891233444214	189093367.8969926
1.2217823266983032	210900010.51791304
1.2260783910751343	227690791.46470857
1.230377197265625	237336842.08172083
1.2346785068511963	239936743.12852764
1.238982081413269	223430931.9180658
1.2432878017425537	196103495.94532275
1.2475954294204712	183686917.5675606
1.2519049644470215	182700437.17789873
1.256216049194336	213192208.15868542
1.2605286836624146	261397315.00382403
1.2648425102233887	282675138.64822567
1.2691574096679688	289323258.9700104
1.2734732627868652	293937142.8454585
1.2777899503707886	292120513.5035654
1.2821072340011597	281088438.17763793
1.2864248752593994	264964486.0615486
1.2907428741455078	246978857.66300344
1.2950609922409058	235564938.56063876
1.2993791103363037	230630003.28714368
1.303696870803833	226059614.31871426
1.3080145120620728	221419994.33636844
1.3123314380645752	209021599.49816856
1.3166478872299194	190921127.95520547
1.3209635019302368	166392414.24684274
1.3252781629562378	126392159.18916345
1.3295916318893433	78983109.15156054
1.3339040279388428	37252158.468726985
1.3382149934768677	12091813.917564875
1.3425244092941284	4850354.784620998
1.3468321561813354	3835092.272596702
1.3511382341384888	2713162.6365939663
1.3554422855377197	2188743.9598991517
1.3597444295883179	2738474.528447524
1.3640443086624146	3063371.227580852
1.3683418035507202	3474285.625302315
1.3726370334625244	4255740.044038343
1.3769296407699585	4250946.960605988
1.381219506263733	2655727.657863822
1.3855066299438477	1464162.4679565488
1.3897908926010132	1848106.8390598134
1.3940720558166504	2664623.3046006076
1.3983501195907593	3361583.152292248
1.4026249647140503	4823418.1307340255
1.4068963527679443	5836794.053855504
1.4111642837524414	4365551.289813634
1.4154287576675415	2804110.949607448
1.419689416885376	2815697.1151920883
1.4239463806152344	3425565.017148833
1.4281994104385376	4398570.7521364335
1.4324485063552856	4657077.752683752
1.436693549156189	4511856.963125144
1.440934419631958	5619321.65221753
1.4451709985733032	7447068.5091252355
1.449403166770935	9168694.276626922
1.453631043434143	10783348.89459233
1.4578542709350586	12866541.082333952
1.4620729684829712	14787582.96192632
1.4662868976593018	15337964.40906091
1.4704961776733398	15739705.074607633
1.4747005701065063	16656035.324834526
1.4788999557495117	17165654.149918586
1.4830944538116455	18033973.97044523
1.4872838258743286	19281100.377903514
1.491468071937561	20261383.628539924
1.4956470727920532	22659653.692381833
1.4998208284378052	27485617.289752193
1.5039892196655273	31676310.45310887
1.5081522464752197	32745161.191434868
1.5123097896575928	34841486.54763063
1.5164618492126465	40159690.73822099
1.5206083059310913	47271261.76449416
1.5247491598129272	52785740.8505262
1.5288842916488647	54515026.9734647
1.5330137014389038	58015627.68175938
1.5371372699737549	62287295.14568194
1.541254997253418	64525362.27108522
1.545366883277893	69374606.33846362
1.5494728088378906	74979773.33192906
1.5535727739334106	77543771.3288434
1.5576666593551636	80175476.5908334
1.561754584312439	85871858.58235843
1.5658363103866577	92986675.7274696
1.5699119567871094	98511966.43296099
1.5739814043045044	101519063.15751289
1.5780447721481323	104330443.00628866
1.582101821899414	109553082.41748828
1.5861525535583496	115633767.15280728
1.5901970863342285	118394262.21091783
1.5942351818084717	118722603.58210556
1.5982669591903687	119572684.26392736
1.6022924184799194	119539264.16064209
1.606311559677124	118210155.32602121
1.6103241443634033	117803260.97839564
1.6143304109573364	117125279.49847908
1.6183301210403442	113905383.06665015
1.6223233938217163	110224274.61326161
1.6263102293014526	107605283.76159827
1.6302905082702637	105740205.65207721
1.634264349937439	109548764.24618986
1.638231635093689	118705023.63098876
1.6421923637390137	119642696.30814987
1.646146535873413	110229746.56560771
1.6500942707061768	106272387.69957885
1.6540353298187256	111433623.62914522
1.6579699516296387	113954658.43026179
1.661897897720337	106204017.64958999
1.6658192873001099	86344718.40935226
1.6697341203689575	74520861.96311529
1.6736423969268799	84740191.14382568
1.677544116973877	94399597.02436745
1.6814392805099487	93830368.7023942
1.6853278875350952	88966261.59932654
1.6892099380493164	80019672.85234827
1.6930854320526123	68851925.2238887
1.696954369544983	60602841.89820979
1.7008168697357178	59455500.905708075
1.7046726942062378	61848491.76717396
1.708522081375122	64284838.05491055
1.712364912033081	65577249.01948506
1.7162011861801147	65488116.09655838
1.7200311422348022	64026567.76038263
1.723854422569275	60152438.48439214
1.7276713848114014	55011377.72296814
1.731481909751892	49795842.425692
1.7352858781814575	44886912.12289646
1.7390835285186768	40196255.01336928
1.7428747415542603	35669249.14556202
1.7466596364974976	32637304.9856763
1.7504380941390991	29503487.34281889
1.7542102336883545	23863156.22264151
1.7579760551452637	20063082.332314216
1.7617355585098267	20212641.549423665
1.7654887437820435	19283556.37138539
1.7692357301712036	16057684.07795323
1.7729763984680176	12950733.071319567
1.776710867881775	10151886.704259397
1.7804391384124756	8460310.41405946
1.7841613292694092	7830696.1681074435
1.7878772020339966	6559134.544591302
1.7915871143341064	5461739.711669163
1.7952908277511597	5341904.311738803
1.7989884614944458	5127372.037351331
1.8026801347732544	3875307.204500837
1.806365728378296	2633154.683481633
1.8100452423095703	2142000.7709452547
1.8137187957763672	1898782.2183137508
1.817386507987976	1843582.214825807
1.8210482597351074	1891139.3652609873
1.8247040510177612	1871141.8510731126
1.828354001045227	1841840.5778065564
1.8319982290267944	1962988.278524834
1.8356364965438843	2110499.0590347783
1.8392690420150757	2866371.994826141
1.8428958654403687	4570753.465001896
1.8465168476104736	5370555.005065802
1.8501322269439697	4298501.265448361
1.8537418842315674	3017601.4025489823
1.8573459386825562	2774377.9378121966
1.860944390296936	2745806.4369133944
1.864537239074707	2732442.65224326
1.8681244850158691	3113150.375240751
1.871706247329712	3222482.018542844
1.8752825260162354	4067424.4404543503
1.8788533210754395	6275224.468089009
1.8824186325073242	7475671.818635898
1.8859784603118896	7118947.032467864
1.8895330429077148	7192572.700524719
1.8930821418762207	8932529.848622039
1.8966259956359863	9699712.770935386
1.9001644849777222	6655871.460073145
1.9036977291107178	4470123.242887967
1.9072256088256836	5941714.271365129
1.9107483625411987	5992775.468287311
1.9142658710479736	3709741.5455782283
1.9177782535552979	2332064.3495313246
1.9212853908538818	1848799.8461019248
1.9247875213623047	1785186.0587723162
1.9282845258712769	2111123.939903814
1.9317764043807983	2558947.291087408
1.9352631568908691	3227874.614244012
1.9387450218200684	3908301.344744088
1.942221760749817	4372683.808148265
1.9456936120986938	4315198.515051179
1.9491604566574097	4323783.6494958345
1.952622413635254	4148131.5592566426
1.956079363822937	3355708.7224294646
1.959531545639038	3339549.875231208
1.962978720664978	4476570.891972807
1.966421127319336	6821141.472875441
1.9698586463928223	9176306.439515779
1.9732913970947266	9295038.351530999
1.9767193794250488	8687333.9147072
1.9801424741744995	9534910.550330944
1.9835609197616577	12139941.819720134
1.9869745969772339	14095829.971676018
1.990383505821228	13306976.62456544
1.9937876462936401	13219798.734635537
1.9971871376037598	14171438.12596461
2.000581979751587	15104347.77370326
2.003972291946411	17557010.764177367
2.007357597351074	19595466.417879008
2.0107386112213135	20794372.910778247
2.0141148567199707	21704897.73749868
2.017486572265625	21850987.43190017
2.0208535194396973	24387918.884779964
2.0242159366607666	28216677.408023275
2.027573823928833	28822733.81744593
2.0309269428253174	28418503.46875896
2.034275770187378	29971840.340818353
2.0376198291778564	31678980.603781175
2.040959596633911	32671817.66912435
2.044294595718384	35265559.81847762
2.0476250648498535	39436854.37654206
2.0509510040283203	40520413.08492599
2.054272413253784	40121202.91282532
2.057589530944824	43292594.210581265
2.0609018802642822	46034145.63861953
2.0642096996307373	46351660.25356755
2.0675129890441895	48290208.360101834
2.0708119869232178	50564383.19045311
2.074106216430664	49977038.89905795
2.0773961544036865	48822792.2647985
2.080681324005127	49303580.95318705
2.0839622020721436	50172215.40180609
2.087238311767578	50933399.141827196
2.090510129928589	52017637.6846471
2.0937774181365967	52883392.61825947
2.0970399379730225	53316406.47053147
2.1002981662750244	53122934.81240686
2.1035518646240234	52001793.48405131
2.1068007946014404	50802078.220439665
2.1100454330444336	51078509.837634385
2.1132853031158447	52350957.676036745
2.116520881652832	52687587.27618933
2.1197516918182373	52516881.51759054
2.1229779720306396	52783002.515358865
2.12619948387146	52831350.20859653
2.1294167041778564	52408690.32051439
2.132629156112671	52031019.29262857
2.1358368396759033	51150832.25927631
2.139039993286133	49572680.40913635
2.1422386169433594	47905751.71640931
2.145432472229004	46598831.332944974
2.1486217975616455	45767917.460217126
2.151806354522705	44795787.21802204
2.1549863815307617	44435371.94180906
2.1581614017486572	44340210.55722525
2.16133189201355	43351200.08227733
2.1644976139068604	42408194.662154034
2.167658567428589	41497748.41592285
2.1708147525787354	40038870.5944115
2.173966407775879	38225735.005041726
2.1771130561828613	36472927.70740423
2.1802549362182617	35014478.68883715
2.183391809463501	33549807.235915177
2.1865241527557373	31840101.774203867
2.1896514892578125	29724285.557524778
2.1927738189697266	26430944.467580784
2.1958916187286377	21933486.231862385
2.1990041732788086	17461426.705117766
2.2021119594573975	13832359.924535317
2.2052149772644043	11657582.831860976
2.208312749862671	11946164.404345695
2.2114057540893555	14087842.503608325
2.214493751525879	15902767.807955276
2.217576742172241	16295984.960620236
2.2206547260284424	15879450.30440995
2.2237277030944824	15387999.121239595
2.2267956733703613	14417623.062741118
2.2298583984375	13224230.000178931
2.2329163551330566	12432393.74667804
2.235969066619873	11796946.571314707
2.2390167713165283	11179098.487077197
2.2420592308044434	10339297.807390405
2.2450966835021973	9403059.191334724
2.248128890991211	9301074.301898904
2.2511560916900635	9783313.81626847
2.254178285598755	9786476.725902032
2.257194995880127	9572024.762375396
2.260206699371338	9296332.212052533
2.2632133960723877	8554114.171843575
2.266214609146118	8042406.412632178
2.2692108154296875	8404336.125254968
2.2722020149230957	9223199.228267249
2.2751877307891846	9714948.928946167
2.278168201446533	9392520.739852486
2.2811436653137207	8630650.098423362
2.284113883972168	7978853.088340565
2.287078857421875	7486752.791810141
2.290038824081421	7058342.39830776
2.2929933071136475	6842013.17682121
2.295942783355713	6922033.1226254795
2.298887014389038	7221842.203091506
2.301826238632202	7901049.408934364
2.304760217666626	9098958.195498655
2.3076889514923096	10688437.978377007
2.310612440109253	12082051.461922044
2.3135311603546143	11749295.758052226
2.3164443969726562	8999509.369308626
2.319352865219116	6121032.914924101
2.322256088256836	5169728.631354128
2.3251543045043945	5186884.40753467
2.328047275543213	5097553.6901200125
2.330935478210449	4989634.81405727
2.3338186740875244	4940140.179251233
2.3366971015930176	4940919.723656934
2.3395702838897705	4906252.436783012
2.3424389362335205	4737357.557893072
2.3453025817871094	4606424.37560744
2.348161458969116	4812864.622607282
2.351015567779541	5444038.190563582
2.353865146636963	6294075.500950843
2.3567099571228027	7070954.0461954605
2.3595502376556396	7889397.081685019
2.3623859882354736	8698112.47524712
2.3652172088623047	8506134.850304615
2.368043899536133	6725477.860226788
2.370866537094116	4603774.421909801
2.3736846446990967	3855732.3332776087
2.3764986991882324	4298538.9894583
2.3793084621429443	4755097.30987686
2.3821144104003906	4970043.28012046
2.384916305541992	5343784.974955405
2.387714147567749	5968426.563927759
2.3905084133148193	6442303.105669634
2.393299102783203	6624884.7517942805
2.3960859775543213	6777204.22396845
2.398869514465332	7095440.979743063
2.4016497135162354	7233015.348866019
2.4044265747070312	7011707.530669368
2.407200336456299	7060865.053953125
2.409970998764038	7719570.761605815
2.4127390384674072	8379977.089896567
2.415503978729248	8393670.634552535
2.418266534805298	8046522.627884407
2.4210267066955566	7958531.216334653
2.4237842559814453	8084886.303698726
2.426539897918701	8262841.052990529
2.429293394088745	8833506.85755811
2.4320452213287354	9503668.615968322
2.4347951412200928	9286686.750448864
2.4375438690185547	8749341.41601159
2.440291166305542	9065706.95509607
2.443037271499634	9047391.837918907
2.445782423019409	7899555.708961402
2.4485268592834473	6981111.970566785
2.451270818710327	6759083.661425581
2.454014539718628	7045103.093730309
2.4567582607269287	7560825.5559846815
2.4595019817352295	7461119.6560942
2.4622461795806885	7247767.99770254
2.4649908542633057	7083419.3025420895
2.4677364826202393	6286002.287418881
2.4704833030700684	5344546.096322703
2.473231554031372	4559282.567547354
2.4759814739227295	3915380.2324490994
2.4787333011627197	3684623.345549302
2.481487512588501	3997182.0171873933
2.4842441082000732	4346000.762756918
