#wavelength	surface flux
0.6450077295303345	13157.586990170079
0.6472567915916443	20549.791604542603
0.6494921445846558	26449.429402088463
0.6517150402069092	29920.55269176428
0.6539263725280762	33457.47155606015
0.6561272740364075	37212.24096065866
0.6583186388015747	41216.554835184266
0.6605015397071838	45518.637392105724
0.6626768708229065	50101.29799444571
0.6648455858230591	54870.513535069316
0.6670085787773132	58667.25388365902
0.6691668033599854	59158.03778222771
0.6713210344314575	61347.88002730325
0.6734722256660461	71080.15971732666
0.6756211519241333	81767.87394179977
0.6777685880661011	89096.61531387753
0.6799154281616211	95673.35575973829
0.6820623278617859	102297.92302949187
0.6842101216316223	108971.61078169705
0.6863595843315125	115628.8638027159
0.688511312007904	122010.01756863765
0.6906660795211792	127326.65351425904
0.6928245425224304	132107.3003319256
0.6949873566627502	138476.81005404174
0.6971551775932312	145928.87781454902
0.6993286609649658	152122.81590659436
0.7015084028244019	156837.89985254678
0.7036949396133423	161381.39257446525
0.7058889269828796	165888.88717730663
0.7080909013748169	169567.4741544985
0.710301399230957	172294.07413986092
0.712520956993103	173724.4824248411
0.7147500514984131	172460.50282214503
0.7169892191886902	168208.9468910173
0.7192389369010925	164439.6176630954
0.7214996814727783	162529.7596950195
0.723771870136261	159001.70853479984
0.7260559797286987	152944.03974040446
0.7283523678779602	145806.3303152283
0.7306615710258484	138060.4295205345
0.7329838871955872	130227.0879319134
0.7353196740150452	121505.20049573637
0.7376693487167358	111136.83935723272
0.7400332689285278	100196.17836561798
0.7424117922782898	88957.45546715512
0.7448052167892456	77324.23412898311
0.7472138404846191	65777.29340745052
0.7496379613876343	54531.27900084255
0.7520779371261597	43826.68974997679
0.7545340061187744	33964.92696205693
0.7570064663887024	25109.679944393614
0.7594954967498779	17322.08170326102
0.7620013952255249	10587.59134077509
0.7645244002342224	5191.928725228693
0.7670646905899048	2121.4044338100325
0.7696225643157959	2225.391375562455
0.7721980810165405	6207.521719723997
0.7747915983200073	13885.524948741915
0.7774031162261963	23166.840724395202
0.7800329327583313	34435.350132042964
0.7826811671257019	51980.68562673317
0.7853479981422424	75326.41320071288
0.7880334854125977	100512.41803850008
0.7907378077507019	116714.17811133187
0.7934610247612	116839.83013469762
0.7962033748626709	147822.31613141598
0.7989648580551147	225241.23785786788
0.801745593547821	298094.91660114756
0.8045456409454346	357126.47292717214
0.8073651194572449	414219.4669634571
0.8102040886878967	467025.933260016
0.8130625486373901	524703.1512846141
0.8159406185150146	602299.6750139542
0.8188382983207703	694991.5614168111
0.8217556476593018	791096.5422219122
0.8246926665306091	894052.5297677668
0.8276493549346924	1005615.5849172965
0.8306257724761963	1119790.7899463074
0.8336219191551208	1234766.443354994
0.8366377949714661	1354980.9778120178
0.8396733403205872	1490702.347331431
0.8427285552024841	1650484.0375900944
0.8458034992218018	1821429.5542114812
0.8488980531692505	1902577.8285816708
0.8520121574401855	1940100.600391497
0.8551458716392517	2227991.3938109665
0.8582990765571594	2659829.990245661
0.8614717125892639	2969752.850554098
0.8646637797355652	3228425.7262864844
0.8678751587867737	3510156.5137282033
0.8711057901382446	3815139.9277813057
0.8743556141853333	4125632.593632335
0.87762451171875	4421626.724934581
0.8809124231338501	4682445.180279593
0.8842192888259888	4906184.239287334
0.8875449895858765	5015405.858911919
0.8908893465995789	4739256.381364189
0.894252359867096	4407481.771939255
0.8976338505744934	5003721.584434221
0.9010337591171265	6246338.063638684
0.9044519662857056	7191163.891906681
0.9078882932662964	7730735.665305684
0.9113426208496094	8083713.544519005
0.914814829826355	8272528.9758138815
0.9183048605918884	8388676.770296209
0.9218124747276306	8456026.021554084
0.925337553024292	7098317.281563652
0.9288799166679382	4512518.070327673
0.9324395060539246	3407044.6915283203
0.9360161423683167	4215746.780347772
0.9396095871925354	5175923.864134549
0.943219780921936	4709261.750604307
0.9468464851379395	3697393.350255762
0.9504896402359009	3960851.899419399
0.9541489481925964	5141293.992720755
0.9578243494033813	5598338.143217133
0.9615156054496765	4875835.575966854
0.9652225375175476	4624145.631528552
0.9689450263977051	6101008.719676407
0.9726828336715698	8736923.327629698
0.9764357805252075	10451539.419723177
0.9802037477493286	10949798.395505
0.983986496925354	12002617.4237057
0.9877838492393494	13896764.939849475
0.9915955662727356	15914212.351090144
0.9954215884208679	17693464.778071582
0.9992615580558777	19129695.904151548
1.0031154155731201	20619118.1947511
1.0069829225540161	22716749.336474575
1.0108637809753418	25368131.37543934
1.0147579908370972	28171402.516754925
1.018665075302124	30529475.532185912
1.022585153579712	32172781.63817466
1.0265177488327026	33691900.24999913
1.0304628610610962	35984634.664046936
1.0344202518463135	39030534.56993374
1.0383895635604858	41897724.867510386
1.0423706769943237	44271201.64625411
1.0463634729385376	46367299.69599425
1.0503677129745483	48449022.891848356
1.0543830394744873	51019384.13306257
1.058409333229065	53926880.85271329
1.0624464750289917	56483789.40514759
1.0664942264556885	58265177.97207663
1.0705522298812866	59743121.29337736
1.0746204853057861	61973761.320554726
1.0786986351013184	64447950.606780276
1.0827864408493042	65078175.34264319
1.086883783340454	60148463.7710372
1.0909905433654785	47708157.029718935
1.0951062440872192	33250140.701701388
1.0992310047149658	21449586.8598135
1.10336434841156	12278497.16705381
1.1075061559677124	7890116.214619256
1.1116561889648438	6375334.1959764855
1.115814208984375	4804919.677782436
1.1199802160263062	3598818.3773617554
1.124153733253479	2881892.0112710395
1.1283347606658936	3212488.7356115766
1.1325229406356812	3605415.890854726
1.1367181539535522	4835648.24235503
1.1409201622009277	6235006.8330638185
1.145128846168518	6178360.53128711
1.1493438482284546	5573720.639819965
1.1535650491714478	4061774.118826286
1.1577922105789185	2916418.304465319
1.1620250940322876	3301203.516074932
1.1662636995315552	4099200.4137604963
1.170507550239563	4987580.081608844
1.174756646156311	7040715.213581092
1.1790107488632202	11225735.516720438
1.1832695007324219	17056495.40540578
1.1875330209732056	22030440.538912818
1.191800832748413	27363577.49008767
1.1960728168487549	34176193.36859449
1.2003488540649414	40079845.8771985
1.2046287059783936	45821838.166502066
1.2089121341705322	49750614.10380962
1.2131990194320679	53294913.57202295
1.2174891233444214	60655927.36410064
1.2217823266983032	69438226.16235986
1.2260783910751343	76418977.33767103
1.230377197265625	80978092.44924837
1.2346785068511963	84216034.07845466
1.238982081413269	84335606.29058552
1.2432878017425537	81841198.13719101
1.2475954294204712	80702256.39639157
1.2519049644470215	80939231.17690209
1.256216049194336	88425824.28599901
1.2605286836624146	98234149.13127714
1.2648425102233887	100024294.1314599
1.2691574096679688	98878011.13387105
1.2734732627868652	97844521.7966008
1.2777899503707886	93962482.53556554
1.2821072340011597	85830328.05599107
1.2864248752593994	76289675.81938516
1.2907428741455078	66737373.54491683
1.2950609922409058	60493455.931769185
1.2993791103363037	57952430.418980576
1.303696870803833	56537488.389469884
1.3080145120620728	55416515.05070567
1.3123314380645752	51621231.52167391
1.3166478872299194	47229533.582948506
1.3209635019302368	41223390.26940524
1.3252781629562378	29721577.055333402
1.3295916318893433	16829306.15708501
1.3339040279388428	7045097.798147126
1.3382149934768677	1910939.3515221893
1.3425244092941284	540585.2906847153
1.3468321561813354	322496.1841845872
1.3511382341384888	198891.08281343093
1.3554422855377197	121425.28771379667
1.3597444295883179	132425.07904524103
1.3640443086624146	124786.1871432908
1.3683418035507202	137626.1725339971
1.3726370334625244	192053.0692355792
1.3769296407699585	194049.83499680916
1.381219506263733	104150.7921174817
1.3855066299438477	47245.06820803422
1.3897908926010132	77871.88875064427
1.3940720558166504	143280.17371944548
1.3983501195907593	229933.27294720037
1.4026249647140503	390335.0797748411
1.4068963527679443	482553.90618952835
1.4111642837524414	328507.09386410075
1.4154287576675415	165373.76153090835
1.419689416885376	159013.80448101586
1.4239463806152344	224477.70467121774
1.4281994104385376	336395.14122059627
1.4324485063552856	382325.5010029583
1.436693549156189	399383.77609176654
1.440934419631958	594068.4625814765
1.4451709985733032	895086.1254740576
1.449403166770935	1190632.112615651
1.453631043434143	1515144.74184497
1.4578542709350586	1987129.8545135867
1.4620729684829712	2351537.8789441613
1.4662868976593018	2380224.2631667317
1.4704961776733398	2473828.1515853223
1.4747005701065063	2665445.975293629
1.4788999557495117	2689627.242739739
1.4830944538116455	2823312.7512362655
1.4872838258743286	3041088.911105856
1.491468071937561	3222496.740943086
1.4956470727920532	3841463.1780123124
1.4998208284378052	5243664.257663722
1.5039892196655273	6621585.4023441775
1.5081522464752197	7099288.663050087
1.5123097896575928	7994256.097555233
1.5164618492126465	9966374.434097787
1.5206083059310913	12445407.82458294
1.5247491598129272	14605629.658829788
1.5288842916488647	15823677.80790633
1.5330137014389038	17532798.492829397
1.5371372699737549	19354510.173283454
1.541254997253418	20610639.65432467
1.545366883277893	22850411.853812765
1.5494728088378906	25384161.807953253
1.5535727739334106	26883052.806160122
1.5576666593551636	28595094.17390815
1.561754584312439	31792422.741239816
1.5658363103866577	35312668.059186734
1.5699119567871094	37429814.61871399
1.5739814043045044	38130720.47326299
1.5780447721481323	39074629.483463384
1.582101821899414	41391200.60835604
1.5861525535583496	43706498.333885856
1.5901970863342285	43844255.92624379
1.5942351818084717	42771073.272184566
1.5982669591903687	42192614.98971716
1.6022924184799194	40671215.21981367
1.606311559677124	38067675.14920451
1.6103241443634033	36150881.66051173
1.6143304109573364	34096727.132800095
1.6183301210403442	30534656.81764853
1.6223233938217163	26413763.51372894
1.6263102293014526	23130871.70125692
1.6302905082702637	21565228.092131343
1.634264349937439	24493664.0330341
1.638231635093689	30974721.972225506
1.6421923637390137	31277129.335740797
1.646146535873413	23647034.622513685
1.6500942707061768	20676603.47393331
1.6540353298187256	25062829.056677375
1.6579699516296387	27571372.08672059
1.661897897720337	24891584.7772582
1.6658192873001099	17207752.672187854
1.6697341203689575	11522718.443412982
1.6736423969268799	13558152.21559667
1.677544116973877	15807011.747519039
1.6814392805099487	15387768.557631489
1.6853278875350952	14255789.508414147
1.6892099380493164	11909928.865964923
1.6930854320526123	8987539.770130634
1.696954369544983	6782209.580552279
1.7008168697357178	6495644.868990406
1.7046726942062378	7516148.362867687
1.708522081375122	9232218.760367004
1.712364912033081	11289378.035258932
1.7162011861801147	13085183.970771737
1.7200311422348022	13988682.846242512
1.723854422569275	13283155.414263926
1.7276713848114014	11812817.65330238
1.731481909751892	10579435.298329905
1.7352858781814575	9577830.149568623
1.7390835285186768	8738847.223491495
1.7428747415542603	7913145.008650335
1.7466596364974976	7240491.775713184
1.7504380941390991	6445075.497152907
1.7542102336883545	5047966.640570624
1.7579760551452637	4061583.0765893827
1.7617355585098267	3922369.4199937168
1.7654887437820435	3513687.0941430763
1.7692357301712036	2739065.959804471
1.7729763984680176	2102761.678466886
1.776710867881775	1552878.784741956
1.7804391384124756	1242165.418342557
1.7841613292694092	1149881.2911500395
1.7878772020339966	900037.7228790687
1.7915871143341064	658677.4600026435
1.7952908277511597	646441.3808215612
1.7989884614944458	657285.7364465635
1.8026801347732544	451041.01966346015
1.806365728378296	231631.47530631974
1.8100452423095703	161146.74824336197
1.8137187957763672	128633.1086708024
1.817386507987976	115432.87250174768
1.8210482597351074	116005.3955695433
1.8247040510177612	109642.94977484556
1.828354001045227	96247.97240487518
1.8319982290267944	94781.6399827113
1.8356364965438843	102213.49188700822
1.8392690420150757	174739.36442257467
1.8428958654403687	392803.0254485889
1.8465168476104736	552439.1976197731
1.8501322269439697	439697.7833921752
1.8537418842315674	277988.3940426205
1.8573459386825562	284721.59380723094
1.860944390296936	292506.51265575725
1.864537239074707	235430.46827956845
1.8681244850158691	217539.09754758555
1.871706247329712	208236.77951328224
1.8752825260162354	355800.56100348267
1.8788533210754395	769836.548709141
1.8824186325073242	976035.6019314777
1.8859784603118896	793002.8132836648
1.8895330429077148	748668.7707652106
1.8930821418762207	1215660.4904346506
1.8966259956359863	1461079.8225910903
1.9001644849777222	839110.4744160541
1.9036977291107178	351685.9198531658
1.9072256088256836	481737.1720132424
1.9107483625411987	482251.98164844635
1.9142658710479736	248699.8361601763
1.9177782535552979	126839.50825862896
1.9212853908538818	100172.64932460707
1.9247875213623047	105133.8436991786
1.9282845258712769	137246.64696099077
1.9317764043807983	181559.03939316064
1.9352631568908691	252547.71978026634
1.9387450218200684	352370.3076937247
1.942221760749817	455130.32055063965
1.9456936120986938	482829.57544211386
1.9491604566574097	518288.7278221669
1.952622413635254	511056.41554537683
1.956079363822937	387974.8975379985
1.959531545639038	386895.00813787465
1.962978720664978	605901.0476953099
1.966421127319336	1095453.5744959852
1.9698586463928223	1618408.133047801
1.9732913970947266	1660352.3600788994
1.9767193794250488	1475763.6951031587
1.9801424741744995	1688001.8443108487
1.9835609197616577	2483013.363947666
1.9869745969772339	3043705.2897302518
1.990383505821228	2754923.729334454
1.9937876462936401	2623375.184394996
1.9971871376037598	2985922.987311662
2.000581979751587	3335717.348423974
2.003972291946411	3630100.9163589673
2.007357597351074	4266671.865989317
2.0107386112213135	5452712.046496911
2.0141148567199707	6078013.513663485
2.017486572265625	5971093.922279113
2.0208535194396973	6687466.543096206
2.0242159366607666	7796020.616479166
2.027573823928833	8072321.242891557
2.0309269428253174	8237626.133152748
2.034275770187378	8941232.660290338
2.0376198291778564	9723303.335777974
2.040959596633911	10366449.66548883
2.044294595718384	11739493.608441507
2.0476250648498535	13731321.207479997
2.0509510040283203	14083550.396280786
2.054272413253784	13578980.766971992
2.057589530944824	14803940.45648007
2.0609018802642822	16189992.535033133
2.0642096996307373	16493734.150813099
2.0675129890441895	17098812.61568868
2.0708119869232178	17770768.044365566
2.074106216430664	17495498.07262226
2.0773961544036865	16979196.60641494
2.080681324005127	16977790.855336905
2.0839622020721436	17167258.769313585
2.087238311767578	17413718.15739747
2.090510129928589	17690928.11929164
2.0937774181365967	17716559.35705795
2.0970399379730225	17587751.11945063
2.1002981662750244	17242640.746652596
2.1035518646240234	16573272.891498623
2.1068007946014404	15904978.025784405
2.1100454330444336	15676031.994924687
2.1132853031158447	15797792.915093558
2.116520881652832	15700004.281214032
2.1197516918182373	15425251.381608581
2.1229779720306396	15288767.163694473
2.12619948387146	15140854.229867289
2.1294167041778564	14869449.332316568
2.132629156112671	14606578.964482417
2.1358368396759033	14114983.92564093
2.139039993286133	13385653.347306663
2.1422386169433594	12477282.243842674
2.145432472229004	11591237.569013292
2.1486217975616455	11113461.491022937
2.151806354522705	10629843.477451205
2.1549863815307617	10370220.592740959
2.1581614017486572	10264585.952689307
2.16133189201355	9797876.86417883
2.1644976139068604	9431581.87650198
2.167658567428589	9145121.996227734
2.1708147525787354	8715104.191726299
2.173966407775879	8236983.883210415
2.1771130561828613	7745758.072318884
2.1802549362182617	7242172.231396724
2.183391809463501	6713257.556555419
2.1865241527557373	6152669.642693556
2.1896514892578125	5444216.144552833
2.1927738189697266	4363983.782628701
2.1958916187286377	3084490.4048824604
2.1990041732788086	2044829.6020488811
2.2021119594573975	1408846.085880709
2.2052149772644043	1221857.2149000848
2.208312749862671	1476758.9407614057
2.2114057540893555	1918718.6776608077
2.214493751525879	2181263.4710494257
2.217576742172241	2134607.379231157
2.2206547260284424	1932006.2517822164
2.2237277030944824	1760467.5578233704
2.2267956733703613	1586574.3528915406
2.2298583984375	1409602.2472569512
2.2329163551330566	1285364.782738146
2.235969066619873	1178504.6270709625
2.2390167713165283	1080603.288616217
2.2420592308044434	935912.7886235164
2.2450966835021973	747564.0509557972
2.248128890991211	713648.1020145196
2.2511560916900635	831735.5569396386
2.254178285598755	867809.9576939795
2.257194995880127	836554.1865010168
2.260206699371338	803287.3482480372
2.2632133960723877	724672.6426695136
2.266214609146118	688054.7268557358
2.2692108154296875	766577.2350125598
2.2722020149230957	908803.390224804
2.2751877307891846	999195.8060995945
2.278168201446533	963642.7993351824
2.2811436653137207	860818.0278470817
2.284113883972168	773579.0872031084
2.287078857421875	710756.0001455754
2.290038824081421	653324.9163185919
2.2929933071136475	629365.6923857988
2.295942783355713	644378.4841383663
2.298887014389038	663418.5133241809
2.301826238632202	734488.1832918865
2.304760217666626	981679.7470669018
2.3076889514923096	1455460.334443598
2.310612440109253	1947823.2242641067
2.3135311603546143	1939997.9320642203
2.3164443969726562	1281937.7677806192
2.319352865219116	658530.4889856677
2.322256088256836	514902.0502968689
2.3251543045043945	558290.3082735896
2.328047275543213	556519.1364088876
2.330935478210449	542208.9270039606
2.3338186740875244	531775.8071247938
2.3366971015930176	505867.2841971506
2.3395702838897705	466850.450472034
2.3424389362335205	419087.9519065287
2.3453025817871094	384795.4666371559
2.348161458969116	399287.2546728239
2.351015567779541	477951.40404125256
2.353865146636963	599746.6525732718
2.3567099571228027	734264.4950683671
2.3595502376556396	899673.366894998
2.3623859882354736	1054134.776375635
2.3652172088623047	1007775.0982426624
2.368043899536133	705428.5577283859
2.370866537094116	397821.6430093889
2.3736846446990967	314391.62118824414
2.3764986991882324	404347.8298047672
2.3793084621429443	514472.51400698797
2.3821144104003906	576961.4160611695
2.384916305541992	622589.9202723302
2.387714147567749	690912.8142677835
2.3905084133148193	750828.5846145272
2.393299102783203	770871.8004191442
2.3960859775543213	776651.3348096453
2.398869514465332	818327.567104098
2.4016497135162354	851074.0593439469
2.4044265747070312	828555.0541041316
2.407200336456299	857327.6881613993
2.409970998764038	1020652.0780137494
2.4127390384674072	1193469.053121464
2.415503978729248	1212883.1491070818
2.418266534805298	1153538.6148845917
2.4210267066955566	1163236.2317793577
2.4237842559814453	1204573.1075759635
2.426539897918701	1269417.6812433654
2.429293394088745	1483348.6088597728
2.4320452213287354	1720351.2143531626
2.4347951412200928	1696840.922719933
2.4375438690185547	1618451.2329496765
2.440291166305542	1812044.5513169118
2.443037271499634	1901850.6010072145
2.445782423019409	1604952.009673821
2.4485268592834473	1316574.3249303058
2.451270818710327	1295171.9213609437
2.454014539718628	1459995.7233767402
2.4567582607269287	1632984.5064848273
2.4595019817352295	1653797.7746455432
2.4622461795806885	1626842.59259843
2.4649908542633057	1570647.279468195
2.4677364826202393	1382157.4771577977
2.4704833030700684	1168966.7337894838
2.473231554031372	993479.0780187496
2.4759814739227295	854496.828418044
2.4787333011627197	805818.0515676864
2.481487512588501	865239.1880600699
