#wavelength	surface flux
0.6450077295303345	79764.98993213645
0.6472567915916443	126575.9897972937
0.6494921445846558	167242.9337472859
0.6517150402069092	194690.05952226993
0.6539263725280762	223545.65158330766
0.6561272740364075	254681.2442378477
0.6583186388015747	287855.5258328877
0.6605015397071838	322546.8483811454
0.6626768708229065	357474.2441821615
0.6648455858230591	387339.4794872002
0.6670085787773132	386726.75860107795
0.6691668033599854	324963.0104891392
0.6713210344314575	296028.25912612607
0.6734722256660461	409176.79046605324
0.6756211519241333	562366.1079703494
0.6777685880661011	657949.970598551
0.6799154281616211	723919.1626578809
0.6820623278617859	782178.8040506673
0.6842101216316223	836911.8977221464
0.6863595843315125	888598.332067762
0.688511312007904	937323.0974942419
0.6906660795211792	981756.737713008
0.6928245425224304	1022920.8204774235
0.6949873566627502	1065055.8143556435
0.6971551775932312	1106046.7471655796
0.6993286609649658	1139990.0663144833
0.7015084028244019	1165427.216204513
0.7036949396133423	1184477.7497010177
0.7058889269828796	1197629.8479172834
0.7080909013748169	1202809.5542736554
0.710301399230957	1198932.313500879
0.712520956993103	1185185.0965507599
0.7147500514984131	1159359.0804896601
0.7169892191886902	1121450.664693062
0.7192389369010925	1077653.8286979934
0.7214996814727783	1029954.0304015016
0.723771870136261	972755.2167327504
0.7260559797286987	905748.7344457593
0.7283523678779602	832566.93130071
0.7306615710258484	754994.9185054909
0.7329838871955872	674734.4901408684
0.7353196740150452	591998.2469928972
0.7376693487167358	507773.0844694653
0.7400332689285278	425283.523872336
0.7424117922782898	346374.9957214627
0.7448052167892456	272651.52803637634
0.7472138404846191	206275.03163878835
0.7496379613876343	148767.62126879205
0.7520779371261597	101299.07282662415
0.7545340061187744	64428.869573399286
0.7570064663887024	37782.202175967774
0.7594954967498779	20139.533046531327
0.7620013952255249	9495.163873996915
0.7645244002342224	3688.9912638074866
0.7670646905899048	1225.432805817833
0.7696225643157959	1325.8873485343497
0.7721980810165405	4615.728916113806
0.7747915983200073	12695.678267370951
0.7774031162261963	25658.63471878238
0.7800329327583313	48693.612042545035
0.7826811671257019	95855.76401536679
0.7853479981422424	169673.03368319818
0.7880334854125977	261201.9783391857
0.7907378077507019	329235.3538438115
0.7934610247612	346691.93747991044
0.7962033748626709	494147.0739129412
0.7989648580551147	840821.583584892
0.801745593547821	1194502.1946800959
0.8045456409454346	1513421.6957222787
0.8073651194572449	1852411.9573602122
0.8102040886878967	2217354.580438319
0.8130625486373901	2621520.9713522387
0.8159406185150146	3074110.101693808
0.8188382983207703	3578573.292655425
0.8217556476593018	4163540.288358664
0.8246926665306091	4822819.800832328
0.8276493549346924	5522652.699402947
0.8306257724761963	6264556.184275321
0.8336219191551208	7055492.385860416
0.8366377949714661	7900046.054283763
0.8396733403205872	8813166.024474287
0.8427285552024841	9798868.647960054
0.8458034992218018	10674271.463479813
0.8488980531692505	10649429.432465844
0.8520121574401855	10328030.93387721
0.8551458716392517	12162242.090852117
0.8582990765571594	14770581.013880813
0.8614717125892639	15415067.628222318
0.8646637797355652	15642331.035767594
0.8678751587867737	16966177.815711208
0.8711057901382446	18577957.991114054
0.8743556141853333	20117277.171283834
0.87762451171875	21843574.20651768
0.8809124231338501	23618716.098128974
0.8842192888259888	25426924.718725566
0.8875449895858765	26767988.663266398
0.8908893465995789	25985708.43742013
0.894252359867096	25024850.906990968
0.8976338505744934	29142049.151835155
0.9010337591171265	36058716.230776526
0.9044519662857056	40916574.079160795
0.9078882932662964	44308877.0218837
0.9113426208496094	47393021.946896054
0.914814829826355	50142866.772025414
0.9183048605918884	52772103.76510694
0.9218124747276306	54814965.99734544
0.925337553024292	51704602.15346355
0.9288799166679382	44287942.37283986
0.9324395060539246	42806782.17219042
0.9360161423683167	48874968.0392123
0.9396095871925354	54645349.15926345
0.943219780921936	54645721.38360197
0.9468464851379395	52602667.08055514
0.9504896402359009	54650639.111698195
0.9541489481925964	59128780.81046827
0.9578243494033813	60879545.32652962
0.9615156054496765	58946509.668206416
0.9652225375175476	58587260.917162284
0.9689450263977051	63497552.601113774
0.9726828336715698	71832829.49664922
0.9764357805252075	77941092.93475139
0.9802037477493286	80449617.13937786
0.983986496925354	82765331.2687016
0.9877838492393494	83875110.14524867
0.9915955662727356	82040974.85399939
0.9954215884208679	78439643.35968441
0.9992615580558777	73712659.3227098
1.0031154155731201	71615310.46214437
1.0069829225540161	74729806.01876202
1.0108637809753418	80084361.74938266
1.0147579908370972	84821079.07548074
1.018665075302124	87823008.31191194
1.022585153579712	89154967.6152842
1.0265177488327026	89939267.11315002
1.0304628610610962	92011870.38196656
1.0344202518463135	95246962.37937826
1.0383895635604858	97654929.58700253
1.0423706769943237	98634100.79292095
1.0463634729385376	98774865.58022636
1.0503677129745483	98400764.50351773
1.0543830394744873	98275923.03016588
1.058409333229065	99044254.7468776
1.0624464750289917	100180590.82258976
1.0664942264556885	100872830.97470003
1.0705522298812866	101200693.51929
1.0746204853057861	101670176.60489091
1.0786986351013184	102161428.495321
1.0827864408493042	102229586.05886687
1.086883783340454	100562985.39919306
1.0909905433654785	95312974.66800041
1.0951062440872192	87063805.17308462
1.0992310047149658	75982194.9757741
1.10336434841156	63124053.6077751
1.1075061559677124	54360179.30714262
1.1116561889648438	48612633.517054774
1.115814208984375	44052554.4494395
1.1199802160263062	41477437.65356044
1.124153733253479	40932765.48048932
1.1283347606658936	43105972.364443496
1.1325229406356812	41420075.47232864
1.1367181539535522	42795350.126555994
1.1409201622009277	50507956.31130148
1.145128846168518	54507163.39268893
1.1493438482284546	53828352.913099095
1.1535650491714478	48401964.54249517
1.1577922105789185	44667663.44736701
1.1620250940322876	45767606.93455452
1.1662636995315552	46580463.80268402
1.170507550239563	46837736.003204994
1.174756646156311	49521486.153358065
1.1790107488632202	57521670.40361591
1.1832695007324219	70354187.30039234
1.1875330209732056	80899836.81687413
1.191800832748413	87640370.0118963
1.1960728168487549	93812413.94852644
1.2003488540649414	98008062.21785109
1.2046287059783936	101116011.46042618
1.2089121341705322	103357351.60597557
1.2131990194320679	105328251.73340635
1.2174891233444214	108760822.62865938
1.2217823266983032	112381721.08490232
1.2260783910751343	115207030.40361974
1.230377197265625	117455012.10115135
1.2346785068511963	119353083.62762652
1.238982081413269	120019173.44867301
1.2432878017425537	119687656.90937492
1.2475954294204712	119605254.5836257
1.2519049644470215	120090304.3315679
1.256216049194336	124928335.31763394
1.2605286836624146	132304799.66914496
1.2648425102233887	136813612.0850538
1.2691574096679688	139803074.7146382
1.2734732627868652	142444108.57584095
1.2777899503707886	143832236.15296304
1.2821072340011597	143392384.08800784
1.2864248752593994	141561365.12094772
1.2907428741455078	139000602.814435
1.2950609922409058	137589204.0804614
1.2993791103363037	137404089.78441846
1.303696870803833	137486364.75073725
1.3080145120620728	137707437.11853313
1.3123314380645752	136592880.77870533
1.3166478872299194	134266746.3451267
1.3209635019302368	127797503.93128392
1.3252781629562378	111050434.99088101
1.3295916318893433	81029714.57092783
1.3339040279388428	43743288.294876054
1.3382149934768677	16464215.19308334
1.3425244092941284	6370356.318820412
1.3468321561813354	4359534.733626039
1.3511382341384888	2981785.621842088
1.3554422855377197	2386796.073868598
1.3597444295883179	3109907.302539246
1.3640443086624146	3824771.9303981527
1.3683418035507202	4702911.420041752
1.3726370334625244	6013043.331051123
1.3769296407699585	6164664.5529428
1.381219506263733	3844338.129929395
1.3855066299438477	1931813.9829180546
1.3897908926010132	2252262.0375155266
1.3940720558166504	3214162.0475400835
1.3983501195907593	4174562.815962291
1.4026249647140503	6091231.396929525
1.4068963527679443	7218217.353731247
1.4111642837524414	5293129.483634493
1.4154287576675415	3431735.9141092044
1.419689416885376	3496624.9269287563
1.4239463806152344	4176606.32435623
1.4281994104385376	5240862.07297217
1.4324485063552856	5667403.405106391
1.436693549156189	5817278.215751828
1.440934419631958	7423976.086228555
1.4451709985733032	9938412.711901598
1.449403166770935	12545111.828617096
1.453631043434143	15050832.886733275
1.4578542709350586	17872559.09158169
1.4620729684829712	20401751.408044472
1.4662868976593018	21238015.0230924
1.4704961776733398	21611826.292800765
1.4747005701065063	22565200.986760337
1.4788999557495117	23102521.216245703
1.4830944538116455	23782510.91754888
1.4872838258743286	24615413.681611948
1.491468071937561	25175603.280935332
1.4956470727920532	27562646.892568234
1.4998208284378052	32648460.5129832
1.5039892196655273	37116374.71160758
1.5081522464752197	38077305.62880296
1.5123097896575928	39197508.958021596
1.5164618492126465	43154504.93646983
1.5206083059310913	48099520.023814484
1.5247491598129272	51910974.416159645
1.5288842916488647	53957770.38251539
1.5330137014389038	56166357.55319953
1.5371372699737549	58345225.80012011
1.541254997253418	59613647.03923263
1.545366883277893	61241877.32980873
1.5494728088378906	62909741.9723207
1.5535727739334106	63751312.4712299
1.5576666593551636	64575553.77568934
1.561754584312439	65851989.05537569
1.5658363103866577	66625220.771403246
1.5699119567871094	66457560.4667549
1.5739814043045044	65967874.09530569
1.5780447721481323	65892825.73706853
1.582101821899414	66309286.27468515
1.5861525535583496	66496049.92047902
1.5901970863342285	65690531.407040514
1.5942351818084717	64167167.67625793
1.5982669591903687	62620333.88172261
1.6022924184799194	60739295.860164665
1.606311559677124	58529995.916712165
1.6103241443634033	56595741.55808395
1.6143304109573364	54649652.27558566
1.6183301210403442	52183495.259943955
1.6223233938217163	49467404.92000254
1.6263102293014526	47002894.41381035
1.6302905082702637	45270006.71846231
1.634264349937439	45401836.12204008
1.638231635093689	46995881.36862085
1.6421923637390137	46572552.86078536
1.646146535873413	43430482.22225272
1.6500942707061768	41995324.48789524
1.6540353298187256	43127170.23631437
1.6579699516296387	43281432.6739728
1.661897897720337	40448035.16575942
1.6658192873001099	34227092.02599752
1.6697341203689575	30802559.940012395
1.6736423969268799	33423333.08729246
1.677544116973877	35184494.624407604
1.6814392805099487	34235693.549921766
1.6853278875350952	32778926.460723978
1.6892099380493164	30864515.49524854
1.6930854320526123	28211933.13921823
1.696954369544983	25774745.017712448
1.7008168697357178	25086090.21526501
1.7046726942062378	25549529.49666791
1.708522081375122	26487345.86309147
1.712364912033081	27511759.84321084
1.7162011861801147	28181964.629752345
1.7200311422348022	28185813.471827827
1.723854422569275	27209986.917974994
1.7276713848114014	25858447.17624145
1.731481909751892	24664337.445525914
1.7352858781814575	23630534.02900779
1.7390835285186768	22623412.454837058
1.7428747415542603	21529970.462156497
1.7466596364974976	20488565.39787664
1.7504380941390991	19016799.427913018
1.7542102336883545	16671449.7544774
1.7579760551452637	15121652.113953123
1.7617355585098267	14899280.096042857
1.7654887437820435	13987498.729288071
1.7692357301712036	12194260.7381311
1.7729763984680176	10470259.74491559
1.776710867881775	8693466.117367519
1.7804391384124756	7528639.757157891
1.7841613292694092	6935028.7187224915
1.7878772020339966	5916502.249113217
1.7915871143341064	5055262.55865441
1.7952908277511597	4825531.071020387
1.7989884614944458	4497125.813020685
1.8026801347732544	3446696.2499458794
1.806365728378296	2462277.7199681276
1.8100452423095703	2048108.119406413
1.8137187957763672	1809019.534745944
1.817386507987976	1728224.5876607043
1.8210482597351074	1746238.9275557515
1.8247040510177612	1717916.015913511
1.828354001045227	1685424.8223580658
1.8319982290267944	1770854.243168026
1.8356364965438843	1857743.1190598523
1.8392690420150757	2419831.681596447
1.8428958654403687	3752372.43723962
1.8465168476104736	4399081.070066482
1.8501322269439697	3630883.688162599
1.8537418842315674	2677249.5442593507
1.8573459386825562	2492439.182040603
1.860944390296936	2455379.708496441
1.864537239074707	2342938.2466495414
1.8681244850158691	2524115.0842472836
1.871706247329712	2606309.127327643
1.8752825260162354	3287260.1957131233
1.8788533210754395	4897410.82696485
1.8824186325073242	5746801.2117349235
1.8859784603118896	5456329.420984019
1.8895330429077148	5360783.194010485
1.8930821418762207	6177633.626744521
1.8966259956359863	6420503.976447973
1.9001644849777222	4575231.106690759
1.9036977291107178	3152236.232298643
1.9072256088256836	3780919.351659553
1.9107483625411987	3871415.7853314895
1.9142658710479736	2756079.3961461233
1.9177782535552979	1982899.2231360972
1.9212853908538818	1604967.4961337836
1.9247875213623047	1549410.2570844232
1.9282845258712769	1807641.5345456537
1.9317764043807983	2096871.9034975255
1.9352631568908691	2464769.4933188157
1.9387450218200684	2816455.8063568124
1.942221760749817	3067241.3778969664
1.9456936120986938	3101958.117949998
1.9491604566574097	3217518.5557196704
1.952622413635254	3139494.116560926
1.956079363822937	2629001.7255807747
1.959531545639038	2672064.2691146056
1.962978720664978	3477822.834212193
1.966421127319336	4686827.795206831
1.9698586463928223	5698942.814794146
1.9732913970947266	5789447.802951797
1.9767193794250488	5495844.124874173
1.9801424741744995	5710002.089937042
1.9835609197616577	6737546.093216774
1.9869745969772339	7624580.862353879
1.990383505821228	7458345.935719746
1.9937876462936401	7380011.268288809
1.9971871376037598	7824231.141288392
2.000581979751587	8194212.831989153
2.003972291946411	8375331.945417717
2.007357597351074	8702145.939566849
2.0107386112213135	9431511.047188412
2.0141148567199707	9782616.203350466
2.017486572265625	9617865.254431557
2.0208535194396973	9793509.926570604
2.0242159366607666	10147581.005871838
2.027573823928833	10293021.044145714
2.0309269428253174	10406716.684349932
2.034275770187378	10587481.728405807
2.0376198291778564	10823212.491855029
2.040959596633911	11027131.572349928
2.044294595718384	11316071.158771703
2.0476250648498535	11711644.78577414
2.0509510040283203	11808427.26282825
2.054272413253784	11683830.096755462
2.057589530944824	11789113.054261545
2.0609018802642822	11962224.221131235
2.0642096996307373	11969276.674455207
2.0675129890441895	11947984.27203589
2.0708119869232178	11930363.968766866
2.074106216430664	11846528.04499088
2.0773961544036865	11755282.821425186
2.080681324005127	11707210.859032994
2.0839622020721436	11678976.942643894
2.087238311767578	11660064.585551927
2.090510129928589	11634338.601837555
2.0937774181365967	11580052.488803856
2.0970399379730225	11512485.244629234
2.1002981662750244	11426155.75006636
2.1035518646240234	11313024.342950536
2.1068007946014404	11199730.27879543
2.1100454330444336	11122981.600412069
2.1132853031158447	11079208.762689589
2.116520881652832	11022474.773348477
2.1197516918182373	10952803.370059472
2.1229779720306396	10893644.607958835
2.12619948387146	10832557.641607692
2.1294167041778564	10760415.001938935
2.132629156112671	10685794.835634679
2.1358368396759033	10585786.294954685
2.139039993286133	10464877.939769093
2.1422386169433594	10323759.293584678
2.145432472229004	10191174.448621359
2.1486217975616455	10100803.951080639
2.151806354522705	9988604.104750093
2.1549863815307617	9913079.982145652
2.1581614017486572	9865584.502275502
2.16133189201355	9758076.196351143
2.1644976139068604	9648064.600489018
2.167658567428589	9544309.975038905
2.1708147525787354	9437260.1400378
2.173966407775879	9321217.062291283
2.1771130561828613	9157449.080048682
2.1802549362182617	8956435.892820613
2.183391809463501	8762432.680401701
2.1865241527557373	8541049.5316545
2.1896514892578125	8163880.475577959
2.1927738189697266	7575285.365960833
2.1958916187286377	6927147.70258173
2.1990041732788086	6314893.240615927
2.2021119594573975	5719319.8349221805
2.2052149772644043	5319557.542800926
2.208312749862671	5417939.413578783
2.2114057540893555	5897450.230619642
2.214493751525879	6274357.518797937
2.217576742172241	6319693.90667266
2.2206547260284424	6171484.235391981
2.2237277030944824	6010132.997956033
2.2267956733703613	5800927.247993559
2.2298583984375	5578918.296275803
2.2329163551330566	5433615.424561835
2.235969066619873	5299419.380535926
2.2390167713165283	5121811.042811597
2.2420592308044434	4802505.317866603
2.2450966835021973	4364465.994245668
2.248128890991211	4234282.83842225
2.2511560916900635	4467814.67030178
2.254178285598755	4557982.462544846
2.257194995880127	4494657.69192797
2.260206699371338	4454605.402401377
2.2632133960723877	4328901.379240143
2.266214609146118	4257258.282656408
2.2692108154296875	4408987.6661443785
2.2722020149230957	4654834.980078136
2.2751877307891846	4771801.970804779
2.278168201446533	4658257.441780797
2.2811436653137207	4427972.390530727
2.284113883972168	4229412.367878289
2.287078857421875	4079186.5560385617
2.290038824081421	3959582.4892607694
2.2929933071136475	3931940.901997198
2.295942783355713	3992713.7053907714
2.298887014389038	4071150.637894039
2.301826238632202	4243023.143699773
2.304760217666626	4648223.1189704435
2.3076889514923096	5223002.006857407
2.310612440109253	5662181.622962776
2.3135311603546143	5488690.36914308
2.3164443969726562	4519502.385197533
2.319352865219116	3558483.205613846
2.322256088256836	3348333.534238743
2.3251543045043945	3415886.9279702115
2.328047275543213	3324581.9166313997
2.330935478210449	3287353.1341335685
2.3338186740875244	3325053.3976650485
2.3366971015930176	3307552.8332522674
2.3395702838897705	3245665.84787692
2.3424389362335205	3144964.016880869
2.3453025817871094	3067639.900683922
2.348161458969116	3156701.608623763
2.351015567779541	3452029.1219674223
2.353865146636963	3841551.7042851886
2.3567099571228027	4184999.5450914484
2.3595502376556396	4498717.425125002
2.3623859882354736	4755874.470162692
2.3652172088623047	4616703.1921900585
2.368043899536133	3850541.8949333597
2.370866537094116	2940342.55240028
2.3736846446990967	2683762.8106816756
2.3764986991882324	3027036.685290828
2.3793084621429443	3357278.4610984977
2.3821144104003906	3501232.647271309
2.384916305541992	3662739.7765894374
2.387714147567749	3934469.206586948
2.3905084133148193	4145314.2723366623
2.393299102783203	4214002.492197494
2.3960859775543213	4248350.435265756
2.398869514465332	4361185.308438646
2.4016497135162354	4436352.892133532
2.4044265747070312	4372520.512068249
2.407200336456299	4402998.383233153
2.409970998764038	4685264.088977155
2.4127390384674072	4980766.073296865
2.415503978729248	5012774.664016444
2.418266534805298	4901384.159718005
2.4210267066955566	4909141.529938332
2.4237842559814453	5007577.513125193
2.426539897918701	5127085.867007376
2.429293394088745	5401975.309173915
2.4320452213287354	5700974.367324701
2.4347951412200928	5648235.496970649
2.4375438690185547	5490081.0937420605
2.440291166305542	5691989.669063955
2.443037271499634	5777272.52764328
2.445782423019409	5362242.057287083
2.4485268592834473	4979810.779167219
2.451270818710327	4907114.656198651
2.454014539718628	5049619.690252225
2.4567582607269287	5250138.150918987
2.4595019817352295	5220877.306095826
2.4622461795806885	5165958.752735326
2.4649908542633057	5106173.662733454
2.4677364826202393	4763730.69516816
2.4704833030700684	4313123.102660736
2.473231554031372	3849335.9309506156
2.4759814739227295	3420001.0482590823
2.4787333011627197	3257755.435645507
2.481487512588501	3459117.0571414097
2.4842441082000732	3647166.4160343213
