#wavelength	surface flux
0.6450077295303345	361504.9621034636
0.6472567915916443	562200.1554366816
0.6494921445846558	716762.2607754467
0.6517150402069092	800992.7039133958
0.6539263725280762	885157.8701665563
0.6561272740364075	973309.8686327989
0.6583186388015747	1064901.9347089645
0.6605015397071838	1158876.5686012795
0.6626768708229065	1252145.108544013
0.6648455858230591	1331809.583367879
0.6670085787773132	1326818.7618016049
0.6691668033599854	1141324.4705124625
0.6713210344314575	1047161.8697631831
0.6734722256660461	1360127.9132380749
0.6756211519241333	1770134.104526214
0.6777685880661011	2003790.5575831537
0.6799154281616211	2157820.034620728
0.6820623278617859	2293591.6948436983
0.6842101216316223	2421522.4361274363
0.6863595843315125	2542716.4738853136
0.688511312007904	2652821.879275367
0.6906660795211792	2743120.9733351055
0.6928245425224304	2827152.8504524515
0.6949873566627502	2932557.874178105
0.6971551775932312	3047964.284105405
0.6993286609649658	3141527.3665053155
0.7015084028244019	3209716.84167787
0.7036949396133423	3265499.436014198
0.7058889269828796	3311555.8004951854
0.7080909013748169	3342109.883892216
0.710301399230957	3354639.6795004974
0.712520956993103	3346509.6920479895
0.7147500514984131	3309032.7259660317
0.7169892191886902	3242197.7446669885
0.7192389369010925	3167281.4364218647
0.7214996814727783	3090386.364638218
0.723771870136261	2992468.392537684
0.7260559797286987	2869139.0817218507
0.7283523678779602	2727022.7807015437
0.7306615710258484	2569379.0260778395
0.7329838871955872	2401187.844014993
0.7353196740150452	2219921.6480704034
0.7376693487167358	2023402.466823378
0.7400332689285278	1819614.450876858
0.7424117922782898	1610459.0730822592
0.7448052167892456	1396524.1584889025
0.7472138404846191	1183047.1599838892
0.7496379613876343	973420.6599798605
0.7520779371261597	771616.5848351354
0.7545340061187744	582412.6549953889
0.7570064663887024	410344.6767375543
0.7594954967498779	260717.47516713277
0.7620013952255249	139643.96109742433
0.7645244002342224	56051.195414564034
0.7670646905899048	16506.44418240616
0.7696225643157959	17650.071602697735
0.7721980810165405	67005.05545997179
0.7747915983200073	176110.83166394345
0.7774031162261963	319817.3540593057
0.7800329327583313	501277.41319285054
0.7826811671257019	791584.6489826671
0.7853479981422424	1170005.6243683756
0.7880334854125977	1554770.9654044637
0.7907378077507019	1772987.5990206704
0.7934610247612	1717263.6926762462
0.7962033748626709	2125134.97705158
0.7989648580551147	3223873.3328771726
0.801745593547821	4210148.903224119
0.8045456409454346	4956752.580775559
0.8073651194572449	5688761.212763969
0.8102040886878967	6421788.276271017
0.8130625486373901	7187525.062524348
0.8159406185150146	7934281.768696535
0.8188382983207703	8728197.21448089
0.8217556476593018	9893236.441687988
0.8246926665306091	11279898.300031861
0.8276493549346924	12578317.652870081
0.8306257724761963	13863312.269841589
0.8336219191551208	15188522.828013359
0.8366377949714661	16558549.768168032
0.8396733403205872	18011035.918102898
0.8427285552024841	19580255.1126514
0.8458034992218018	21012497.686251238
0.8488980531692505	20957611.532973714
0.8520121574401855	20328084.50026479
0.8551458716392517	23229657.467454713
0.8582990765571594	27083942.015487395
0.8614717125892639	26810924.71942196
0.8646637797355652	25747995.660304867
0.8678751587867737	27248520.559540775
0.8711057901382446	29272171.606838193
0.8743556141853333	30922732.61426348
0.87762451171875	32822506.522684954
0.8809124231338501	34683976.02336627
0.8842192888259888	36905147.69829863
0.8875449895858765	38402112.1354957
0.8908893465995789	36943098.77824083
0.894252359867096	36534653.93178112
0.8976338505744934	42747750.57024178
0.9010337591171265	51876437.62006557
0.9044519662857056	58662373.77882606
0.9078882932662964	63566187.38625304
0.9113426208496094	67817123.60951528
0.914814829826355	70557508.77674115
0.9183048605918884	72571165.47765881
0.9218124747276306	74592134.18679285
0.925337553024292	68723394.28413856
0.9288799166679382	56120961.99216004
0.9324395060539246	53351633.87165174
0.9360161423683167	61657319.63044791
0.9396095871925354	68977908.14567514
0.943219780921936	67375002.44293427
0.9468464851379395	63040713.196399726
0.9504896402359009	66038310.000643104
0.9541489481925964	73454291.25835545
0.9578243494033813	75947382.7219075
0.9615156054496765	70999420.64566042
0.9652225375175476	68399085.71366535
0.9689450263977051	75587046.29387957
0.9726828336715698	90399799.16884913
0.9764357805252075	101718164.55854638
0.9802037477493286	106235903.6184917
0.983986496925354	111900187.61963634
0.9877838492393494	116129520.66079405
0.9915955662727356	114035185.88328305
0.9954215884208679	107119787.27940978
0.9992615580558777	95855061.68512857
1.0031154155731201	89792086.58976395
1.0069829225540161	95354709.96917121
1.0108637809753418	106642980.77245542
1.0147579908370972	119312688.74553621
1.018665075302124	129684270.36058865
1.022585153579712	134547124.75427428
1.0265177488327026	138226842.1430749
1.0304628610610962	149583369.06850597
1.0344202518463135	166325937.85312495
1.0383895635604858	178591818.13042328
1.0423706769943237	185352545.46619675
1.0463634729385376	190785172.59534413
1.0503677129745483	193821671.46485835
1.0543830394744873	197771922.8141254
1.058409333229065	205582014.65085292
1.0624464750289917	214418997.45786616
1.0664942264556885	224302975.8273096
1.0705522298812866	236519252.1896877
1.0746204853057861	251878247.46457618
1.0786986351013184	267722204.43187028
1.0827864408493042	277807099.11373705
1.086883783340454	272127184.67329204
1.0909905433654785	243683527.95217967
1.0951062440872192	204025400.60053945
1.0992310047149658	161328453.05138135
1.10336434841156	117856228.41597266
1.1075061559677124	94886691.86884443
1.1116561889648438	86800911.85307054
1.115814208984375	78747787.49156432
1.1199802160263062	70465453.5458986
1.124153733253479	64696277.857057005
1.1283347606658936	67144817.7387019
1.1325229406356812	61189508.22447698
1.1367181539535522	56174293.2492485
1.1409201622009277	66199039.214820154
1.145128846168518	80726733.51771802
1.1493438482284546	88184896.41236597
1.1535650491714478	77168344.81397182
1.1577922105789185	65505899.136821985
1.1620250940322876	64632830.46624718
1.1662636995315552	62263409.2041226
1.170507550239563	58000820.757791966
1.174756646156311	60001503.499096565
1.1790107488632202	75797800.83550254
1.1832695007324219	105879924.58491461
1.1875330209732056	132808443.79740764
1.191800832748413	153863051.96318895
1.1960728168487549	175405079.72687462
1.2003488540649414	191319343.04126456
1.2046287059783936	206537941.53949124
1.2089121341705322	217856442.91856647
1.2131990194320679	228845384.7261643
1.2174891233444214	251403365.47389153
1.2217823266983032	278171907.18893117
1.2260783910751343	299034775.7495777
1.230377197265625	310816819.1919089
1.2346785068511963	312653651.94801944
1.238982081413269	287816083.1335122
1.2432878017425537	248485056.0950285
1.2475954294204712	231079524.617058
1.2519049644470215	229794071.96064538
1.256216049194336	270701090.9590385
1.2605286836624146	335931905.68329835
1.2648425102233887	365424194.7326909
1.2691574096679688	375690863.41687745
1.2734732627868652	382940712.84728575
1.2777899503707886	382545642.2257596
1.2821072340011597	371955339.44510335
1.2864248752593994	354693809.36436045
1.2907428741455078	334808434.0099917
1.2950609922409058	322823997.9563315
1.2993791103363037	318100293.78983784
1.303696870803833	313070544.9977909
1.3080145120620728	307361413.03903633
1.3123314380645752	292080361.93221104
1.3166478872299194	268579566.5537693
1.3209635019302368	235919656.79951003
1.3252781629562378	183304488.2164835
1.3295916318893433	118721435.71146238
1.3339040279388428	58161710.15915399
1.3382149934768677	20015626.588648144
1.3425244092941284	8897197.81866042
1.3468321561813354	7440253.112476046
1.3511382341384888	5511734.278119814
1.3554422855377197	4713181.8414708385
1.3597444295883179	5948260.035979085
1.3640443086624146	6800613.544436533
1.3683418035507202	7702627.937752972
1.3726370334625244	9138000.700259708
1.3769296407699585	9101960.024048718
1.381219506263733	5995271.486059163
1.3855066299438477	3593437.5528419367
1.3897908926010132	4300088.040881698
1.3940720558166504	5779266.718347124
1.3983501195907593	6870127.295189765
1.4026249647140503	9307248.798944423
1.4068963527679443	11092628.094464675
1.4111642837524414	8578031.701076593
1.4154287576675415	5911686.7372091375
1.419689416885376	5967928.937968256
1.4239463806152344	6967002.804839467
1.4281994104385376	8537454.031282574
1.4324485063552856	8903923.818088472
1.436693549156189	8581210.067020021
1.440934419631958	10263029.227613162
1.4451709985733032	13087190.483562382
1.449403166770935	15728578.846110918
1.453631043434143	18118140.566114753
1.4578542709350586	21127604.112647153
1.4620729684829712	23986736.62632972
1.4662868976593018	24844475.138532754
1.4704961776733398	25335741.96601997
1.4747005701065063	26603630.515950955
1.4788999557495117	27400375.32212203
1.4830944538116455	28684024.49847412
1.4872838258743286	30471460.99036343
1.491468071937561	31844158.704377808
1.4956470727920532	35115307.41280778
1.4998208284378052	41582631.70810627
1.5039892196655273	47167439.37850283
1.5081522464752197	48600349.96998617
1.5123097896575928	51168887.92433239
1.5164618492126465	57925488.86093438
1.5206083059310913	67116504.46487528
1.5247491598129272	73989835.08082177
1.5288842916488647	75798746.29794149
1.5330137014389038	80039304.19235323
1.5371372699737549	85407450.58556107
1.541254997253418	88189738.96285444
1.545366883277893	94196628.18270579
1.5494728088378906	101079207.03648365
1.5535727739334106	104152101.57040057
1.5576666593551636	107258408.8926832
1.561754584312439	114113640.01677565
1.5658363103866577	123016866.97535396
1.5699119567871094	130318866.16307072
1.5739814043045044	134561217.7615059
1.5780447721481323	138283011.90012938
1.582101821899414	144825213.9133992
1.5861525535583496	152822716.47207227
1.5901970863342285	157174805.82152194
1.5942351818084717	158517460.83246124
1.5982669591903687	160307744.7696183
1.6022924184799194	161497478.15757573
1.606311559677124	161571807.70218173
1.6103241443634033	162646259.66071913
1.6143304109573364	163431314.90806156
1.6183301210403442	161361082.9058728
1.6223233938217163	159275028.36688536
1.6263102293014526	158517958.03191128
1.6302905082702637	157208351.4795999
1.634264349937439	160443091.0167737
1.638231635093689	169021215.26892185
1.6421923637390137	170417655.1065038
1.646146535873413	162865006.0770701
1.6500942707061768	159260582.75565386
1.6540353298187256	162885363.39072287
1.6579699516296387	164410206.29962337
1.661897897720337	155889433.97946686
1.6658192873001099	135484741.09383646
1.6697341203689575	124011153.24199495
1.6736423969268799	135569802.68299368
1.677544116973877	146479610.38630038
1.6814392805099487	145660883.08723295
1.6853278875350952	139125605.41337302
1.6892099380493164	127492782.99061275
1.6930854320526123	113455174.65299729
1.696954369544983	103219587.65556793
1.7008168697357178	101074077.94956514
1.7046726942062378	102371266.1221607
1.708522081375122	102534936.3988575
1.712364912033081	100704426.1509897
1.7162011861801147	97544006.10978986
1.7200311422348022	93577489.89781421
1.723854422569275	87721007.5216488
1.7276713848114014	80565499.2260419
1.731481909751892	73009720.40265737
1.7352858781814575	65887548.90612506
1.7390835285186768	59114364.781511776
1.7428747415542603	52535242.0697866
1.7466596364974976	48206829.167042375
1.7504380941390991	43840056.89706293
1.7542102336883545	35894167.81748326
1.7579760551452637	30576851.20953932
1.7617355585098267	31042085.260790687
1.7654887437820435	30035028.0545198
1.7692357301712036	25500611.45283736
1.7729763984680176	20963191.052806124
1.776710867881775	16837448.041282132
1.7804391384124756	14283658.199796736
1.7841613292694092	13266156.390803987
1.7878772020339966	11380245.607156476
1.7915871143341064	9819821.961285388
1.7952908277511597	9607786.333284862
1.7989884614944458	9136264.758239836
1.8026801347732544	7160466.211256072
1.806365728378296	5242169.230781271
1.8100452423095703	4429251.975796176
1.8137187957763672	4017291.8172059213
1.817386507987976	3942948.02949314
1.8210482597351074	4045467.1468361765
1.8247040510177612	4040052.8392109
1.828354001045227	4062470.719271175
1.8319982290267944	4362085.045582483
1.8356364965438843	4653957.333130009
1.8392690420150757	5987735.979959536
1.8428958654403687	8763196.201398974
1.8465168476104736	9818476.982482757
1.8501322269439697	7939721.373345787
1.8537418842315674	5813737.195628218
1.8573459386825562	5299985.801401397
1.860944390296936	5213416.013276641
1.864537239074707	5383701.779037655
1.8681244850158691	6305647.148068955
1.871706247329712	6599126.01410973
1.8752825260162354	7815698.875640828
1.8788533210754395	11002797.746425318
1.8824186325073242	12771061.094750589
1.8859784603118896	12508347.826887017
1.8895330429077148	12804519.494854422
1.8930821418762207	15089664.284746293
1.8966259956359863	16003502.518987471
1.9001644849777222	11722727.886420436
1.9036977291107178	8701590.391898375
1.9072256088256836	11083533.245102096
1.9107483625411987	11184780.338094166
1.9142658710479736	7467692.415997145
1.9177782535552979	5070512.18177891
1.9212853908538818	4056175.990960423
1.9247875213623047	3856328.5840575034
1.9282845258712769	4446333.0178381
1.9317764043807983	5243409.172513671
1.9352631568908691	6390723.626944902
1.9387450218200684	7397476.339067249
1.942221760749817	7891299.3469224125
1.9456936120986938	7686317.067476341
1.9491604566574097	7717583.327522475
1.952622413635254	7412709.455971494
1.956079363822937	6106246.190579906
1.959531545639038	6065586.082858082
1.962978720664978	7807910.50074973
1.966421127319336	11213568.28053906
1.9698586463928223	14529009.89312808
1.9732913970947266	14621994.09953051
1.9767193794250488	13696456.881754495
1.9801424741744995	14769930.098559996
1.9835609197616577	18145798.672737706
1.9869745969772339	20690500.014832065
1.990383505821228	19640181.65790548
1.9937876462936401	19479248.682954676
1.9971871376037598	20682488.24756761
2.000581979751587	21871334.787210505
2.003972291946411	25045450.71348588
2.007357597351074	27517116.060141772
2.0107386112213135	28734283.674941387
2.0141148567199707	29798920.267909624
2.017486572265625	30018393.592867285
2.0208535194396973	33053625.26332988
2.0242159366607666	37704006.880940124
2.027573823928833	38498715.49524331
2.0309269428253174	38013412.34853451
2.034275770187378	39774310.55950225
2.0376198291778564	41704167.22137939
2.040959596633911	42897477.991207704
2.044294595718384	45916079.910147674
2.0476250648498535	50749674.408593155
2.0509510040283203	52157403.36663253
2.054272413253784	51883808.602753125
2.057589530944824	55669537.39794522
2.0609018802642822	58800218.22569497
2.0642096996307373	59113785.3451853
2.0675129890441895	61567196.03453273
2.0708119869232178	64441941.36754399
2.074106216430664	63768060.51507206
2.0773961544036865	62461096.678997025
2.080681324005127	63193900.24313447
2.0839622020721436	64358232.38706442
2.087238311767578	65343099.82741408
2.090510129928589	66798161.36388504
2.0937774181365967	68130349.3235226
2.0970399379730225	68918132.5385661
2.1002981662750244	68906237.79621516
2.1035518646240234	67724770.32072063
2.1068007946014404	66397398.72352953
2.1100454330444336	67040722.55424859
2.1132853031158447	68983436.28925952
2.116520881652832	69617018.64027163
2.1197516918182373	69579571.6965769
2.1229779720306396	70100677.67542371
2.12619948387146	70304747.89788109
2.1294167041778564	69898267.6151902
2.132629156112671	69570628.03589725
2.1358368396759033	68710578.97921768
2.139039993286133	67054063.848362625
2.1422386169433594	65546731.35408987
2.145432472229004	64610546.85563394
2.1486217975616455	63863766.28651787
2.151806354522705	62800760.36928016
2.1549863815307617	62500900.663827114
2.1581614017486572	62595094.23616285
2.16133189201355	61717637.00397819
2.1644976139068604	60680298.5278596
2.167658567428589	59610608.8173535
2.1708147525787354	57979005.47134086
2.173966407775879	55895767.05183199
2.1771130561828613	53864949.78215746
2.1802549362182617	52325137.73184799
2.183391809463501	50883030.56557074
2.1865241527557373	49055335.055641875
2.1896514892578125	46647910.03106909
2.1927738189697266	42813908.51321103
2.1958916187286377	37429362.049751915
2.1990041732788086	31821265.305207208
2.2021119594573975	26775457.684331737
2.2052149772644043	23195665.374859486
2.208312749862671	23169806.104168
2.2114057540893555	26207095.853899136
2.214493751525879	28981026.3147921
2.217576742172241	29718288.877932448
2.2206547260284424	29239887.9726885
2.2237277030944824	28597693.62558106
2.2267956733703613	27234004.627983987
2.2298583984375	25540701.21975677
2.2329163551330566	24421299.724534884
2.235969066619873	23505349.242139824
2.2390167713165283	22543740.91031127
2.2420592308044434	21136623.905307256
2.2450966835021973	19564964.41368979
2.248128890991211	19350399.61307731
2.2511560916900635	20086719.379415475
2.254178285598755	20097341.031236615
2.257194995880127	19787884.497427907
2.260206699371338	19384643.780670803
2.2632133960723877	18098089.322576296
2.266214609146118	17053555.358036544
2.2692108154296875	17471002.989942923
2.2722020149230957	18699415.77605357
2.2751877307891846	19461567.146974016
2.278168201446533	18863389.082266558
2.2811436653137207	17488888.078802645
2.284113883972168	16377798.90719892
2.287078857421875	15573943.690602403
2.290038824081421	14725122.540943228
2.2929933071136475	13957226.840652332
2.295942783355713	13521589.954813395
2.298887014389038	13444397.042594934
2.301826238632202	13911078.083365047
2.304760217666626	14989362.934712766
2.3076889514923096	16448999.866754271
2.310612440109253	17753004.72239108
2.3135311603546143	17338319.64382946
2.3164443969726562	14191947.991160627
2.319352865219116	10736641.290335989
2.322256088256836	9575057.727544896
2.3251543045043945	9646634.341683503
2.328047275543213	9510392.01427411
2.330935478210449	9269633.337079242
2.3338186740875244	9184870.367917482
2.3366971015930176	9333153.248653585
2.3395702838897705	9501592.151473265
2.3424389362335205	9435779.911605874
2.3453025817871094	9391137.386969578
2.348161458969116	9824253.348346623
2.351015567779541	10798681.486711334
2.353865146636963	11974181.722649567
2.3567099571228027	12941293.057343198
2.3595502376556396	13966763.414548168
2.3623859882354736	15087678.224572323
2.3652172088623047	14868250.382704085
2.368043899536133	12297643.170390155
2.370866537094116	9058983.505982624
2.3736846446990967	7846703.448015974
2.3764986991882324	8442886.197109707
2.3793084621429443	9007983.591038434
2.3821144104003906	9256369.352869477
2.384916305541992	9824684.357577464
2.387714147567749	10837831.01663234
2.3905084133148193	11657612.226552047
2.393299102783203	12021522.075720336
2.3960859775543213	12308629.829197
2.398869514465332	12784350.029252607
2.4016497135162354	12935779.484724402
2.4044265747070312	12571267.15459563
2.407200336456299	12616773.12456326
2.409970998764038	13466942.87052119
2.4127390384674072	14270109.205285484
2.415503978729248	14237963.46585418
2.418266534805298	13734929.568213167
2.4210267066955566	13541026.144289825
2.4237842559814453	13657254.646614345
2.426539897918701	13824882.951877756
2.429293394088745	14419700.571209755
2.4320452213287354	15153303.483313052
2.4347951412200928	14773646.427338978
2.4375438690185547	13953146.283912523
2.440291166305542	14211311.826744867
2.443037271499634	13984136.342905575
2.445782423019409	12326041.436354322
2.4485268592834473	11110352.192430202
2.451270818710327	10763561.338511167
2.454014539718628	11058245.382691024
2.4567582607269287	11770295.301999487
2.4595019817352295	11562393.822615238
2.4622461795806885	11193328.097767059
2.4649908542633057	10956600.058030065
2.4677364826202393	9744343.827386541
2.4704833030700684	8294829.39866527
2.473231554031372	7087111.869846139
2.4759814739227295	6102756.385161677
2.4787333011627197	5757278.25359968
2.481487512588501	6260152.211931778
