#wavelength	surface flux
0.6450077295303345	15316.175773516134
0.6472567915916443	23881.89850225572
0.6494921445846558	30687.859579609685
0.6517150402069092	34653.958198593195
0.6539263725280762	38637.771942227155
0.6561272740364075	42799.72711551546
0.6583186388015747	47202.83807021473
0.6605015397071838	51954.78866391232
0.6626768708229065	57014.21932519391
0.6648455858230591	62194.592580163
0.6670085787773132	65790.87528347105
0.6691668033599854	64518.876158198684
0.6713210344314575	65563.79521856927
0.6734722256660461	77463.2981367053
0.6756211519241333	90911.83700498045
0.6777685880661011	99427.12612278077
0.6799154281616211	106644.34834503298
0.6820623278617859	113836.01433422393
0.6842101216316223	121042.307081427
0.6863595843315125	128174.08075154776
0.688511312007904	134697.14966469837
0.6906660795211792	139085.68515347486
0.6928245425224304	142590.3893064872
0.6949873566627502	149546.80940220255
0.6971551775932312	158923.77543378118
0.6993286609649658	166071.1727527904
0.7015084028244019	170661.432645511
0.7036949396133423	175491.06322131894
0.7058889269828796	180923.94746274166
0.7080909013748169	185414.0081809061
0.710301399230957	188826.07315014367
0.712520956993103	190578.82841693767
0.7147500514984131	187962.5694256536
0.7169892191886902	180437.5103757079
0.7192389369010925	174920.8925617652
0.7214996814727783	174295.69225056405
0.723771870136261	171950.36019552473
0.7260559797286987	165901.46452650684
0.7283523678779602	158719.6121861153
0.7306615710258484	151464.7634722009
0.7329838871955872	145126.17222554106
0.7353196740150452	137798.42888730005
0.7376693487167358	127738.05090968723
0.7400332689285278	116937.53939620299
0.7424117922782898	105554.00541523314
0.7448052167892456	93007.68566936979
0.7472138404846191	80047.58481190441
0.7496379613876343	66848.67596545753
0.7520779371261597	53677.48255568225
0.7545340061187744	41101.289568568754
0.7570064663887024	29584.729244292274
0.7594954967498779	19506.353767757773
0.7620013952255249	11176.75741851086
0.7645244002342224	5040.547781286883
0.7670646905899048	1830.4506830715827
0.7696225643157959	1940.4737234725635
0.7721980810165405	6109.21899496586
0.7747915983200073	14726.141495812057
0.7774031162261963	25797.735213352662
0.7800329327583313	39836.5859092344
0.7826811671257019	62084.762143821914
0.7853479981422424	91437.92912136266
0.7880334854125977	122304.69969235625
0.7907378077507019	140858.77840055712
0.7934610247612	138445.27457648725
0.7962033748626709	173307.9315377194
0.7989648580551147	263127.9639787625
0.801745593547821	344317.6626355172
0.8045456409454346	405782.26818442193
0.8073651194572449	458965.708970551
0.8102040886878967	497581.5443292071
0.8130625486373901	539644.9386414726
0.8159406185150146	613682.9541814418
0.8188382983207703	709550.3174227722
0.8217556476593018	804358.023495275
0.8246926665306091	903892.932313498
0.8276493549346924	1011492.9503020416
0.8306257724761963	1116295.165866335
0.8336219191551208	1214129.3930726093
0.8366377949714661	1312105.1576985032
0.8396733403205872	1428552.764941549
0.8427285552024841	1579469.6215554972
0.8458034992218018	1759958.824190261
0.8488980531692505	1860640.0240902824
0.8520121574401855	1906463.108371511
0.8551458716392517	2191950.5252883714
0.8582990765571594	2609047.6080035446
0.8614717125892639	2880788.2032066043
0.8646637797355652	3100336.9593945895
0.8678751587867737	3362160.5957098785
0.8711057901382446	3645287.2515830905
0.8743556141853333	3901517.4926114306
0.87762451171875	4103268.6495613656
0.8809124231338501	4248094.402342324
0.8842192888259888	4342391.49196253
0.8875449895858765	4277096.858489077
0.8908893465995789	3827219.289977432
0.894252359867096	3406809.9210864706
0.8976338505744934	3928553.6660653246
0.9010337591171265	5128847.196768491
0.9044519662857056	6090329.523050607
0.9078882932662964	6545912.169735034
0.9113426208496094	6695069.17714053
0.914814829826355	6590024.9692932
0.9183048605918884	6370493.193024002
0.9218124747276306	6250941.613344015
0.925337553024292	4945661.236440022
0.9288799166679382	2641460.652799187
0.9324395060539246	1566622.0809732163
0.9360161423683167	1848211.4070501737
0.9396095871925354	2331517.815775223
0.943219780921936	2006236.1932415944
0.9468464851379395	1311928.343661499
0.9504896402359009	1404061.505119853
0.9541489481925964	2096058.09039853
0.9578243494033813	2351567.439496883
0.9615156054496765	1850401.9401671675
0.9652225375175476	1649871.4270290846
0.9689450263977051	2589029.4440742177
0.9726828336715698	4302608.371156467
0.9764357805252075	5304523.959451823
0.9802037477493286	5458600.785301135
0.983986496925354	6139925.937770467
0.9877838492393494	7512736.818038452
0.9915955662727356	9037218.679471117
0.9954215884208679	10494317.390736884
0.9992615580558777	11687598.228842877
1.0031154155731201	12844104.6987022
1.0069829225540161	14540039.853769908
1.0108637809753418	16828940.56728349
1.0147579908370972	19360814.426493045
1.018665075302124	21331113.09151945
1.022585153579712	22091572.374909595
1.0265177488327026	22204089.99101915
1.0304628610610962	23486920.26276872
1.0344202518463135	26437642.599056114
1.0383895635604858	29009959.526515845
1.0423706769943237	30479596.062180214
1.0463634729385376	31307648.708607532
1.0503677129745483	31639014.76097102
1.0543830394744873	32828307.536974944
1.058409333229065	34819145.488624
1.0624464750289917	36079016.86282498
1.0664942264556885	36276711.10340124
1.0705522298812866	36135919.47346577
1.0746204853057861	36890654.506377615
1.0786986351013184	38092652.083382376
1.0827864408493042	37906391.594792485
1.086883783340454	34008992.3656049
1.0909905433654785	25515918.791085217
1.0951062440872192	16381798.628531951
1.0992310047149658	9752799.435828147
1.10336434841156	5119045.248489343
1.1075061559677124	3104950.960309138
1.1116561889648438	2576387.418961302
1.115814208984375	1860823.0287007517
1.1199802160263062	1219639.124340887
1.124153733253479	781020.0060754452
1.1283347606658936	818094.5186682438
1.1325229406356812	1043525.8023885932
1.1367181539535522	1619899.3475119227
1.1409201622009277	2081398.5117913175
1.145128846168518	1914151.2739645583
1.1493438482284546	1637910.293453323
1.1535650491714478	1131684.4008258116
1.1577922105789185	754555.3123804972
1.1620250940322876	912031.7594631972
1.1662636995315552	1224884.8484045756
1.170507550239563	1641048.6604163733
1.174756646156311	2696201.676552472
1.1790107488632202	4840438.252435362
1.1832695007324219	7859027.664089035
1.1875330209732056	10409766.507359993
1.191800832748413	13321300.57315216
1.1960728168487549	17121969.22971519
1.2003488540649414	20304998.31445835
1.2046287059783936	23536773.91214375
1.2089121341705322	25811390.380078696
1.2131990194320679	27734770.13041761
1.2174891233444214	32032049.282327946
1.2217823266983032	37544683.37102732
1.2260783910751343	41966387.41303732
1.230377197265625	44682927.5013551
1.2346785068511963	47122504.250142075
1.238982081413269	48656292.264736176
1.2432878017425537	48589206.071009636
1.2475954294204712	48739575.821064696
1.2519049644470215	49161466.01076757
1.256216049194336	52566919.40919138
1.2605286836624146	55153312.491042085
1.2648425102233887	52658808.169595286
1.2691574096679688	50017795.85767237
1.2734732627868652	48371083.67122103
1.2777899503707886	45357511.356056534
1.2821072340011597	40089653.52695337
1.2864248752593994	34334387.02073703
1.2907428741455078	28810276.747553878
1.2950609922409058	25430362.333216965
1.2993791103363037	24512791.44338577
1.303696870803833	24394813.578710336
1.3080145120620728	24215138.06237291
1.3123314380645752	22290065.451330204
1.3166478872299194	20370126.332794126
1.3209635019302368	18077485.64624631
1.3252781629562378	13015502.946075913
1.3295916318893433	7226063.765525249
1.3339040279388428	2932075.9684921503
1.3382149934768677	750622.7412923835
1.3425244092941284	186361.59310050562
1.3468321561813354	95125.67432281649
1.3511382341384888	55279.40958091208
1.3554422855377197	27461.618049759243
1.3597444295883179	26148.19556040144
1.3640443086624146	20442.903824854682
1.3683418035507202	20928.881959694238
1.3726370334625244	31681.602199541067
1.3769296407699585	32108.387595817625
1.381219506263733	15904.213815539108
1.3855066299438477	6702.051425543297
1.3897908926010132	13691.094407660497
1.3940720558166504	29562.36671259076
1.3983501195907593	56085.2694048381
1.4026249647140503	104808.91365361285
1.4068963527679443	131351.18307088027
1.4111642837524414	85509.56162887052
1.4154287576675415	35912.59911876434
1.419689416885376	31946.94495214091
1.4239463806152344	50379.15783949282
1.4281994104385376	84111.62080582583
1.4324485063552856	100625.06945035886
1.436693549156189	112812.20283777421
1.440934419631958	191148.6847169111
1.4451709985733032	308347.4876345755
1.449403166770935	418118.31377143506
1.453631043434143	549270.5226069274
1.4578542709350586	777120.7057774964
1.4620729684829712	936355.1047748459
1.4662868976593018	915084.778985249
1.4704961776733398	962820.7165134689
1.4747005701065063	1055253.604289468
1.4788999557495117	1043388.9700547743
1.4830944538116455	1119744.5196004747
1.4872838258743286	1264714.6878497817
1.491468071937561	1393804.7445600105
1.4956470727920532	1750182.6029050366
1.4998208284378052	2535995.0881918864
1.5039892196655273	3308597.1877682013
1.5081522464752197	3609049.33194902
1.5123097896575928	4232102.000727086
1.5164618492126465	5481669.905772932
1.5206083059310913	7064560.992856866
1.5247491598129272	8452508.39728567
1.5288842916488647	9128854.167462265
1.5330137014389038	10187895.77686543
1.5371372699737549	11344429.18414426
1.541254997253418	11963195.453092111
1.545366883277893	13263854.232373195
1.5494728088378906	14805147.705763886
1.5535727739334106	15367785.281784156
1.5576666593551636	15466188.02991956
1.561754584312439	16683604.207261818
1.5658363103866577	19431157.316999014
1.5699119567871094	21498963.417547457
1.5739814043045044	21402643.432259828
1.5780447721481323	20988435.18349573
1.582101821899414	23040769.44997894
1.5861525535583496	26326217.705561675
1.5901970863342285	26833197.313865237
1.5942351818084717	25136035.056541968
1.5982669591903687	23865278.675221916
1.6022924184799194	22808779.29173783
1.606311559677124	21640117.07895753
1.6103241443634033	20356672.336459514
1.6143304109573364	18347420.066908725
1.6183301210403442	15757997.255627047
1.6223233938217163	13248510.219554309
1.6263102293014526	11288228.929216672
1.6302905082702637	10345572.809261607
1.634264349937439	12937187.912324013
1.638231635093689	18498596.465317298
1.6421923637390137	18593971.52635129
1.646146535873413	12220070.102281792
1.6500942707061768	10053868.409404837
1.6540353298187256	13817257.530099118
1.6579699516296387	15905863.306121081
1.661897897720337	14183037.530352509
1.6658192873001099	9404268.628313819
1.6697341203689575	5582247.806466341
1.6736423969268799	6270892.188257744
1.677544116973877	7222294.649811701
1.6814392805099487	6856820.327593378
1.6853278875350952	6207051.398856025
1.6892099380493164	4718780.535971019
1.6930854320526123	3172988.8106161184
1.696954369544983	2223101.513908251
1.7008168697357178	2100581.7068956243
1.7046726942062378	2588645.808971138
1.708522081375122	3540520.8912321357
1.712364912033081	4863638.94907001
1.7162011861801147	6154512.909207607
1.7200311422348022	6879577.765342813
1.723854422569275	6468887.479355572
1.7276713848114014	5525626.047590812
1.731481909751892	4840896.191865603
1.7352858781814575	4386653.65906191
1.7390835285186768	4085284.23818509
1.7428747415542603	3767191.7107602535
1.7466596364974976	3460985.444854641
1.7504380941390991	3076975.985170225
1.7542102336883545	2371283.9231667775
1.7579760551452637	1848325.4692495335
1.7617355585098267	1738456.585137484
1.7654887437820435	1497602.147556934
1.7692357301712036	1115437.1060849633
1.7729763984680176	827967.0354263235
1.776710867881775	587199.5860953343
1.7804391384124756	455812.868534863
1.7841613292694092	423598.3622004753
1.7878772020339966	317527.99372504355
1.7915871143341064	210833.73482744122
1.7952908277511597	210833.16654069853
1.7989884614944458	228497.2604091542
1.8026801347732544	150640.6730216023
1.806365728378296	62971.265558858955
1.8100452423095703	38186.078435529584
1.8137187957763672	28389.899880218476
1.817386507987976	23820.642832973743
1.8210482597351074	23327.182047221107
1.8247040510177612	21369.188361847268
1.828354001045227	17427.032669360688
1.8319982290267944	16086.888705315569
1.8356364965438843	17319.008012803704
1.8392690420150757	35712.217091507
1.8428958654403687	100525.9395489408
1.8465168476104736	155885.44094512146
1.8501322269439697	123465.02077507734
1.8537418842315674	74502.33622428367
1.8573459386825562	84884.72769391123
1.860944390296936	88642.30665767554
1.864537239074707	61046.04654357959
1.8681244850158691	46942.783154987774
1.871706247329712	42556.85459367168
1.8752825260162354	95861.72443578459
1.8788533210754395	251344.81921288115
1.8824186325073242	322320.0554409404
1.8859784603118896	229835.12882927095
1.8895330429077148	216398.76460667033
1.8930821418762207	457218.16493400466
1.8966259956359863	588399.0122943415
1.9001644849777222	314773.44093929406
1.9036977291107178	90838.19002079329
1.9072256088256836	113220.98460879826
1.9107483625411987	111882.09807785359
1.9142658710479736	52708.27752454286
1.9177782535552979	23879.56144053236
1.9212853908538818	19187.71790038088
1.9247875213623047	21726.09700645929
1.9282845258712769	30630.160702972076
1.9317764043807983	44233.4798889943
1.9352631568908691	67001.1666378601
1.9387450218200684	105829.73864054067
1.942221760749817	153922.95437307504
1.9456936120986938	168660.62448901686
1.9491604566574097	181282.69138504763
1.952622413635254	179144.19603204355
1.956079363822937	132950.2280054955
1.959531545639038	133409.4143979706
1.962978720664978	230068.97312691755
1.966421127319336	486676.8397727955
1.9698586463928223	780775.702034491
1.9732913970947266	805589.0488671442
1.9767193794250488	710949.0920889354
1.9801424741744995	866575.6853124154
1.9835609197616577	1384578.7059577007
1.9869745969772339	1734928.8432061027
1.990383505821228	1522354.5896539197
1.9937876462936401	1424009.052168739
1.9971871376037598	1643928.3628610086
2.000581979751587	1861800.5484132825
2.003972291946411	2116619.3151836386
2.007357597351074	2670369.2566233706
2.0107386112213135	3595533.4445873583
2.0141148567199707	4064058.3934998587
2.017486572265625	4033581.177780065
2.0208535194396973	4797761.131711064
2.0242159366607666	5851020.186034064
2.027573823928833	5966874.165954206
2.0309269428253174	5977628.461864017
2.034275770187378	6665707.233121478
2.0376198291778564	7431242.400818527
2.040959596633911	8030599.672442409
2.044294595718384	9506671.485166082
2.0476250648498535	11620441.666039268
2.0509510040283203	11774426.647885736
2.054272413253784	11107478.2724929
2.057589530944824	12557488.67621916
2.0609018802642822	14109621.73135543
2.0642096996307373	14442674.85199637
2.0675129890441895	15329826.521440359
2.0708119869232178	16411595.653893284
2.074106216430664	16202987.965088582
2.0773961544036865	15482159.24510852
2.080681324005127	15390998.089861013
2.0839622020721436	15615744.162773807
2.087238311767578	16024634.543953486
2.090510129928589	16533739.842862759
2.0937774181365967	16616465.556388184
2.0970399379730225	16458092.39752926
2.1002981662750244	16002706.59363289
2.1035518646240234	15058550.86359255
2.1068007946014404	14144015.151102966
2.1100454330444336	13827625.519353162
2.1132853031158447	13948746.658518149
2.116520881652832	13756860.189292211
2.1197516918182373	13330860.01681375
2.1229779720306396	13146096.970767733
2.12619948387146	12978153.358629478
2.1294167041778564	12637854.136863984
2.132629156112671	12327493.90154531
2.1358368396759033	11708056.527475825
2.139039993286133	10770590.251903893
2.1422386169433594	9615679.378756704
2.145432472229004	8458751.410422532
2.1486217975616455	7855240.409300943
2.151806354522705	7313729.110683211
2.1549863815307617	7021963.208816622
2.1581614017486572	6940603.615765537
2.16133189201355	6480124.77326959
2.1644976139068604	6142026.629530959
2.167658567428589	5903737.701248876
2.1708147525787354	5503946.2314244965
2.173966407775879	5072291.869231284
2.1771130561828613	4694353.052929862
2.1802549362182617	4361873.971641152
2.183391809463501	3986801.891532345
2.1865241527557373	3569124.1865768703
2.1896514892578125	3095031.024432789
2.1927738189697266	2368469.675478821
2.1958916187286377	1468927.4923360124
2.1990041732788086	783241.4815236082
2.2021119594573975	444567.56413595885
2.2052149772644043	398956.6391418968
2.208312749862671	571532.8462194323
2.2114057540893555	796401.8974327622
2.214493751525879	891909.0168574114
2.217576742172241	829444.7868989847
2.2206547260284424	707681.9398775043
2.2237277030944824	619263.199464775
2.2267956733703613	539527.0704860837
2.2298583984375	458060.0292329383
2.2329163551330566	401434.062719356
2.235969066619873	356195.4951864697
2.2390167713165283	319703.9227796426
2.2420592308044434	271744.1622508964
2.2450966835021973	211745.4896638243
2.248128890991211	205249.7529904717
2.2511560916900635	246222.16448211396
2.254178285598755	256130.4394615708
2.257194995880127	244671.37218724916
2.260206699371338	229576.98497173507
2.2632133960723877	196218.25329170126
2.266214609146118	181259.48068952793
2.2692108154296875	209165.42717674523
2.2722020149230957	261956.80304256766
2.2751877307891846	298064.5883180984
2.278168201446533	288088.2218956243
2.2811436653137207	252958.05299402506
2.284113883972168	224972.60900297464
2.287078857421875	206317.06940021386
2.290038824081421	184854.48596115372
2.2929933071136475	171593.10325428325
2.295942783355713	172581.02487094136
2.298887014389038	176661.5451281649
2.301826238632202	201980.22279800256
2.304760217666626	299179.7515905228
2.3076889514923096	510206.3477598303
2.310612440109253	756871.7984223814
2.3135311603546143	772133.820412637
2.3164443969726562	476410.419921849
2.319352865219116	204304.77228443796
2.322256088256836	147761.71177164462
2.3251543045043945	170705.42496210494
2.328047275543213	176838.4565085039
2.330935478210449	169901.8185073724
2.3338186740875244	158929.51736015547
2.3366971015930176	144383.05865478193
2.3395702838897705	127311.9286697854
2.3424389362335205	109036.89740664183
2.3453025817871094	96404.07949844217
2.348161458969116	98472.93454433932
2.351015567779541	120141.41661793078
2.353865146636963	156882.1131257877
2.3567099571228027	202314.13602858607
2.3595502376556396	265409.831367189
2.3623859882354736	326518.19076514564
2.3652172088623047	311030.92949779966
2.368043899536133	204489.4685936341
2.370866537094116	102920.4825350021
2.3736846446990967	78702.40695109451
2.3764986991882324	110087.64257782866
2.3793084621429443	150745.95034181792
2.3821144104003906	174837.57837284412
2.384916305541992	186879.375156425
2.387714147567749	204083.2810131956
2.3905084133148193	222162.4007698097
2.393299102783203	228769.8463090358
2.3960859775543213	229108.06876786047
2.398869514465332	242440.0636691642
2.4016497135162354	255183.86966953592
2.4044265747070312	250113.7669172328
2.407200336456299	265745.03924222756
2.409970998764038	335300.75662768056
2.4127390384674072	409204.1163993662
2.415503978729248	419603.0616204916
2.418266534805298	399281.71315531636
2.4210267066955566	407908.4554164956
2.4237842559814453	423896.93536698987
2.426539897918701	453485.6960642068
2.429293394088745	563082.6654897827
2.4320452213287354	682372.2970553583
2.4347951412200928	672578.8695291067
2.4375438690185547	647470.9024322907
2.440291166305542	765648.4985361377
2.443037271499634	824849.2854912885
2.445782423019409	674285.3467301307
2.4485268592834473	520601.40683101973
2.451270818710327	517942.7213269293
2.454014539718628	621013.9672622964
2.4567582607269287	720516.772823247
2.4595019817352295	742478.977317297
2.4622461795806885	731591.525890214
2.4649908542633057	697440.332653775
2.4677364826202393	604850.5777920112
2.4704833030700684	503532.3694298432
2.473231554031372	425516.2947404385
2.4759814739227295	370276.36210482736
2.4787333011627197	353672.00669431494
2.481487512588501	376838.7135200931
