#wavelength	surface flux
0.428837	55159.70576391406
0.43312537	68253.47523541717
0.43745662370000005	62017.47198583016
0.4418311899370001	60505.67687735364
0.44624950183637	74871.33440736512
0.4507119968547338	92604.8278682725
0.45521911682328114	114153.0588329379
0.4597713079915139	145159.36491560255
0.4643690210714291	138209.0963426794
0.4690127112821433	126301.66509713465
0.47370283839496474	112981.67417687822
0.47843986677891437	97390.46617493464
0.48322426544670355	84954.41184628285
0.48805650810117057	76402.30700748795
0.4929370731821824	65596.17097495543
0.49786644391400414	55219.067573976696
0.5028451083531442	46398.15528515389
0.5078735594366757	38526.99619415905
0.5129522950310424	31778.182860961922
0.5180818179813528	25683.21106988714
0.5232626361611664	20312.26162377797
0.5284952625227781	15581.24426613474
0.5337802151480058	11546.6458834657
0.5391180172994858	8240.211491060096
0.5445091974724807	5619.036919977512
0.5499542894472055	3640.6730658638025
0.5554538323416777	2231.086267621062
0.5610083706650945	1293.0550793450636
0.5666184543717453	713.0984364352175
0.5722846389154628	373.8474941524911
0.5780074853046174	176.29838015663165
0.5837875601576636	61.09311858846168
0.5896254357592402	6.852054935503038
0.5955216901168326	107.16780217814926
0.6014769070180009	370.6655857099588
0.607491676088181	939.0668409120009
0.6135665928490629	2060.250348578308
0.6197022587775535	4139.711766723399
0.625899281365329	7763.116035548077
0.6321582741789823	13672.83169230654
0.6384798569207721	22746.91414532248
0.6448646554899798	35849.23124289116
0.6513133020448797	54047.898710360736
0.6578264350653285	77990.36214804804
0.6644046994159818	107646.1658509303
0.6710487464101416	98787.5024039101
0.677759233874243	185916.58871184272
0.6845368262129854	232855.90065542836
0.6913821944751153	274996.63183017017
0.6982960164198664	316542.20067568676
0.7052789765840651	342817.7964293975
0.7123317663499058	350204.0550456468
0.7194550840134049	323026.2083908663
0.7266496348535388	278789.28371540934
0.7339161312020743	213095.45190823407
0.741255292514095	137135.76314686553
0.748667845439236	68825.2282562114
0.7561545238936284	23973.393421967008
0.7637160691325647	3837.5151648284327
0.7713532298238903	3096.6879494540635
0.7790667621221293	26157.748472972227
0.7868574297433505	108972.13183231403
0.7947260040407841	138013.48840031686
0.8026732640811919	516960.8767509018
0.8106999967220039	849910.2459615256
0.8188069966892239	1310861.4393741107
0.8269950666561161	1926327.3461642375
0.8352650173226772	2635700.7525771754
0.8436176674959041	3529570.895274317
0.852053844170863	3433901.3093484268
0.8605743826125718	5966873.806005679
0.8691801264386976	7455271.76688142
0.8778719277030844	9228543.188171064
0.8866506469801153	10890385.0646526
0.8955171534499164	9266052.557011632
0.9044723249844157	16153824.084254248
0.9135170482342599	18792557.982433997
0.9226522187166025	20864152.605594836
0.9318787409037684	10989026.031864556
0.941197528312806	17741243.936424717
0.9506095035959342	15009437.246513523
0.9601155986318936	17426136.112845264
0.9697167546182125	21479178.33275035
0.9794139221643946	29952452.847562436
0.9892080613860387	37204906.22772755
0.9991001419998989	38490886.896471106
1.0090911434198981	45117307.43850607
1.019182054854097	54434429.9047568
1.0293738754026378	59656012.65499597
1.0396676141566643	68559756.74090433
1.050064290298231	73842179.5049964
1.0605649332012133	80913634.85025576
1.0711705825332256	84047125.42945765
1.0818822883585577	88252822.53557193
1.0927011112421434	64915998.962732926
1.1036281223545648	24770270.978490263
1.1146644035781104	14370733.450230943
1.1258110476138916	12870835.76520254
1.1370691580900303	17897055.650195353
1.1484398496709307	22724177.27023943
1.1599242481676402	13157073.63088832
1.1715234906493166	17097250.729659267
1.1832387255558097	41271127.16884738
1.1950711128113678	64808656.13798197
1.2070218239394814	79467465.98765689
1.2190920421788762	92846767.125343
1.2312829626006652	105106510.32202034
1.2435957922266716	102803422.74556072
1.2560317501489384	112146059.18098192
1.2685920676504279	125810464.78834745
1.281277988326932	120847479.05845083
1.2940907682102014	103523062.30887358
1.3070316758923035	100377831.12352522
1.3201019926512265	86364693.7872124
1.3333030125777388	15015609.048927434
1.3466360427035162	1261725.9729083988
1.3601024031305513	617456.5326014715
1.373703427161857	1202712.1045845905
1.3874404614334754	294980.9883413556
1.4013148660478103	1323638.9511272255
1.4153280147082883	607644.4460274769
1.4294812948553712	1465552.9939907636
1.443776107803925	2628395.9326107134
1.4582138688819641	5968660.224781598
1.4727960075707838	7411415.818269569
1.4875239676464918	8389318.207930777
1.5023992073229566	15471209.340528535
1.5174231993961862	22524973.533674505
1.532597431390148	33186188.698565047
1.5479234057040496	42936919.64706519
1.5634026397610903	52516881.24160707
1.579036666158701	56582725.55926004
1.594827032820288	57105859.24415558
1.610775303148491	49609485.284191534
1.6268830561799759	36991980.24454865
1.6431518867417756	39689207.18365818
1.6595834056091934	37142730.13574597
1.6761792396652853	27361691.038133916
1.6929410320619382	18653595.707792062
1.7098704423825577	19744291.46000606
1.7269691468063835	20277056.11225629
1.744238838274447	14241958.975558223
1.7616812266571917	8321069.882866149
1.7792980389237634	3302607.291893706
1.7970910193130012	1790520.0835409784
1.815061929506131	476442.978034204
1.8332125488011928	456724.6156813114
1.8515446742892046	1048948.0432011609
1.8700601210320964	819764.5113285771
1.8887607222424174	2398150.5433088755
1.9076483294648416	1484538.0656562618
1.92672481275949	512145.49229589704
1.9459920608870853	1342900.2007486043
1.9654519814959561	2289798.716742856
1.9851065013109155	4764878.602625619
2.0049575663240247	6479593.0336140925
2.025007141987265	9550012.645100059
2.0452572134071376	12665984.839610873
2.065709785541209	14581720.303651305
2.086366883396621	14475851.2558631
2.107230552230587	13683911.263576044
2.1283028577528933	12998722.813798986
2.1495858863304225	11228284.944612103
2.1710817451937263	9894932.264439706
2.1927925626456637	6226619.645389052
2.2147204882721203	4162553.51540544
2.2368676931548412	2901801.5669362294
2.25923637008639	2239977.7880534576
2.281828733787254	2250420.7774446215
2.3046470211251266	2781923.7037438094
2.327693491336378	1530469.639840015
2.3509704262497415	1623970.6302753193
2.374480130512239	1314993.3219580643
2.3982249318173614	2199779.205854282
2.4222071811355352	2881331.5802359865
2.4464292529468903	3210603.853693659
2.4708935454763594	2347918.719458206
2.4956024809311232	1181441.180083621
2.5205585057404343	511006.05787761055
2.5457640907978387	239969.83505716157
2.5712217317058172	389269.7353517646
2.5969339490228753	121937.29367098349
2.622903288513104	203462.5831787004
2.6491323213982354	950504.6680611795
2.6756236446122177	108698.16548389917
2.7023798810583397	456470.0383367897
2.729403679868923	935455.6168550822
2.7566977166676123	497715.0303841835
2.7842646938342885	484951.6222653091
2.812107340772631	358077.9585647712
2.8402284141803578	967744.659445692
2.8686306983221614	839339.1853028182
2.897317005305383	1182320.9842704332
2.926290175358437	1896693.4577086535
2.9555530771120213	2107589.584501183
2.9851086078831415	2744550.9218293014
3.014959693961973	3774335.615494732
3.0451092909015927	3300496.5613668826
3.0755603838106085	3472022.5239157793
3.1063159876487147	1893395.8489188629
3.137379147525202	1248922.3238377103
3.168752939000454	496091.1832025065
3.200440468390459	411826.4718260107
3.232444873074363	580634.9004855856
3.264769321805107	662383.4270793829
3.297417015023158	1329299.6330576257
3.330391185173389	292952.01597125625
3.3636950970251234	842975.5925340615
3.397332047995375	955511.5111038192
3.4313053684753285	666882.512995123
3.465618422160081	773911.0354778466
3.5002746063816828	1090626.830156056
3.5352773524454997	1599300.4453379093
3.570630125969955	2352148.5633817916
3.606336427229654	3091220.5113065513
3.6423997915019504	4174716.4348453153
3.67882378941697	5480327.881273722
3.7156120273111397	6337772.197935823
3.7527681475842516	7481311.6523768855
3.7902958290600934	7372177.1112223165
3.8281987873506953	10018095.481823977
3.8664807752242023	9827737.613814898
3.905145582976444	10829792.342911884
3.9441970388062084	11954716.471698528
3.983639009194271	12528103.280468589
4.023475399286213	12968063.76532864
4.063710153279075	13279594.39998417
4.1043472548118665	12482498.40026867
4.145390727359985	11501385.346582817
4.186844634633585	10773885.58590136
4.2287130809799205	9644219.473251726
4.27100021178972	9238987.964921867
4.313710213907617	8290473.001835238
4.356847316046694	8324602.176905132
4.40041578920716	8040496.660736884
4.444419947099232	7078388.184503576
4.488864146570225	7325603.476801977
4.533752788035927	6148697.952185167
4.579090315916286	6963192.179835164
4.624881219075449	5795119.652329644
4.671130031266204	4724123.244323673
4.717841331578866	4942738.714368122
4.765019744894654	6179889.430134083
4.812669942343601	4794403.267941739
4.8607966417670365	5249348.615947882
4.9094046081847065	3911614.45848088
4.958498654266554	2859228.5770874666
5.008083640809219	3278066.5710198022
5.058164477217312	3542546.3970807246
5.108746121989485	2529086.2248479147
5.15983358320938	1828079.439506222
5.211431919041474	1187129.8391269178
5.263546238231889	1705638.5823919172
5.316181700614208	1752211.9323498867
5.36934351762035	1113113.9714085222
5.423036952796553	866885.4198467076
5.4772673223245185	767305.2471836285
5.532039995547764	949277.1105761377
5.587360395503242	587636.015055775
5.643233999458275	588394.8939494604
5.6996663394528575	667614.4139302892
5.756663002847385	523755.34900861885
5.814229632875859	647772.9469895444
5.872371929204618	539358.3413473014
5.931095648496664	518779.72920275934
5.990406604981631	610166.5715909093
6.050310671031448	528739.8869341945
6.110813777741763	517072.6224810944
6.17192191551918	501772.8866259989
6.233641134674372	1493246.7401764728
6.295977546021115	1738907.0095566239
6.358937321481327	937544.2638556508
6.42252669469614	348528.33581369417
6.486751961643101	334332.3972541109
6.551619481259532	418648.29959759314
6.617135676072128	346976.7597140579
6.683307032832849	476432.5396078947
6.750140103161177	661513.720401128
6.81764150419279	611895.5158016172
6.885817919234718	514125.48579148814
6.954676098427065	625514.525113062
7.024222859411336	485829.00275622046
7.094465088005449	656988.4970332832
7.165409738885503	433606.97911004577
7.237063836274358	518428.6732109753
7.309434474637103	423685.65401996474
7.382528819383473	374357.9529607487
7.456354107577308	345646.77288882213
7.530917648653081	464710.8092036044
7.606226825139612	488361.5514770302
7.682289093391009	272060.5512409034
7.759111984324918	390836.7597810054
7.836703104168168	459526.160340518
7.91507013520985	419338.22803662077
7.994220836561947	477475.147719949
8.074163044927568	463024.08599085675
8.154904675376844	504632.0537601482
8.23645372213061	528803.3137274846
8.318818259351918	658994.1742141725
8.402006441945437	622355.665078331
8.486026506364892	604953.3523291274
8.57088677142854	846977.8706014843
8.656595639142825	750820.6487197246
8.743161595534254	915689.201480797
8.830593211489598	882816.0448858627
8.918899143604493	714285.5950661831
9.00808813504054	847408.9941276847
9.098169016390944	982703.8572448589
9.189150706554853	999766.6326496776
9.281042213620402	794849.2408484574
9.373852635756606	599857.382106036
9.467591162114172	875905.7803245544
9.562267073735315	982850.4940107972
9.657889744472667	701536.9563023563
9.754468641917395	733349.8029022058
9.852013328336568	893584.5707498015
9.950533461619933	964724.2789323574
10.050038796236134	948620.725504251
10.150539184198495	1008345.4897232978
10.252044576040479	924140.918708617
10.354565021800884	234316.59107082628
10.458110672018893	413782.5480890798
10.562691778739081	595608.1955126816
10.668318696526473	496119.1985633806
10.775001883491738	332150.6109163175
10.882751902326655	552653.3336142135
10.991579421349924	504244.3051425286
11.101495215563421	598715.9716170429
11.212510167719055	480399.68714750744
11.324635269396246	444892.42887204874
11.43788162209021	653240.661536474
11.552260438311112	246211.60371302406
11.667783042694223	434246.86163254536
11.784460873121166	376210.38564453984
11.902305481852377	489469.8426116
12.0213285366709	338529.4275447636
12.14154182203761	486767.1946809624
12.262957240257986	390687.8705101076
12.385586812660566	319450.1117440835
12.509442680787172	295766.0188518508
12.634537107595044	339692.08406092064
12.760882478670995	318834.38805616787
12.888491303457704	329421.7815195173
13.01737621649228	289438.81720893295
13.147549978657205	304190.8694569408
13.279025478443776	252595.99213122827
13.411815733228213	238074.46652680187
13.545933890560496	268847.0153028416
13.681393229466101	249314.64307763992
13.818207161760762	220212.87080650593
13.956389233378369	234440.39864200057
14.095953125712155	222455.2468889651
14.236912656969274	183787.39653521002
14.379281783538968	177709.3719531237
14.523074601374358	157989.0352439367
14.6683053473881	213385.19173257553
14.814988400861985	199578.7962085144
14.963138284870602	156631.28018180063
15.11276966771931	187342.83298506806
15.263897364396504	193687.68399076143
15.41653633804047	158423.44962699653
15.570701701420873	124262.63901833147
15.726408718435081	107796.51893763966
15.883672805619431	151807.80340705856
16.042509533675627	105419.19705505019
16.202934629012383	119343.39471303184
16.36496397530251	118054.67723923334
16.528613615055534	116994.0911735118
16.69389975120609	89627.02815898505
16.86083874871815	99919.62955670955
17.02944713620533	95219.0688169264
17.199741607567383	80200.02970395294
17.37173902364306	73813.85211598825
17.54545641387949	81549.0922205699
17.720910978018285	80177.72239817967
17.898120087798468	76727.56268796144
18.077101288676452	75277.41846090181
18.257872301563214	64311.18187547349
18.44045102457885	69200.04356119277
18.62485553482464	60575.28122366079
18.811104090172883	67960.31170643104
18.999215131074614	52188.99375300008
19.189207282385357	59267.30007570927
19.381099355209216	44822.653365140424
19.574910348761303	46035.11733545584
19.77065945224892	48224.20577930199
19.968366046771408	41385.12963460687
20.16804970723912	55992.72023328854
20.369730204311512	39145.00347349699
20.573427506354626	37951.73418795295
20.779161781418175	41720.31555344544
20.98695339923236	35108.82739677224
21.19682293322468	34019.23922589344
21.408791162556927	30960.95717185484
21.622879074182496	33134.839888121285
21.839107864924323	27907.844331087075
22.057498943573567	30159.209114052275
22.278073933009303	30762.794861049693
22.500854672339393	24044.112061237254
22.72586321906279	36198.944898094276
22.953121851253417	22822.347818282098
23.18265306976595	35178.51720273055
23.41447960046361	31734.45347051622
23.648624396468247	19873.813253311328
23.88511064043293	17878.43758304948
24.12396174683726	28397.157287765836
24.365201364305634	32512.343309787502
24.608853377948687	29451.528111351006
24.854941911728176	24284.136183659513
25.103491330845458	14811.551425006615
25.354526244153913	14663.452827665094
25.608071506595454	20833.11299865807
25.864152221661406	20771.33821489129
26.122793743878024	16632.84737204747
26.384021681316803	19791.812199140055
26.64786189812997	11813.711464216205
26.91434051711127	12671.63849173306
27.18348392228238	15463.33145986171
27.455318761505207	22564.899694792723
27.72987194912026	17573.939736733395
28.007170668611465	11330.999202807641
28.28724237529758	9635.015450323197
28.57011479905055	8906.309117534383
28.855815947041062	12624.503412404718
29.144374106511474	10190.029682822831
29.435817847576587	10711.734520613549
29.730176026052348	10473.242570901104
30.027477786312875	10085.930444685124
30.327752564176006	8564.076679422358
30.631030089817763	7117.879090955229
30.93734039071594	7402.949289504828
31.246713794623105	9276.911572248708
31.559180932569333	9124.811395164925
31.874772741895026	7765.0413720584365
32.19352046931398	8589.305690302981
32.51545567400712	8494.903718573169
32.84061023074719	5665.087002957074
33.169016333054664	5124.85587944406
33.500706496385206	6368.321786929414
33.83571356134906	6712.608053469307
34.17407069696255	6695.31604236943
34.51581140393218	5277.53845531345
34.8609695179715	5138.792434982477
35.209579213151216	5086.51658575704
35.56167500528272	4306.6929006736345
35.917291755335555	3971.2770318426515
36.27646467288891	4188.549654178659
36.639229319617804	4876.282585535635
37.005621612813975	4771.3430769080105
37.37567782894212	4113.1890741115585
37.74943460723154	3950.7000423634045
38.12692895330385	5110.046885230484
38.5081982428369	5423.796039468675
38.893280225265265	3981.791867672935
39.28221302751791	2857.579600288103
39.6750351577931	2798.563202252317
40.071785509371026	2895.622481039823
40.47250336446474	2713.192471840823
40.87722839810939	2816.6067383279624
41.28600068209048	2918.4323339367556
41.69886068891139	3923.6987986026334
42.1158492958005	3249.319686872309
42.53700778875851	2984.9794656088625
42.962377866646094	2449.9595441871497
43.392001645312554	2264.5396167046624
43.825921661765676	2007.1547946378878
44.264180878383335	1919.7422358858646
44.70682268716717	1974.9494304337422
45.15389091403884	1990.9149192945838
45.60542982317923	2211.1440407080863
46.06148412141103	2242.796226313384
46.52209896262513	1783.4448917824757
46.98731995225138	1658.520791206568
47.4571931517739	1674.0674346621765
47.93176508329164	1557.0754067425657
48.411082734124555	1502.5896910576253
48.8951935614658	1352.5770569928704
49.38414549708046	1265.3525268365415
49.877986952051266	1202.2590064977378
50.37676682157178	1157.971047921125
50.88053448978749	1117.033872873473
51.38933983468537	1077.4942720801591
51.903233233032225	1039.3158107386305
52.422265565362544	1002.4470749172211
52.946488221016175	966.8449257132795
53.47595310322633	932.4776317320355
54.010712634258596	899.2917913539661
54.550819760601186	867.2549301179484
55.0963279582072	836.3275718398381
55.647291237789275	806.4707314962166
56.20376415016716	777.6540316455669
56.765801791668835	749.8363560861222
57.33345980958552	722.9891478075757
57.906794407681375	697.0786710724757
58.48586235175819	672.0706046364402
59.070720975275776	647.9398484081424
59.661428185028534	624.6504354014238
60.25804246687882	602.1804375195354
60.860622891547614	580.4969611171248
61.46922912046309	559.5758897252048
62.083921411667724	539.3922335388913
62.7047606257844	519.9166695003848
63.331808232042235	501.1314711736979
63.965126314362664	483.00792752741467
64.60477757750628	465.5247837082867
65.25082535328136	448.6611409708179
65.90333360681416	432.3928373505444
66.56236694288232	416.7046794503158
67.22799061231113	401.5719665095028
67.90027051843424	386.9772729799705
68.57927322361859	372.9024613358849
69.26506595585477	359.32753957478013
69.95771661541333	346.23904930911914
70.65729378156746	333.6163825606988
71.36386671938313	321.4451031872641
72.07750538657696	309.7090161678504
72.79828044044274	298.3927343034839
73.52626324484716	287.48312385957945
74.26152587729563	276.96367254327805
75.00414113606858	266.82327565192946
75.75418254742928	257.046745141866
76.51172437290357	247.62146077536266
77.27684161663261	238.53655980403138
78.04961003279894	229.7778792947929
78.83010613312693	221.33657247467053
79.6184071944582	213.19927624932387
80.41459126640278	205.35568789856154
81.2187371790668	197.79682296767513
82.03092455085748	190.51067999985395
82.85123379636605	183.4893715786406
83.6797461343297	176.7219468883297
84.51654359567301	170.2003065698913
85.36170903162974	163.91584831423026
86.21532612194603	157.85916542677984
87.0774793831655	152.023620338611
87.94825417699715	146.40004473166113
88.82773671876713	140.98150079158165
89.71601408595481	135.76069315849438
90.61317422681435	130.729762671275
91.5193059690825	125.88355776034344
92.43449902877332	121.21347048852063
93.35884401906105	116.71483541149489
