#wavelength	surface flux
0.6450077295303345	5306103.070748534
0.6472567915916443	8122216.727841462
0.6494921445846558	10102049.05339778
0.6517150402069092	11119665.060311437
0.6539263725280762	12122298.606213626
0.6561272740364075	12991753.595797155
0.6583186388015747	13828478.976849992
0.6605015397071838	14698216.312060248
0.6626768708229065	15478120.359802049
0.6648455858230591	16011913.227465589
0.6670085787773132	16402311.704563068
0.6691668033599854	16737388.810445396
0.6713210344314575	17123211.92336304
0.6734722256660461	17896365.994396463
0.6756211519241333	18935305.68709553
0.6777685880661011	19749434.940213684
0.6799154281616211	20254290.254886515
0.6820623278617859	20583368.94010571
0.6842101216316223	20591442.98533308
0.6863595843315125	20120967.394109014
0.688511312007904	19248869.04092413
0.6906660795211792	18621952.107906904
0.6928245425224304	18909088.081351906
0.6949873566627502	19660446.05022891
0.6971551775932312	20099406.038194362
0.6993286609649658	20568256.661221188
0.7015084028244019	22004351.797793575
0.7036949396133423	23870503.89140329
0.7058889269828796	24214449.718375735
0.7080909013748169	23343863.11424061
0.710301399230957	22960348.266489144
0.712520956993103	23052024.04665529
0.7147500514984131	23549859.288662996
0.7169892191886902	24791174.358227868
0.7192389369010925	26193360.409979753
0.7214996814727783	27235005.043944187
0.723771870136261	28330155.181130864
0.7260559797286987	29503179.552763056
0.7283523678779602	30377491.332684223
0.7306615710258484	30859126.92754749
0.7329838871955872	30500929.402218428
0.7353196740150452	28981141.561399773
0.7376693487167358	26850267.57448824
0.7400332689285278	24546414.97346599
0.7424117922782898	22472658.49999486
0.7448052167892456	20820772.61607629
0.7472138404846191	19408806.193899177
0.7496379613876343	18048487.572821513
0.7520779371261597	16617135.482526122
0.7545340061187744	15090710.967129312
0.7570064663887024	12993024.313966053
0.7594954967498779	9840450.321535263
0.7620013952255249	5882125.56257881
0.7645244002342224	2352468.9908483815
0.7670646905899048	551619.6292908997
0.7696225643157959	398384.90130844724
0.7721980810165405	1773230.8153742733
0.7747915983200073	5418334.421348793
0.7774031162261963	9968996.05771416
0.7800329327583313	13912502.106716713
0.7826811671257019	19285391.355869845
0.7853479981422424	25044909.704408783
0.7880334854125977	28472334.515929215
0.7907378077507019	29977482.192079313
0.7934610247612	29863304.793438055
0.7962033748626709	31292784.973271348
0.7989648580551147	36195009.520549
0.801745593547821	42576033.37600718
0.8045456409454346	49962267.94960124
0.8073651194572449	58349855.28148409
0.8102040886878967	67324574.75001314
0.8130625486373901	76024797.51494673
0.8159406185150146	81003744.80562307
0.8188382983207703	81748476.27445073
0.8217556476593018	86802985.55907117
0.8246926665306091	96212149.08736317
0.8276493549346924	101883145.10351178
0.8306257724761963	104808791.82411836
0.8336219191551208	108556708.65824346
0.8366377949714661	112780547.57592288
0.8396733403205872	115706950.0860114
0.8427285552024841	113905526.40409043
0.8458034992218018	107947366.78129292
0.8488980531692505	104149165.02582744
0.8520121574401855	103955307.31380838
0.8551458716392517	108926401.09104137
0.8582990765571594	113689253.93362086
0.8614717125892639	109862183.18258615
0.8646637797355652	105586489.22797805
0.8678751587867737	106750975.31823316
0.8711057901382446	109531096.63429022
0.8743556141853333	115663819.35173962
0.87762451171875	126179121.2688641
0.8809124231338501	136956764.33571157
0.8842192888259888	142741087.23752636
0.8875449895858765	140912418.28530458
0.8908893465995789	139433663.57818407
0.894252359867096	143813165.97273305
0.8976338505744934	155962395.2666154
0.9010337591171265	171324610.54133666
0.9044519662857056	182347689.52145556
0.9078882932662964	194526620.2591345
0.9113426208496094	211124096.98095554
0.914814829826355	227693268.8824809
0.9183048605918884	237068390.52370912
0.9218124747276306	230495660.7559208
0.925337553024292	215212452.82036614
0.9288799166679382	205425959.1818645
0.9324395060539246	205275763.30304423
0.9360161423683167	213182583.02646184
0.9396095871925354	223667284.04525223
0.943219780921936	234047717.30774054
0.9468464851379395	244244871.81084064
0.9504896402359009	251534305.35138273
0.9541489481925964	253206996.302865
0.9578243494033813	251301668.40535903
0.9615156054496765	248835630.49149173
0.9652225375175476	250721974.32846022
0.9689450263977051	257960061.32241738
0.9726828336715698	263910071.76379764
0.9764357805252075	270992035.2719752
0.9802037477493286	283153866.30488896
0.983986496925354	295097602.8825672
0.9877838492393494	286089414.9166962
0.9915955662727356	245980322.12867782
0.9954215884208679	217983573.27779782
0.9992615580558777	215953692.66322333
1.0031154155731201	217872998.85725385
1.0069829225540161	225482200.45344812
1.0108637809753418	236934754.94082406
1.0147579908370972	244809675.07638615
1.018665075302124	251328143.5201779
1.022585153579712	257131809.12244734
1.0265177488327026	254875593.790303
1.0304628610610962	255604651.46658316
1.0344202518463135	268920559.9611554
1.0383895635604858	284450257.16138446
1.0423706769943237	292650540.79836386
1.0463634729385376	290676149.9944294
1.0503677129745483	281467475.35758966
1.0543830394744873	272364556.68213975
1.058409333229065	270444198.68870604
1.0624464750289917	278692226.4665507
1.0664942264556885	293046383.8366304
1.0705522298812866	310904866.46053046
1.0746204853057861	332148279.4201575
1.0786986351013184	352168231.344999
1.0827864408493042	368250146.3073518
1.086883783340454	380421629.74315834
1.0909905433654785	388252671.18396854
1.0951062440872192	388324354.10949373
1.0992310047149658	379533408.1670124
1.10336434841156	362607743.84726864
1.1075061559677124	346974442.1111623
1.1116561889648438	346033770.3249193
1.115814208984375	354793940.32253367
1.1199802160263062	364606367.54802144
1.124153733253479	378420443.4612294
1.1283347606658936	386119866.21204203
1.1325229406356812	370091656.93318623
1.1367181539535522	334691075.2150803
1.1409201622009277	322039033.2559363
1.145128846168518	360548866.08078516
1.1493438482284546	406361933.41441524
1.1535650491714478	421120401.75276184
1.1577922105789185	417751405.9197102
1.1620250940322876	404155180.4415646
1.1662636995315552	368714178.8507838
1.170507550239563	331399370.8504183
1.174756646156311	311047876.52706295
1.1790107488632202	309972281.0113482
1.1832695007324219	342341314.9680052
1.1875330209732056	380187568.7278959
1.191800832748413	395067093.4696919
1.1960728168487549	391645545.17665195
1.2003488540649414	390194076.7385509
1.2046287059783936	406780765.86296546
1.2089121341705322	424721398.24623907
1.2131990194320679	438652451.5624742
1.2174891233444214	451540831.6031728
1.2217823266983032	459391505.6566026
1.2260783910751343	469668370.9960262
1.230377197265625	476486626.48660886
1.2346785068511963	469193041.2741556
1.238982081413269	440130370.184816
1.2432878017425537	405495153.1275494
1.2475954294204712	397090162.56681496
1.2519049644470215	396785117.2198578
1.256216049194336	413650245.03164476
1.2605286836624146	447757712.747691
1.2648425102233887	466292408.8607485
1.2691574096679688	477136794.8559922
1.2734732627868652	482736622.30675286
1.2777899503707886	484627482.160999
1.2821072340011597	483882735.6002917
1.2864248752593994	474943810.4896368
1.2907428741455078	467456898.20640045
1.2950609922409058	472135367.812398
1.2993791103363037	482455179.9615084
1.303696870803833	488748017.3893008
1.3080145120620728	486965716.575008
1.3123314380645752	482122039.43293464
1.3166478872299194	480209492.64636934
1.3209635019302368	472863433.18280303
1.3252781629562378	451199088.13707536
1.3295916318893433	404057896.2555025
1.3339040279388428	327027711.17867106
1.3382149934768677	260064345.08467665
1.3425244092941284	231376592.95217356
1.3468321561813354	219410658.49151403
1.3511382341384888	207915446.61993885
1.3554422855377197	201117979.6426187
1.3597444295883179	206152250.83305177
1.3640443086624146	219482941.7455409
1.3683418035507202	229353266.3046008
1.3726370334625244	235721995.229535
1.3769296407699585	244887244.65917706
1.381219506263733	247350469.42739737
1.3855066299438477	241785530.70124865
1.3897908926010132	233821236.65903822
1.3940720558166504	223218809.69217008
1.3983501195907593	217234451.4580978
1.4026249647140503	219158486.23778403
1.4068963527679443	218361582.33690038
1.4111642837524414	210221585.5216
1.4154287576675415	204703842.9644051
1.419689416885376	202291928.76605245
1.4239463806152344	199604326.02019423
1.4281994104385376	201326093.3503844
1.4324485063552856	207427275.17279086
1.436693549156189	212900570.5761621
1.440934419631958	216774601.25155264
1.4451709985733032	221154339.07715628
1.449403166770935	229367601.29315412
1.453631043434143	239546898.32803196
1.4578542709350586	247468774.4518971
1.4620729684829712	250906367.22056076
1.4662868976593018	250899607.06119516
1.4704961776733398	252014885.05634832
1.4747005701065063	256343063.39575806
1.4788999557495117	261294134.18166578
1.4830944538116455	265257787.95095822
1.4872838258743286	268969289.28427327
1.491468071937561	272337324.2238516
1.4956470727920532	276731189.1420557
1.4998208284378052	282059307.61376464
1.5039892196655273	287774509.84685874
1.5081522464752197	293092744.57163656
1.5123097896575928	297670742.0069622
1.5164618492126465	301881612.3088164
1.5206083059310913	307968148.72068393
1.5247491598129272	314310575.0431102
1.5288842916488647	318486434.77027357
1.5330137014389038	323272802.04442054
1.5371372699737549	328720883.19354427
1.541254997253418	333081188.5725346
1.545366883277893	337665125.597242
1.5494728088378906	342581565.8471364
1.5535727739334106	345682313.672224
1.5576666593551636	347069057.2752678
1.561754584312439	349746836.03735715
1.5658363103866577	354938545.7407434
1.5699119567871094	360120863.95337915
1.5739814043045044	363969623.5541749
1.5780447721481323	366097674.2948397
1.582101821899414	368379782.68771696
1.5861525535583496	372023707.84443456
1.5901970863342285	375116300.6353098
1.5942351818084717	377390611.7179711
1.5982669591903687	379284949.0499293
1.6022924184799194	380675863.1972132
1.606311559677124	382309721.81238574
1.6103241443634033	383761427.8652223
1.6143304109573364	384980735.75569695
1.6183301210403442	385936673.20289826
1.6223233938217163	386845106.4651823
1.6263102293014526	388047358.7757874
1.6302905082702637	388560846.9724898
1.634264349937439	388987931.6727586
1.638231635093689	389588854.2658152
1.6421923637390137	389813543.75701445
1.646146535873413	390094959.0673907
1.6500942707061768	389728105.57869416
1.6540353298187256	389253791.56238365
1.6579699516296387	388693700.30277115
1.661897897720337	387765897.24446136
1.6658192873001099	387348731.9330238
1.6697341203689575	386364330.95992446
1.6736423969268799	385665066.5753388
1.677544116973877	385837420.77969104
1.6814392805099487	385004001.87415344
1.6853278875350952	382234965.14644235
1.6892099380493164	378504575.4405648
1.6930854320526123	374367540.0318855
1.696954369544983	369495489.83926994
1.7008168697357178	365600104.6448267
1.7046726942062378	361560263.00466055
1.708522081375122	354778519.97877854
1.712364912033081	345785774.29522043
1.7162011861801147	335932262.1300722
1.7200311422348022	328735906.03349143
1.723854422569275	323753288.1167904
1.7276713848114014	316894185.36251193
1.731481909751892	308919467.86447453
1.7352858781814575	301087739.0498143
1.7390835285186768	292975387.8732351
1.7428747415542603	285282484.4163841
1.7466596364974976	278176900.00020784
1.7504380941390991	271029996.70533043
1.7542102336883545	261963461.46187404
1.7579760551452637	253985917.69317123
1.7617355585098267	249952483.76079386
1.7654887437820435	243865954.35125983
1.7692357301712036	234545826.2171756
1.7729763984680176	226666898.60532963
1.776710867881775	220393050.57500628
1.7804391384124756	213634853.82619202
1.7841613292694092	204827066.80181852
1.7878772020339966	200039239.16775677
1.7915871143341064	198767586.21646762
1.7952908277511597	196061770.2310018
1.7989884614944458	190423862.7314639
1.8026801347732544	182877115.33821374
1.806365728378296	180272184.58552128
1.8100452423095703	181105908.0728149
1.8137187957763672	183941780.18330455
1.817386507987976	181131886.75182945
1.8210482597351074	177681162.56398317
1.8247040510177612	183433137.56112415
1.828354001045227	184362379.41520658
1.8319982290267944	180466828.37304336
1.8356364965438843	177895017.53463906
1.8392690420150757	174809035.51880288
1.8428958654403687	169744487.0203228
1.8465168476104736	162354199.64669168
1.8501322269439697	159915788.72444063
1.8537418842315674	156732785.92830765
1.8573459386825562	145378583.94286895
1.860944390296936	138362183.65879604
1.864537239074707	141629469.97762513
1.8681244850158691	148754775.689318
1.871706247329712	154445071.5366482
1.8752825260162354	158788484.04520455
1.8788533210754395	166292544.72968274
1.8824186325073242	175801689.86470708
1.8859784603118896	180834717.49663103
1.8895330429077148	180641376.01522103
1.8930821418762207	182865793.8844515
1.8966259956359863	189216001.30714127
1.9001644849777222	192382407.89351788
1.9036977291107178	191030117.9169607
1.9072256088256836	191101046.77688262
1.9107483625411987	192149410.55417415
1.9142658710479736	192242938.53068218
1.9177782535552979	191080961.10160995
1.9212853908538818	186352051.76060027
1.9247875213623047	183137912.11684075
1.9282845258712769	181973607.09642437
1.9317764043807983	178061947.9708742
1.9352631568908691	171971408.22871068
1.9387450218200684	162115180.07970276
1.942221760749817	158847608.6226964
1.9456936120986938	164571909.9651842
1.9491604566574097	167230199.2043506
1.952622413635254	164354528.8125182
1.956079363822937	160349678.51092878
1.959531545639038	160337407.8951878
1.962978720664978	162112915.64107573
1.966421127319336	165605202.01603076
1.9698586463928223	166847299.49134818
1.9732913970947266	161484035.54851454
1.9767193794250488	158332943.7386675
1.9801424741744995	160492776.4732526
1.9835609197616577	165293695.31265932
1.9869745969772339	167458519.89042646
1.990383505821228	163215008.30091348
1.9937876462936401	164693606.5873299
1.9971871376037598	168507275.9126555
2.000581979751587	170459987.56049052
2.003972291946411	175761603.66439053
2.007357597351074	175196687.42333603
2.0107386112213135	173581146.71651757
2.0141148567199707	178171073.90677148
2.017486572265625	180733839.31830972
2.0208535194396973	184992576.46881226
2.0242159366607666	189609810.90786985
2.027573823928833	187203183.35707107
2.0309269428253174	188833200.98260766
2.034275770187378	195534217.34976223
2.0376198291778564	198479899.03583288
2.040959596633911	199247804.03216812
2.044294595718384	200632327.8637892
2.0476250648498535	203118139.734855
2.0509510040283203	204868050.47352156
2.054272413253784	206590420.42025137
2.057589530944824	211393805.75503317
2.0609018802642822	212722794.68211827
2.0642096996307373	211346702.7529467
2.0675129890441895	214824289.6722393
2.0708119869232178	217255157.62859288
2.074106216430664	216732161.37195703
2.0773961544036865	218418985.36105883
2.080681324005127	220392074.4684732
2.0839622020721436	220971444.65574294
2.087238311767578	221930817.64915347
2.090510129928589	223732855.672112
2.0937774181365967	224765628.34371042
2.0970399379730225	224793549.15189925
2.1002981662750244	225473763.01646116
2.1035518646240234	226136390.22442997
2.1068007946014404	226263196.93943286
2.1100454330444336	226713469.45912597
2.1132853031158447	227622429.598822
2.116520881652832	227531413.27097538
2.1197516918182373	227325880.01743668
2.1229779720306396	228195173.58561277
2.12619948387146	228035780.8439775
2.1294167041778564	227069014.06381893
2.132629156112671	227549856.78782076
2.1358368396759033	228062723.81177753
2.139039993286133	227004512.271706
2.1422386169433594	226689835.13821802
2.145432472229004	227604913.52412823
2.1486217975616455	227072489.60338157
2.151806354522705	225798661.29520616
2.1549863815307617	225656549.76682472
2.1581614017486572	225737023.59734854
2.16133189201355	225359204.09049848
2.1644976139068604	224887986.05857742
2.167658567428589	224675649.6976613
2.1708147525787354	224072812.53495166
2.173966407775879	222839627.07418242
2.1771130561828613	221663263.10389838
2.1802549362182617	221237925.60018522
2.183391809463501	220968429.77889004
2.1865241527557373	220212840.7915212
2.1896514892578125	219693085.99079955
2.1927738189697266	218902608.1243716
2.1958916187286377	217647490.3761494
2.1990041732788086	216448348.98344538
2.2021119594573975	214984547.22318944
2.2052149772644043	213892522.58810553
2.208312749862671	213661052.97548833
2.2114057540893555	213824322.87919956
2.214493751525879	213698890.3738546
2.217576742172241	212092041.42682433
2.2206547260284424	210299987.5642274
2.2237277030944824	210590843.90581194
2.2267956733703613	210733859.31650138
2.2298583984375	209898818.56774044
2.2329163551330566	208925169.1472829
2.235969066619873	207660836.62637287
2.2390167713165283	206973957.27556825
2.2420592308044434	205924879.72117013
2.2450966835021973	204866304.25100246
2.248128890991211	204318348.74586886
2.2511560916900635	203651184.33338568
2.254178285598755	203142047.79923037
2.257194995880127	202977656.867253
2.260206699371338	202594846.1985046
2.2632133960723877	200759421.0997865
2.266214609146118	198907266.63335153
2.2692108154296875	197925175.74197513
2.2722020149230957	197539725.9986359
2.2751877307891846	198144683.78151065
2.278168201446533	197147082.8498829
2.2811436653137207	195015988.9526052
2.284113883972168	195034250.27997229
2.287078857421875	195753194.74094743
2.290038824081421	190428666.5487707
2.2929933071136475	172993312.63565725
2.295942783355713	155291923.27478313
2.298887014389038	150553932.83211306
2.301826238632202	152677103.55126733
2.304760217666626	154467123.4757242
2.3076889514923096	154675666.93577588
2.310612440109253	154617437.11300802
2.3135311603546143	154995386.8201172
2.3164443969726562	155386463.9345117
2.319352865219116	154623217.59778258
2.322256088256836	148899946.51539344
2.3251543045043945	143456933.55790973
2.328047275543213	143633492.06883603
2.330935478210449	145783092.12930274
2.3338186740875244	148378655.99506527
2.3366971015930176	149687352.09367275
2.3395702838897705	148751779.35438985
2.3424389362335205	148501326.21828935
2.3453025817871094	151799959.24978557
2.348161458969116	155592771.0825386
2.351015567779541	152487317.24980885
2.353865146636963	146961864.9535275
2.3567099571228027	144992156.59648153
2.3595502376556396	143987455.4037633
2.3623859882354736	144415212.71361464
2.3652172088623047	144909657.1716952
2.368043899536133	144021903.14231765
2.370866537094116	144534828.22457212
2.3736846446990967	146738914.03500667
2.3764986991882324	146848641.213059
2.3793084621429443	144535989.76161927
2.3821144104003906	141038319.90672264
2.384916305541992	137206404.27413225
2.387714147567749	137019522.35671437
2.3905084133148193	140097305.70631826
2.393299102783203	141093283.84047088
2.3960859775543213	140581233.08724406
2.398869514465332	140621643.26360756
2.4016497135162354	138927391.80539882
2.4044265747070312	136793992.0573368
2.407200336456299	133973818.75767152
2.409970998764038	130948256.65456162
2.4127390384674072	129799622.97229333
2.415503978729248	128518616.93148737
2.418266534805298	126471652.86359285
2.4210267066955566	125219773.93000461
2.4237842559814453	124230450.00224486
2.426539897918701	122284848.3854324
2.429293394088745	121444937.55540444
2.4320452213287354	119027164.54175086
2.4347951412200928	113379686.24217695
2.4375438690185547	112544971.71572101
2.440291166305542	114503713.2122944
2.443037271499634	110869528.43184534
2.445782423019409	106286470.56587626
2.4485268592834473	105062074.26032294
2.451270818710327	100272685.76532364
2.454014539718628	95831601.72938913
2.4567582607269287	103593072.44389918
2.4595019817352295	105104712.00800125
2.4622461795806885	101113996.05991204
2.4649908542633057	101906170.73955576
2.4677364826202393	94765087.7141997
2.4704833030700684	88055403.71003814
