#wavelength	surface flux
0.6450077295303345	57168.31740232573
0.6472567915916443	94265.6650718918
0.6494921445846558	133015.5015606602
0.6517150402069092	167179.23926986282
0.6539263725280762	207571.4367447643
0.6561272740364075	254978.54511403915
0.6583186388015747	310364.92463952454
0.6605015397071838	376787.7864789134
0.6626768708229065	454780.36182564637
0.6648455858230591	543674.6013051968
0.6670085787773132	642301.2373634088
0.6691668033599854	745178.2506968058
0.6713210344314575	859261.9707127499
0.6734722256660461	997234.2018291045
0.6756211519241333	1140373.6538895038
0.6777685880661011	1265624.553203514
0.6799154281616211	1367933.7150625426
0.6820623278617859	1429527.7955323516
0.6842101216316223	1435597.175611911
0.6863595843315125	1381163.213657536
0.688511312007904	1268393.2759611306
0.6906660795211792	1139936.9699314649
0.6928245425224304	1037882.6965713828
0.6949873566627502	972967.0622186684
0.6971551775932312	945713.314508191
0.6993286609649658	963295.3380207642
0.7015084028244019	1030788.799434367
0.7036949396133423	1111488.3761775752
0.7058889269828796	1165038.6060226315
0.7080909013748169	1190093.9717971997
0.710301399230957	1210597.4201787848
0.712520956993103	1236305.0769577965
0.7147500514984131	1247801.792843354
0.7169892191886902	1232749.17071512
0.7192389369010925	1193417.9084939172
0.7214996814727783	1137499.239891167
0.723771870136261	1073970.2336713504
0.7260559797286987	1002150.5383070057
0.7283523678779602	923033.9348208881
0.7306615710258484	838152.8647699353
0.7329838871955872	747343.8734068796
0.7353196740150452	663000.5755045051
0.7376693487167358	587898.1920383748
0.7400332689285278	509386.20735459257
0.7424117922782898	435332.336283317
0.7448052167892456	375390.6210859995
0.7472138404846191	319670.7087293295
0.7496379613876343	260226.82635847383
0.7520779371261597	204055.60710739024
0.7545340061187744	157254.8133989936
0.7570064663887024	115875.26965582852
0.7594954967498779	77390.20133741255
0.7620013952255249	40474.64487490967
0.7645244002342224	13511.322954023039
0.7670646905899048	2874.629483252884
0.7696225643157959	2393.015525479146
0.7721980810165405	11186.956242409133
0.7747915983200073	40216.66905861461
0.7774031162261963	86997.24017959922
0.7800329327583313	149492.47246061653
0.7826811671257019	261873.53363277655
0.7853479981422424	425771.43204335513
0.7880334854125977	618867.9681382054
0.7907378077507019	818870.3740217556
0.7934610247612	981001.6175968641
0.7962033748626709	1276995.947349982
0.7989648580551147	1823908.92421342
0.801745593547821	2411646.5305576012
0.8045456409454346	2970433.776264253
0.8073651194572449	3574686.3180153496
0.8102040886878967	4244462.332197696
0.8130625486373901	5000795.860692867
0.8159406185150146	5797496.648373288
0.8188382983207703	6615917.725040869
0.8217556476593018	7606546.126787547
0.8246926665306091	8761431.786886353
0.8276493549346924	9926505.109418247
0.8306257724761963	11094619.933540355
0.8336219191551208	12300106.190914031
0.8366377949714661	13544064.876212299
0.8396733403205872	14861633.99214324
0.8427285552024841	16286890.65402816
0.8458034992218018	17667034.160642035
0.8488980531692505	18227065.581064846
0.8520121574401855	18157541.438879132
0.8551458716392517	19802905.856339578
0.8582990765571594	21919885.559095223
0.8614717125892639	21688901.900136277
0.8646637797355652	21298844.46827273
0.8678751587867737	22606055.64033865
0.8711057901382446	24393111.949073166
0.8743556141853333	26326019.906880062
0.87762451171875	28689166.352436844
0.8809124231338501	31123655.81009035
0.8842192888259888	33507371.01805372
0.8875449895858765	35606617.42920955
0.8908893465995789	36141824.145801194
0.894252359867096	35659311.42429336
0.8976338505744934	38041504.98992583
0.9010337591171265	42314133.633101396
0.9044519662857056	45237453.05988893
0.9078882932662964	47210955.43955
0.9113426208496094	48777475.01603437
0.914814829826355	50189410.51390892
0.9183048605918884	51711491.05444314
0.9218124747276306	52933393.87084443
0.925337553024292	51450685.24667245
0.9288799166679382	47428904.8834341
0.9324395060539246	46169409.351109624
0.9360161423683167	49336050.95954516
0.9396095871925354	53444898.66481867
0.943219780921936	55592891.04836225
0.9468464851379395	56012857.63459339
0.9504896402359009	56619974.040644415
0.9541489481925964	57569358.17401352
0.9578243494033813	58333014.60039036
0.9615156054496765	59477584.14800688
0.9652225375175476	61559757.55693666
0.9689450263977051	63961536.94229919
0.9726828336715698	66036077.30131264
0.9764357805252075	67886415.75076513
0.9802037477493286	69722019.93787569
0.983986496925354	71597352.65429924
0.9877838492393494	74058865.69158387
0.9915955662727356	76827081.93847251
0.9954215884208679	77867991.0494941
0.9992615580558777	77185362.5799895
1.0031154155731201	77749220.11273445
1.0069829225540161	80231101.61649817
1.0108637809753418	82911552.46899827
1.0147579908370972	85073857.55476515
1.018665075302124	86687890.53050867
1.022585153579712	88032694.20433152
1.0265177488327026	89467959.26291098
1.0304628610610962	90745183.42885341
1.0344202518463135	91664023.45518176
1.0383895635604858	92543503.12513398
1.0423706769943237	93608644.95792189
1.0463634729385376	94965567.77158043
1.0503677129745483	96708992.77498503
1.0543830394744873	98455243.09520255
1.058409333229065	99667631.38787776
1.0624464750289917	100195145.98096682
1.0664942264556885	100183707.45744629
1.0705522298812866	99910524.74926817
1.0746204853057861	99640257.72999631
1.0786986351013184	99526960.43825841
1.0827864408493042	99599079.59617043
1.086883783340454	99701490.54406211
1.0909905433654785	99234735.56986213
1.0951062440872192	97553155.63702899
1.0992310047149658	94532908.09929208
1.10336434841156	90392893.2674859
1.1075061559677124	85307022.28238252
1.1116561889648438	79972509.70760888
1.115814208984375	76321303.4105503
1.1199802160263062	74769846.28427306
1.124153733253479	74737833.78408252
1.1283347606658936	74720644.64054221
1.1325229406356812	71308156.92532803
1.1367181539535522	71698796.11273362
1.1409201622009277	78784385.58558942
1.145128846168518	81262635.3849619
1.1493438482284546	77282232.54652469
1.1535650491714478	71507077.11610024
1.1577922105789185	68197635.55320197
1.1620250940322876	67144681.45220558
1.1662636995315552	67878273.29147281
1.170507550239563	72972448.77579115
1.174756646156311	79271498.36514817
1.1790107488632202	86160423.60567869
1.1832695007324219	94655447.47784261
1.1875330209732056	101242995.41565795
1.191800832748413	106511422.68390572
1.1960728168487549	111961209.8783116
1.2003488540649414	116021082.99270682
1.2046287059783936	118936296.02374357
1.2089121341705322	121268704.30110456
1.2131990194320679	123100973.49020943
1.2174891233444214	124614076.76154119
1.2217823266983032	125781408.41716221
1.2260783910751343	126538075.05050713
1.230377197265625	127195649.021389
1.2346785068511963	128036572.38488828
1.238982081413269	129321282.82326704
1.2432878017425537	130615421.25311671
1.2475954294204712	131166480.36950909
1.2519049644470215	131421704.16343309
1.256216049194336	131386527.3162951
1.2605286836624146	130967801.20424242
1.2648425102233887	130850221.24673434
1.2691574096679688	130959234.94167778
1.2734732627868652	130987480.91491725
1.2777899503707886	130887227.57985026
1.2821072340011597	130690822.5107893
1.2864248752593994	130506865.00164153
1.2907428741455078	130178819.32293165
1.2950609922409058	129825028.88106507
1.2993791103363037	129686491.50679389
1.303696870803833	129372943.72943893
1.3080145120620728	128576616.58980381
1.3123314380645752	127589820.62201816
1.3166478872299194	127617242.46360451
1.3209635019302368	127566326.44005841
1.3252781629562378	121244096.15247823
1.3295916318893433	100671033.32042547
1.3339040279388428	70993603.0796604
1.3382149934768677	47659067.0804458
1.3425244092941284	34734407.00991088
1.3468321561813354	27158875.239523575
1.3511382341384888	21857911.98242187
1.3554422855377197	18514290.483534608
1.3597444295883179	18553578.441135347
1.3640443086624146	21926033.72411992
1.3683418035507202	24210588.00316892
1.3726370334625244	24953496.432566028
1.3769296407699585	27561440.841856007
1.381219506263733	28746941.69147311
1.3855066299438477	27643403.2877961
1.3897908926010132	26864289.300219785
1.3940720558166504	25291649.7831001
1.3983501195907593	23631074.48097512
1.4026249647140503	23426639.14503861
1.4068963527679443	23049554.220531166
1.4111642837524414	22152375.103915963
1.4154287576675415	22407419.16596495
1.419689416885376	22292355.85845203
1.4239463806152344	21932815.268120203
1.4281994104385376	24133293.70117018
1.4324485063552856	27697422.750941813
1.436693549156189	30128812.40646812
1.440934419631958	31816063.443960365
1.4451709985733032	34309589.908297725
1.449403166770935	39954116.3335876
1.453631043434143	46720123.94480922
1.4578542709350586	51390679.29288125
1.4620729684829712	53400605.4216055
1.4662868976593018	53610764.406349845
1.4704961776733398	54283021.18706336
1.4747005701065063	57067207.17496348
1.4788999557495117	60949398.36832427
1.4830944538116455	64128437.2545193
1.4872838258743286	66696185.22206924
1.491468071937561	69250828.44295521
1.4956470727920532	72962549.42304204
1.4998208284378052	77402835.49501824
1.5039892196655273	82056555.33935972
1.5081522464752197	86754253.56103395
1.5123097896575928	91516956.79338494
1.5164618492126465	96206089.5923003
1.5206083059310913	101343488.20218839
1.5247491598129272	106920160.08117492
1.5288842916488647	111643491.46048237
1.5330137014389038	116312760.97585458
1.5371372699737549	121418237.01360959
1.541254997253418	126021599.56879188
1.545366883277893	130596325.72438464
1.5494728088378906	134743027.67047575
1.5535727739334106	137184665.2806625
1.5576666593551636	137973334.15384245
1.561754584312439	139139815.75567147
1.5658363103866577	142188772.44427383
1.5699119567871094	145441093.0661437
1.5739814043045044	147304994.8203526
1.5780447721481323	147325895.28249332
1.582101821899414	146965525.38403755
1.5861525535583496	147401364.306874
1.5901970863342285	147665456.17177376
1.5942351818084717	147359559.3377798
1.5982669591903687	146872087.83558506
1.6022924184799194	145716022.4424408
1.606311559677124	143797102.07138503
1.6103241443634033	141750417.1311173
1.6143304109573364	139067218.42619756
1.6183301210403442	136667869.47287688
1.6223233938217163	138482686.18440372
1.6263102293014526	141652649.93054894
1.6302905082702637	140375803.41047785
1.634264349937439	136922822.1033586
1.638231635093689	134818433.71499127
1.6421923637390137	133382030.98764797
1.646146535873413	132555981.46758963
1.6500942707061768	133863334.13969746
1.6540353298187256	133979765.61462918
1.6579699516296387	131172820.98654707
1.661897897720337	128337668.05300881
1.6658192873001099	122228033.32368603
1.6697341203689575	115810820.08508939
1.6736423969268799	118657787.20140386
1.677544116973877	126066343.50472072
1.6814392805099487	126121170.8914858
1.6853278875350952	117652123.9330572
1.6892099380493164	109614003.53053628
1.6930854320526123	106307543.49751966
1.696954369544983	105585282.34578815
1.7008168697357178	107594821.40825626
1.7046726942062378	110315369.43226868
1.708522081375122	110519415.71666056
1.712364912033081	109700254.80502596
1.7162011861801147	108744877.08935104
1.7200311422348022	105350131.23990887
1.723854422569275	99792046.9575603
1.7276713848114014	96538775.550464
1.731481909751892	95554293.78340633
1.7352858781814575	92535399.7260698
1.7390835285186768	87181864.30905673
1.7428747415542603	81499900.42327046
1.7466596364974976	76684792.50843441
1.7504380941390991	73394795.36922842
1.7542102336883545	69583289.47146697
1.7579760551452637	66740213.99369862
1.7617355585098267	66008069.81981073
1.7654887437820435	62367771.03509706
1.7692357301712036	55493987.49610771
1.7729763984680176	49499416.529597394
1.776710867881775	45908437.083092675
1.7804391384124756	43562345.71214161
1.7841613292694092	39692177.30702055
1.7878772020339966	37217843.855197035
1.7915871143341064	36335599.83454509
1.7952908277511597	35217157.53056279
1.7989884614944458	33551991.26338096
1.8026801347732544	29523567.487623367
1.806365728378296	27509284.408413574
1.8100452423095703	29105730.311553273
1.8137187957763672	31803882.54643854
1.817386507987976	30477450.45606494
1.8210482597351074	29162783.129734613
1.8247040510177612	32322172.766142122
1.828354001045227	31538801.849616975
1.8319982290267944	27954633.877310485
1.8356364965438843	26030603.031141967
1.8392690420150757	25129147.3560181
1.8428958654403687	24570537.86197046
1.8465168476104736	22962163.479093555
1.8501322269439697	22651815.125530347
1.8537418842315674	22307488.787483796
1.8573459386825562	18826592.858961005
1.860944390296936	15894012.771816755
1.864537239074707	15683965.598034905
1.8681244850158691	16731679.59357968
1.871706247329712	18746155.19880513
1.8752825260162354	22015228.483915493
1.8788533210754395	26643400.12980417
1.8824186325073242	31185709.562503844
1.8859784603118896	33223221.476455137
1.8895330429077148	33294314.987748362
1.8930821418762207	35665820.215456255
1.8966259956359863	39100745.88710235
1.9001644849777222	38497342.62378636
1.9036977291107178	36750464.66541123
1.9072256088256836	37877176.34696838
1.9107483625411987	38332403.65018143
1.9142658710479736	37734269.338947885
1.9177782535552979	38373396.31133443
1.9212853908538818	36519046.026199855
1.9247875213623047	33422303.977898125
1.9282845258712769	31322802.397952314
1.9317764043807983	28683927.965629756
1.9352631568908691	25849908.64342309
1.9387450218200684	22649912.277950563
1.942221760749817	22552248.966895375
1.9456936120986938	25419064.00284198
1.9491604566574097	27116357.214978494
1.952622413635254	26703955.008339886
1.956079363822937	25171279.30817048
1.959531545639038	25065774.903546274
1.962978720664978	26120241.67805478
1.966421127319336	28141162.672513224
1.9698586463928223	29468936.21894119
1.9732913970947266	28639438.656354945
1.9767193794250488	28884028.944937028
1.9801424741744995	30142765.395672888
1.9835609197616577	32115801.35101182
1.9869745969772339	33556645.82009433
1.990383505821228	32448023.7532302
1.9937876462936401	33937763.21169559
1.9971871376037598	36172528.532736555
2.000581979751587	37420105.709400594
2.003972291946411	39988795.0941775
2.007357597351074	40172223.14979117
2.0107386112213135	40912884.14900856
2.0141148567199707	43890671.01939302
2.017486572265625	44733329.83338291
2.0208535194396973	47697657.149997994
2.0242159366607666	51380374.32371118
2.027573823928833	50432988.95229625
2.0309269428253174	51606872.83292505
2.034275770187378	56289898.18980662
2.0376198291778564	58760419.12631119
2.040959596633911	59234537.987457104
2.044294595718384	60938747.35206624
2.0476250648498535	63765539.022943564
2.0509510040283203	64588426.80660655
2.054272413253784	65261254.89256108
2.057589530944824	69064370.66642867
2.0609018802642822	70757708.9102093
2.0642096996307373	70349440.00569071
2.0675129890441895	72320086.01941843
2.0708119869232178	73515003.90585664
2.074106216430664	73121771.25730376
2.0773961544036865	73677677.23791605
2.080681324005127	74761195.12550882
2.0839622020721436	75408701.83458887
2.087238311767578	75878638.29663998
2.090510129928589	76545914.89748044
2.0937774181365967	76911149.25864744
2.0970399379730225	76974311.46897425
2.1002981662750244	76941928.64109905
2.1035518646240234	76485589.89563751
2.1068007946014404	76260608.97902603
2.1100454330444336	76424697.26317145
2.1132853031158447	76617569.47655018
2.116520881652832	76052570.87551801
2.1197516918182373	75535154.01073124
2.1229779720306396	76039347.03446832
2.12619948387146	75948826.69044785
2.1294167041778564	74998558.8951499
2.132629156112671	74793347.40417783
2.1358368396759033	74680953.11278905
2.139039993286133	73438784.05594471
2.1422386169433594	72288664.16868927
2.145432472229004	71934818.27192174
2.1486217975616455	71393967.39853531
2.151806354522705	70575799.55213597
2.1549863815307617	70145801.15542531
2.1581614017486572	69695287.67802943
2.16133189201355	68980946.61644618
2.1644976139068604	68248757.91877684
2.167658567428589	67441076.07694562
2.1708147525787354	66476832.5381221
2.173966407775879	65276792.48113333
2.1771130561828613	64042873.4288528
2.1802549362182617	63165402.50212097
2.183391809463501	62113285.847596936
2.1865241527557373	60543955.49097652
2.1896514892578125	58822570.28310125
2.1927738189697266	56416148.16955325
2.1958916187286377	52545762.44791504
2.1990041732788086	47774397.81124872
2.2021119594573975	43348383.8298874
2.2052149772644043	40544090.59959275
2.208312749862671	40508460.492243074
2.2114057540893555	42696412.506565265
2.214493751525879	45267303.1057874
2.217576742172241	46261462.635020256
2.2206547260284424	45732649.16249375
2.2237277030944824	45412770.82991523
2.2267956733703613	44643041.912050635
2.2298583984375	43486319.78264212
2.2329163551330566	42783422.063444756
2.235969066619873	41932318.00203816
2.2390167713165283	40531079.01837211
2.2420592308044434	38681501.59482962
2.2450966835021973	37274116.0568238
2.248128890991211	36718820.219228916
2.2511560916900635	36655872.02060668
2.254178285598755	36509457.38974964
2.257194995880127	36342298.731387265
2.260206699371338	36240441.093804576
2.2632133960723877	35656154.61574939
2.266214609146118	34868154.87470522
2.2692108154296875	34321885.4182194
2.2722020149230957	34157045.509397015
2.2751877307891846	34163449.36448857
2.278168201446533	33628928.21215497
2.2811436653137207	32536352.522423565
2.284113883972168	31547593.233889893
2.287078857421875	30754829.25128518
2.290038824081421	28798890.02282558
2.2929933071136475	25352072.5978067
2.295942783355713	22380110.284197476
2.298887014389038	21574358.308466863
2.301826238632202	22382366.043098547
2.304760217666626	23544402.179710582
2.3076889514923096	24771514.94749234
2.310612440109253	25678286.37426692
2.3135311603546143	25094121.11724365
2.3164443969726562	21862175.077830352
2.319352865219116	18676688.411439687
2.322256088256836	17587707.964284755
2.3251543045043945	17186071.70421607
2.328047275543213	17218605.4735852
2.330935478210449	17530147.201461043
2.3338186740875244	17898245.82395878
2.3366971015930176	18285221.62155841
2.3395702838897705	18412751.34490022
2.3424389362335205	18518006.315821126
2.3453025817871094	19135395.462348975
2.348161458969116	19905686.192784768
2.351015567779541	19831713.511585407
2.353865146636963	20069595.147400312
2.3567099571228027	20895625.242891468
2.3595502376556396	21371265.1605457
2.3623859882354736	22061929.587016344
2.3652172088623047	22554223.406914156
2.368043899536133	21135979.651607834
2.370866537094116	18081888.674685653
2.3736846446990967	17280005.266200893
2.3764986991882324	18217512.838739462
2.3793084621429443	18067688.423160024
2.3821144104003906	17407263.01301293
2.384916305541992	17505950.39378329
2.387714147567749	18990405.65283114
2.3905084133148193	20427674.58191964
2.393299102783203	20797893.490909833
2.3960859775543213	21186937.305235375
2.398869514465332	22165696.690295786
2.4016497135162354	22612090.08368287
2.4044265747070312	22582185.72424855
2.407200336456299	21896573.405516338
2.409970998764038	21334511.06224561
2.4127390384674072	21692620.213837814
2.415503978729248	21221862.860254593
2.418266534805298	20520031.341751195
2.4210267066955566	21085976.636363998
2.4237842559814453	21310960.007175792
2.426539897918701	20593422.796608966
2.429293394088745	20795184.08381185
2.4320452213287354	20837980.565631416
2.4347951412200928	19147454.810070027
2.4375438690185547	19183118.878709633
2.440291166305542	20665006.606366936
2.443037271499634	19555252.136442773
2.445782423019409	17606070.261254523
2.4485268592834473	17326708.396923423
2.451270818710327	16574894.552161792
2.454014539718628	15774903.676596906
2.4567582607269287	17946065.82246152
2.4595019817352295	18481824.615690242
2.4622461795806885	17842576.425703384
2.4649908542633057	18366856.168596767
2.4677364826202393	16146643.395558886
2.4704833030700684	13627778.984364595
2.473231554031372	12417775.549546456
2.4759814739227295	12233155.717349209
2.4787333011627197	12890470.149325619
2.481487512588501	13215268.543704
