#wavelength	surface flux
0.6450077295303345	31461.57382731644
0.6472567915916443	50792.878782555024
0.6494921445846558	69191.66602161626
0.6517150402069092	83704.67619672009
0.6539263725280762	100315.76652047926
0.6561272740364075	119371.11868852045
0.6583186388015747	141075.260660555
0.6605015397071838	166284.4766887793
0.6626768708229065	195253.75564558088
0.6648455858230591	227991.3113467659
0.6670085787773132	264499.2596147738
0.6691668033599854	304084.1882693491
0.6713210344314575	347937.3118055493
0.6734722256660461	397557.2097999157
0.6756211519241333	448506.71134800714
0.6777685880661011	495234.63449728617
0.6799154281616211	535055.5620636453
0.6820623278617859	561723.9651992008
0.6842101216316223	569418.2337279173
0.6863595843315125	556245.1914935525
0.688511312007904	523860.96786615683
0.6906660795211792	483239.9441893945
0.6928245425224304	448667.2739403823
0.6949873566627502	428256.28510114737
0.6971551775932312	422670.1956662055
0.6993286609649658	433152.63798272394
0.7015084028244019	460162.5219490443
0.7036949396133423	491398.0240177021
0.7058889269828796	513721.73761207634
0.7080909013748169	527034.7708863934
0.710301399230957	539776.6355905752
0.712520956993103	554218.7893145314
0.7147500514984131	562654.0803195506
0.7169892191886902	561061.3740585931
0.7192389369010925	551433.0362122892
0.7214996814727783	536732.0918304556
0.723771870136261	519144.5954513399
0.7260559797286987	498238.17444219725
0.7283523678779602	475122.81267029874
0.7306615710258484	450053.2085994375
0.7329838871955872	422023.17819958495
0.7353196740150452	396382.81930332986
0.7376693487167358	374509.3255517003
0.7400332689285278	350119.84042054386
0.7424117922782898	327432.265671344
0.7448052167892456	311738.7670544447
0.7472138404846191	295944.26010850084
0.7496379613876343	271783.10830948467
0.7520779371261597	240595.30312517215
0.7545340061187744	203021.45497272973
0.7570064663887024	155727.6957523568
0.7594954967498779	102508.24678551393
0.7620013952255249	52157.79887044557
0.7645244002342224	17826.395603225283
0.7670646905899048	4339.905591608289
0.7696225643157959	4481.659891911723
0.7721980810165405	19230.64839665329
0.7747915983200073	58805.78449622362
0.7774031162261963	111459.96917103534
0.7800329327583313	165207.87963594936
0.7826811671257019	248608.45446908174
0.7853479981422424	357576.05994976644
0.7880334854125977	466448.35171951953
0.7907378077507019	567669.7197287364
0.7934610247612	640063.5026780593
0.7962033748626709	775298.8044240547
0.7989648580551147	1033057.4897186109
0.801745593547821	1301081.0056470037
0.8045456409454346	1545463.8289655456
0.8073651194572449	1804250.6096250773
0.8102040886878967	2090967.317018093
0.8130625486373901	2413913.5433539934
0.8159406185150146	2765185.880699579
0.8188382983207703	3151438.459756776
0.8217556476593018	3596090.3463304928
0.8246926665306091	4102883.4684957825
0.8276493549346924	4658820.2124972185
0.8306257724761963	5254910.564022236
0.8336219191551208	5890689.068691945
0.8366377949714661	6583557.622270023
0.8396733403205872	7372309.4677905245
0.8427285552024841	8267296.597085405
0.8458034992218018	9171377.971568283
0.8488980531692505	9659531.749025458
0.8520121574401855	9903940.58853313
0.8551458716392517	11267197.940820195
0.8582990765571594	13083465.0236386
0.8614717125892639	13784035.28276684
0.8646637797355652	14321061.420423303
0.8678751587867737	15566443.940760994
0.8711057901382446	17047741.072876193
0.8743556141853333	18689898.582292125
0.87762451171875	20668659.65019769
0.8809124231338501	22846999.685822368
0.8842192888259888	25196669.419447426
0.8875449895858765	27470126.896081954
0.8908893465995789	28362226.723593596
0.894252359867096	28372249.33283929
0.8976338505744934	31467586.957244672
0.9010337591171265	36697767.27000242
0.9044519662857056	40646198.57308997
0.9078882932662964	43692492.71638325
0.9113426208496094	46408925.91187308
0.914814829826355	49009124.38576312
0.9183048605918884	51772335.26933343
0.9218124747276306	54182863.27736353
0.925337553024292	53210298.03283304
0.9288799166679382	48995852.8725974
0.9324395060539246	48325279.824000835
0.9360161423683167	53447955.69779031
0.9396095871925354	59723686.840599
0.943219780921936	63157980.73798479
0.9468464851379395	64228551.305622056
0.9504896402359009	65606539.596928105
0.9541489481925964	67305724.14447553
0.9578243494033813	68607489.64722762
0.9615156054496765	70407192.84800607
0.9652225375175476	73485150.74380282
0.9689450263977051	77031984.01728094
0.9726828336715698	80256311.19480237
0.9764357805252075	83327218.67073967
0.9802037477493286	86489087.49318905
0.983986496925354	89816810.54326592
0.9877838492393494	93766853.36983445
0.9915955662727356	97586378.02292323
0.9954215884208679	98022489.89318646
0.9992615580558777	94992080.63355526
1.0031154155731201	94449993.93972605
1.0069829225540161	98350306.49711324
1.0108637809753418	103238726.44541213
1.0147579908370972	107408985.92598821
1.018665075302124	110644391.01229873
1.022585153579712	113324972.7242436
1.0265177488327026	115942990.16565405
1.0304628610610962	118374017.01661408
1.0344202518463135	120402993.95611787
1.0383895635604858	122228635.38526393
1.0423706769943237	123968647.18574873
1.0463634729385376	125627095.05039556
1.0503677129745483	127385029.40305251
1.0543830394744873	129162922.52713169
1.058409333229065	130699327.30515432
1.0624464750289917	131982483.99837339
1.0664942264556885	133049314.37790415
1.0705522298812866	133903129.62833875
1.0746204853057861	134655472.0244507
1.0786986351013184	135385881.9376969
1.0827864408493042	135840308.9776696
1.086883783340454	135092551.86029726
1.0909905433654785	131910271.39625974
1.0951062440872192	126378092.65101312
1.0992310047149658	119618560.70347163
1.10336434841156	111841401.71588314
1.1075061559677124	102635514.61541535
1.1116561889648438	93333603.47682591
1.115814208984375	87646822.12837097
1.1199802160263062	85786767.1788122
1.124153733253479	86256799.97093478
1.1283347606658936	86356737.79453605
1.1325229406356812	80859287.14318869
1.1367181539535522	80676505.12157089
1.1409201622009277	90214024.19433413
1.145128846168518	93817433.5909291
1.1493438482284546	88475431.38149625
1.1535650491714478	80065510.02207758
1.1577922105789185	75109466.24275713
1.1620250940322876	73316653.87229316
1.1662636995315552	73056777.84207055
1.170507550239563	78451239.43507122
1.174756646156311	85655015.83192793
1.1790107488632202	94580177.71585548
1.1832695007324219	108080164.7940936
1.1875330209732056	119323756.64212127
1.191800832748413	127830170.54709418
1.1960728168487549	136558757.68856382
1.2003488540649414	143277301.26618323
1.2046287059783936	148363024.10884482
1.2089121341705322	152562375.4780821
1.2131990194320679	155938745.61793244
1.2174891233444214	158830722.3769684
1.2217823266983032	161101280.78075027
1.2260783910751343	162874098.60135952
1.230377197265625	164564059.07504392
1.2346785068511963	166282822.8647445
1.238982081413269	167843273.02818432
1.2432878017425537	168980609.31066525
1.2475954294204712	169705738.2117131
1.2519049644470215	169637642.19134083
1.256216049194336	170716392.24192205
1.2605286836624146	172491922.5182232
1.2648425102233887	172734931.20451966
1.2691574096679688	172410267.06763956
1.2734732627868652	171977114.72876146
1.2777899503707886	171438280.03977624
1.2821072340011597	170465463.59126285
1.2864248752593994	169075593.680934
1.2907428741455078	167828130.9521201
1.2950609922409058	167006532.01359513
1.2993791103363037	166266740.51714525
1.303696870803833	165011854.45487562
1.3080145120620728	162560134.31315598
1.3123314380645752	159199126.51927072
1.3166478872299194	157323225.08906537
1.3209635019302368	155181395.4262844
1.3252781629562378	143355538.92123878
1.3295916318893433	111774047.34591864
1.3339040279388428	69465884.82752582
1.3382149934768677	38625550.165048935
1.3425244092941284	24526736.449711993
1.3468321561813354	18641959.73626709
1.3511382341384888	15071779.179748297
1.3554422855377197	12815220.48035445
1.3597444295883179	13146585.514997078
1.3640443086624146	16099914.651578285
1.3683418035507202	18270251.156124853
1.3726370334625244	19555969.95690464
1.3769296407699585	22325925.574337687
1.381219506263733	22987942.502339438
1.3855066299438477	20995110.414077755
1.3897908926010132	19582153.65100386
1.3940720558166504	18216173.46167603
1.3983501195907593	17216599.78190034
1.4026249647140503	17624254.921030175
1.4068963527679443	17734311.778885655
1.4111642837524414	16899788.93822783
1.4154287576675415	16874687.822675943
1.419689416885376	16965558.609840725
1.4239463806152344	17122740.25725681
1.4281994104385376	19252861.582454097
1.4324485063552856	22021548.98285425
1.436693549156189	23761541.08680303
1.440934419631958	25425183.44844716
1.4451709985733032	27933205.67054767
1.449403166770935	32798324.81342063
1.453631043434143	38451215.4448682
1.4578542709350586	42636828.09819092
1.4620729684829712	44755792.784077115
1.4662868976593018	45025622.962995365
1.4704961776733398	45756456.88137413
1.4747005701065063	48778823.982365415
1.4788999557495117	52634568.55811277
1.4830944538116455	55514402.67276828
1.4872838258743286	57974749.74712632
1.491468071937561	60869780.3272319
1.4956470727920532	64934517.99665926
1.4998208284378052	69758437.6106088
1.5039892196655273	74902806.2024263
1.5081522464752197	79854968.77786279
1.5123097896575928	85127670.28949688
1.5164618492126465	90658906.72973919
1.5206083059310913	96646777.8100909
1.5247491598129272	103016680.57543841
1.5288842916488647	108589453.19334273
1.5330137014389038	114378255.16180624
1.5371372699737549	120582814.11224031
1.541254997253418	126072029.95109728
1.545366883277893	131817709.3960165
1.5494728088378906	137289977.89318392
1.5535727739334106	140887676.2231883
1.5576666593551636	143080797.45925108
1.561754584312439	145662372.94606727
1.5658363103866577	149409117.70892128
1.5699119567871094	152707146.55738458
1.5739814043045044	154499701.01415628
1.5780447721481323	154681024.5005806
1.582101821899414	154544055.64249775
1.5861525535583496	154977044.69133148
1.5901970863342285	154922760.9304892
1.5942351818084717	154137398.3779423
1.5982669591903687	153202444.32313374
1.6022924184799194	151373751.1965
1.606311559677124	148490266.90653515
1.6103241443634033	145365605.30683932
1.6143304109573364	141589573.26661313
1.6183301210403442	138473068.51996553
1.6223233938217163	140686468.60343078
1.6263102293014526	144448584.60218802
1.6302905082702637	142555284.1415071
1.634264349937439	137995617.6680695
1.638231635093689	135140738.05974677
1.6421923637390137	133036865.9800753
1.646146535873413	131611444.07557966
1.6500942707061768	132686271.91059603
1.6540353298187256	132240252.9291803
1.6579699516296387	128250748.54820412
1.661897897720337	124690393.56476474
1.6658192873001099	117874133.6239698
1.6697341203689575	109926928.34952137
1.6736423969268799	112084554.9604976
1.677544116973877	120012543.6553958
1.6814392805099487	119619608.57221657
1.6853278875350952	109417429.2031597
1.6892099380493164	100029408.87916148
1.6930854320526123	96192813.09777987
1.696954369544983	95236871.77172436
1.7008168697357178	97154001.08755907
1.7046726942062378	99637747.06508152
1.708522081375122	99141081.11460267
1.712364912033081	97336794.47648712
1.7162011861801147	95573763.53393942
1.7200311422348022	91734363.49950509
1.723854422569275	85882728.98084758
1.7276713848114014	82139933.93937753
1.731481909751892	80470710.58136368
1.7352858781814575	76785321.26498075
1.7390835285186768	70929454.73658094
1.7428747415542603	65388933.3848364
1.7466596364974976	60978923.77321516
1.7504380941390991	57667459.46107629
1.7542102336883545	53960314.11319744
1.7579760551452637	51356706.71844067
1.7617355585098267	50720730.38280341
1.7654887437820435	47659667.39492358
1.7692357301712036	41998460.135784335
1.7729763984680176	37329273.32679143
1.776710867881775	34516479.29834004
1.7804391384124756	32545320.605176173
1.7841613292694092	29792517.7068935
1.7878772020339966	28260727.254594326
1.7915871143341064	27731673.234495003
1.7952908277511597	26763414.99139519
1.7989884614944458	25569462.028079074
1.8026801347732544	22861246.646371227
1.806365728378296	21616242.50845016
1.8100452423095703	22984071.981863823
1.8137187957763672	24845966.252432726
1.817386507987976	23922252.10744016
1.8210482597351074	23431793.30397934
1.8247040510177612	25952649.212104667
1.828354001045227	25091479.117151983
1.8319982290267944	22391305.930259723
1.8356364965438843	21173452.478764165
1.8392690420150757	20644813.462060865
1.8428958654403687	20646117.564323124
1.8465168476104736	19791471.218807593
1.8501322269439697	19354471.347722217
1.8537418842315674	18824309.856439617
1.8573459386825562	16403114.572564106
1.860944390296936	14440490.266813919
1.864537239074707	14132382.152283132
1.8681244850158691	14683566.785027616
1.871706247329712	16212604.886341907
1.8752825260162354	19055292.356443964
1.8788533210754395	22921792.539467532
1.8824186325073242	26250300.766034484
1.8859784603118896	27442819.69396549
1.8895330429077148	27536930.062552672
1.8930821418762207	29689216.474866465
1.8966259956359863	32150292.578471333
1.9001644849777222	31172067.09123385
1.9036977291107178	29690837.920732148
1.9072256088256836	30717139.26680991
1.9107483625411987	31020777.13025812
1.9142658710479736	30292807.704222057
1.9177782535552979	30629509.85847185
1.9212853908538818	29118402.96837324
1.9247875213623047	26705221.49476221
1.9282845258712769	25251394.359058175
1.9317764043807983	23566848.042686697
1.9352631568908691	21699416.468894757
1.9387450218200684	19453599.161722172
1.942221760749817	19450507.93278397
1.9456936120986938	21511614.435649473
1.9491604566574097	22725750.253933012
1.952622413635254	22542128.12888489
1.956079363822937	21487310.174861547
1.959531545639038	21474050.5496162
1.962978720664978	22472172.48790293
1.966421127319336	24174179.860114038
1.9698586463928223	25056088.536414847
1.9732913970947266	24240946.710858576
1.9767193794250488	24576525.814070534
1.9801424741744995	25877329.74090878
1.9835609197616577	27752026.52261655
1.9869745969772339	28995672.832342476
1.990383505821228	27893787.257774506
1.9937876462936401	28987292.154886518
1.9971871376037598	31062447.664894085
2.000581979751587	32260210.61003966
2.003972291946411	34421058.53051156
2.007357597351074	34531031.08319909
2.0107386112213135	34979451.42227096
2.0141148567199707	37462599.67938431
2.017486572265625	38353526.43327782
2.0208535194396973	40721127.10762274
2.0242159366607666	43509466.87361075
2.027573823928833	42748770.22797931
2.0309269428253174	43572460.086043835
2.034275770187378	47020727.70905043
2.0376198291778564	48744567.29962774
2.040959596633911	49018519.38269288
2.044294595718384	50459655.98403266
2.0476250648498535	52778342.89105582
2.0509510040283203	53366170.78447788
2.054272413253784	53839862.74416493
2.057589530944824	56671867.12816813
2.0609018802642822	57909913.62518866
2.0642096996307373	57472590.38621278
2.0675129890441895	58576641.99861486
2.0708119869232178	59274192.11365337
2.074106216430664	58922241.18204153
2.0773961544036865	59154748.42702346
2.080681324005127	59856414.8059573
2.0839622020721436	60311488.04408754
2.087238311767578	60615712.06869627
2.090510129928589	60961919.492286526
2.0937774181365967	60989386.48630997
2.0970399379730225	60875006.80578283
2.1002981662750244	60791754.10534414
2.1035518646240234	60456929.538094915
2.1068007946014404	60248271.28288519
2.1100454330444336	60264210.62597602
2.1132853031158447	60285291.11355553
2.116520881652832	59832888.697246715
2.1197516918182373	59382626.15975494
2.1229779720306396	59536605.988880694
2.12619948387146	59382811.84896648
2.1294167041778564	58734956.10933827
2.132629156112671	58499088.712458745
2.1358368396759033	58305028.626813725
2.139039993286133	57448367.671183266
2.1422386169433594	56591406.4383933
2.145432472229004	56166852.72243827
2.1486217975616455	55733170.69190096
2.151806354522705	55221592.84193988
2.1549863815307617	54915145.82748043
2.1581614017486572	54543180.53138255
2.16133189201355	53997846.72360777
2.1644976139068604	53439177.98428122
2.167658567428589	52805476.00732745
2.1708147525787354	52087309.40033952
2.173966407775879	51232553.61984507
2.1771130561828613	50347087.705284365
2.1802549362182617	49655713.66087983
2.183391809463501	48834032.115599275
2.1865241527557373	47686518.3238
2.1896514892578125	46363586.55828446
2.1927738189697266	44589624.16646292
2.1958916187286377	41904463.63056041
2.1990041732788086	38579571.07146196
2.2021119594573975	35386013.42704639
2.2052149772644043	33229381.24210668
2.208312749862671	33057934.59638995
2.2114057540893555	34602922.02726477
2.214493751525879	36594649.597831376
2.217576742172241	37595039.2586224
2.2206547260284424	37430113.33824324
2.2237277030944824	37187202.89355971
2.2267956733703613	36588916.68210604
2.2298583984375	35739032.7518919
2.2329163551330566	35220914.05339541
2.235969066619873	34672524.915316604
2.2390167713165283	33682288.0509284
2.2420592308044434	32389354.62497586
2.2450966835021973	31461510.068759806
2.248128890991211	31086865.404845532
2.2511560916900635	31034148.3770958
2.254178285598755	30920599.18636559
2.257194995880127	30780037.047628738
2.260206699371338	30692721.99577176
2.2632133960723877	30354494.65934859
2.266214609146118	29928705.004854802
2.2692108154296875	29624621.446054317
2.2722020149230957	29494682.87401838
2.2751877307891846	29412622.727793887
2.278168201446533	28986632.31737753
2.2811436653137207	28218299.167778514
2.284113883972168	27508108.147640124
2.287078857421875	26936035.667553697
2.290038824081421	25781163.00252108
2.2929933071136475	24211109.91134632
2.295942783355713	23110082.674602147
2.298887014389038	22900509.170728993
2.301826238632202	23470661.245519537
2.304760217666626	24332118.09007796
2.3076889514923096	25331258.42090804
2.310612440109253	26153784.688613657
2.3135311603546143	25578427.59376833
2.3164443969726562	22531622.890424054
2.319352865219116	19680292.35198991
2.322256088256836	18941666.944328487
2.3251543045043945	18777499.54892244
2.328047275543213	18709107.594062414
2.330935478210449	18798314.616818916
2.3338186740875244	19106609.46692005
2.3366971015930176	19525376.477193754
2.3395702838897705	19584166.088700883
2.3424389362335205	19473030.640878145
2.3453025817871094	19741349.282318518
2.348161458969116	20300487.696330983
2.351015567779541	20526861.913489353
2.353865146636963	21018477.958115775
2.3567099571228027	21821979.929843266
2.3595502376556396	22477396.151879556
2.3623859882354736	23327788.039637864
2.3652172088623047	23787250.563941065
2.368043899536133	22276140.559763115
2.370866537094116	19148600.64574696
2.3736846446990967	18313437.15611774
2.3764986991882324	19257132.404965803
2.3793084621429443	19105083.749576144
2.3821144104003906	18509265.98016737
2.384916305541992	18711999.542019766
2.387714147567749	20052980.924574323
2.3905084133148193	21314349.62266357
2.393299102783203	21670220.56235545
2.3960859775543213	21972013.08606685
2.398869514465332	22740689.424008567
2.4016497135162354	23043778.07604959
2.4044265747070312	22864527.014930826
2.407200336456299	22348181.41751175
2.409970998764038	22226584.893629555
2.4127390384674072	22617651.751930453
2.415503978729248	22002237.464075077
2.418266534805298	21290615.82717561
2.4210267066955566	21886332.829536427
2.4237842559814453	22330292.64451223
2.426539897918701	21782015.842258878
2.429293394088745	21730438.19729908
2.4320452213287354	21669063.887905274
2.4347951412200928	20217064.43103361
2.4375438690185547	20150369.337727264
2.440291166305542	21364050.093505297
2.443037271499634	20347076.09258865
2.445782423019409	18672357.914263196
2.4485268592834473	18551042.209255967
2.451270818710327	17817632.125212394
2.454014539718628	16965382.986648265
2.4567582607269287	18816789.667661972
2.4595019817352295	19084098.585163683
2.4622461795806885	18371216.088903464
2.4649908542633057	18885277.675612554
2.4677364826202393	16910002.87931522
2.4704833030700684	14680513.073379364
2.473231554031372	13600205.75113033
2.4759814739227295	13331209.787950493
2.4787333011627197	13985647.809183314
