#wavelength	surface flux
0.6450077295303345	115453.9520120322
0.6472567915916443	191157.6009504791
0.6494921445846558	270992.53977666824
0.6517150402069092	340971.4291928188
0.6539263725280762	422380.2243432042
0.6561272740364075	515912.29524417577
0.6583186388015747	621712.9181537207
0.6605015397071838	744773.060983438
0.6626768708229065	885085.472069135
0.6648455858230591	1039854.9759118038
0.6670085787773132	1203525.2930989568
0.6691668033599854	1361297.3482076686
0.6713210344314575	1528183.2219494446
0.6734722256660461	1732657.5329744797
0.6756211519241333	1938445.720127631
0.6777685880661011	2106260.49625025
0.6799154281616211	2241247.726570369
0.6820623278617859	2325801.3686209423
0.6842101216316223	2345497.8191888905
0.6863595843315125	2292615.796945257
0.688511312007904	2153076.2079877136
0.6906660795211792	1982454.2084670498
0.6928245425224304	1842317.8497248485
0.6949873566627502	1749999.8916044747
0.6971551775932312	1709755.8370302303
0.6993286609649658	1737632.952890283
0.7015084028244019	1850788.9824166654
0.7036949396133423	1985210.208530545
0.7058889269828796	2070915.6194266512
0.7080909013748169	2106677.3433279116
0.710301399230957	2134881.637294077
0.712520956993103	2179281.0292259995
0.7147500514984131	2204788.2322632265
0.7169892191886902	2185993.498218277
0.7192389369010925	2125766.136697238
0.7214996814727783	2037792.7768106814
0.723771870136261	1939184.4912787538
0.7260559797286987	1823860.2514392016
0.7283523678779602	1688776.3502716785
0.7306615710258484	1536150.7571902778
0.7329838871955872	1362799.2126999043
0.7353196740150452	1194799.0214416806
0.7376693487167358	1045744.8063279039
0.7400332689285278	891240.1371729188
0.7424117922782898	747498.3548764447
0.7448052167892456	635092.289939762
0.7472138404846191	532504.1634269702
0.7496379613876343	423571.14834711
0.7520779371261597	319199.61773193633
0.7545340061187744	231623.7233665486
0.7570064663887024	158402.58786955045
0.7594954967498779	100844.47339299262
0.7620013952255249	54872.17005255857
0.7645244002342224	20770.293389473525
0.7670646905899048	4622.386191791231
0.7696225643157959	2460.3876673868403
0.7721980810165405	12735.556762883778
0.7747915983200073	51865.99743302157
0.7774031162261963	121178.6658449297
0.7800329327583313	222854.82122673918
0.7826811671257019	412663.5327461825
0.7853479981422424	694689.0519900427
0.7880334854125977	1033287.3811642629
0.7907378077507019	1381080.2210221128
0.7934610247612	1654068.5141248894
0.7962033748626709	2155000.276567954
0.7989648580551147	3076023.6453553215
0.801745593547821	4021999.6624944545
0.8045456409454346	4858361.235038583
0.8073651194572449	5712929.274187043
0.8102040886878967	6603392.310807979
0.8130625486373901	7543973.176313199
0.8159406185150146	8470145.50161723
0.8188382983207703	9361502.665364446
0.8217556476593018	10395024.090166641
0.8246926665306091	11547897.221706025
0.8276493549346924	12649415.16459737
0.8306257724761963	13691636.435988659
0.8336219191551208	14713172.054004379
0.8366377949714661	15742748.123966817
0.8396733403205872	16812078.943022147
0.8427285552024841	17929826.00191488
0.8458034992218018	18969317.470338546
0.8488980531692505	19349388.914921
0.8520121574401855	19319164.57553463
0.8551458716392517	20757150.534466986
0.8582990765571594	22586526.07580743
0.8614717125892639	22590559.444676824
0.8646637797355652	22435896.657149866
0.8678751587867737	23513740.66363935
0.8711057901382446	24911775.190605335
0.8743556141853333	26316056.558217194
0.87762451171875	27880447.36316484
0.8809124231338501	29341804.02547372
0.8842192888259888	30647866.830718808
0.8875449895858765	31664080.958248347
0.8908893465995789	31642701.14725141
0.894252359867096	31065189.222668353
0.8976338505744934	32419761.686484423
0.9010337591171265	34985315.481098436
0.9044519662857056	36672004.19830526
0.9078882932662964	37702737.052902855
0.9113426208496094	38416961.47442542
0.914814829826355	39053908.40328476
0.9183048605918884	39796627.04902233
0.9218124747276306	40341227.77981197
0.925337553024292	39158354.24329769
0.9288799166679382	36433819.455439664
0.9324395060539246	35544067.59272665
0.9360161423683167	37433590.183449775
0.9396095871925354	39948861.29485651
0.943219780921936	41364739.68840981
0.9468464851379395	41688269.79942577
0.9504896402359009	42020204.65551642
0.9541489481925964	42581766.10363378
0.9578243494033813	43094037.40151856
0.9615156054496765	43849325.02980872
0.9652225375175476	45181973.92441721
0.9689450263977051	46730090.50368215
0.9726828336715698	48075697.54761633
0.9764357805252075	49267631.24546874
0.9802037477493286	50445514.044861525
0.983986496925354	51631026.49239184
0.9877838492393494	53190396.848350085
0.9915955662727356	55018567.10941253
0.9954215884208679	56190103.009128
0.9992615580558777	56895866.434528224
1.0031154155731201	58040702.97485826
1.0069829225540161	59491480.4799232
1.0108637809753418	60721600.27683105
1.0147579908370972	61635316.185743764
1.018665075302124	62326317.09311537
1.022585153579712	62994369.53171227
1.0265177488327026	63794238.39536378
1.0304628610610962	64469023.49334823
1.0344202518463135	64942787.24464116
1.0383895635604858	65450150.15068112
1.0423706769943237	66135804.72443437
1.0463634729385376	67128885.29058167
1.0503677129745483	68429617.09509373
1.0543830394744873	69716517.32572582
1.058409333229065	70593750.58078556
1.0624464750289917	70907508.51444541
1.0664942264556885	70839892.95221011
1.0705522298812866	70690044.59384261
1.0746204853057861	70627192.96803592
1.0786986351013184	70699304.2781001
1.0827864408493042	70926650.1186621
1.086883783340454	71311952.13815089
1.0909905433654785	71483548.4924604
1.0951062440872192	70815291.68620463
1.0992310047149658	69160954.89946468
1.10336434841156	66922761.66867304
1.1075061559677124	64387761.00310833
1.1116561889648438	61861555.91398418
1.115814208984375	60306254.24820596
1.1199802160263062	60237464.522762425
1.124153733253479	61427340.98631173
1.1283347606658936	62091484.01643945
1.1325229406356812	59986564.579430155
1.1367181539535522	60188490.545935616
1.1409201622009277	64475413.23381286
1.145128846168518	66464285.12921525
1.1493438482284546	65754248.23826033
1.1535650491714478	64111529.141640864
1.1577922105789185	62870534.173034176
1.1620250940322876	62652531.54857215
1.1662636995315552	63222512.128632724
1.170507550239563	65605766.57538898
1.174756646156311	68740678.22277777
1.1790107488632202	72407846.28782813
1.1832695007324219	76782782.41253561
1.1875330209732056	80161660.05707537
1.191800832748413	82882546.711493
1.1960728168487549	85587324.45899197
1.2003488540649414	87667268.04616345
1.2046287059783936	89198921.67060262
1.2089121341705322	90400988.78516175
1.2131990194320679	91389790.10959485
1.2174891233444214	92260230.71526486
1.2217823266983032	92990145.67913155
1.2260783910751343	93521043.07159834
1.230377197265625	93983256.85125646
1.2346785068511963	94476491.24907623
1.238982081413269	95115199.05932942
1.2432878017425537	95753948.01562174
1.2475954294204712	96071123.78455949
1.2519049644470215	96370625.85339355
1.256216049194336	96484905.85354386
1.2605286836624146	96407239.92274979
1.2648425102233887	96590188.67619237
1.2691574096679688	96825141.52368891
1.2734732627868652	96943749.40337518
1.2777899503707886	96936472.51335831
1.2821072340011597	96889652.7577143
1.2864248752593994	96886041.9498608
1.2907428741455078	96809001.86214125
1.2950609922409058	96758284.30633216
1.2993791103363037	96908775.13193068
1.303696870803833	97173470.84028223
1.3080145120620728	97558420.47239392
1.3123314380645752	97812704.35336967
1.3166478872299194	98093765.65362293
1.3209635019302368	98070850.13770872
1.3252781629562378	94937652.02672677
1.3295916318893433	83924250.01646699
1.3339040279388428	65735440.321217686
1.3382149934768677	49869185.210448354
1.3425244092941284	40756776.670999624
1.3468321561813354	34580976.48814938
1.3511382341384888	29392486.837771572
1.3554422855377197	25967895.928045467
1.3597444295883179	25954736.26020284
1.3640443086624146	29090891.399802275
1.3683418035507202	31011898.54981667
1.3726370334625244	31211124.197402716
1.3769296407699585	33359637.41957283
1.381219506263733	35070598.26080593
1.3855066299438477	35036482.63383202
1.3897908926010132	34660306.486276984
1.3940720558166504	32922163.658450246
1.3983501195907593	31135540.64902434
1.4026249647140503	30784185.622203596
1.4068963527679443	30077838.111072272
1.4111642837524414	28918204.7996383
1.4154287576675415	28781285.145717036
1.419689416885376	28119402.65942407
1.4239463806152344	27179827.82529518
1.4281994104385376	28509793.93665572
1.4324485063552856	31317789.987309813
1.436693549156189	33489085.168114763
1.440934419631958	34902543.976661205
1.4451709985733032	36784249.798891395
1.449403166770935	41400862.10983625
1.453631043434143	47159511.93693748
1.4578542709350586	51078035.3381485
1.4620729684829712	52505951.77701837
1.4662868976593018	52613734.5620327
1.4704961776733398	53332384.95749153
1.4747005701065063	55427931.982262164
1.4788999557495117	58257168.17576578
1.4830944538116455	60691161.58112526
1.4872838258743286	62696969.742110886
1.491468071937561	64572913.25985467
1.4956470727920532	67223760.79414299
1.4998208284378052	70270804.40406053
1.5039892196655273	73366765.4582418
1.5081522464752197	76753839.47387193
1.5123097896575928	80347364.23772728
1.5164618492126465	83760605.97510804
1.5206083059310913	87312494.1360327
1.5247491598129272	91192532.0901427
1.5288842916488647	94485794.44173576
1.5330137014389038	97715111.2375831
1.5371372699737549	101368811.68504177
1.541254997253418	104740816.51372929
1.545366883277893	107975168.3949758
1.5494728088378906	110792829.63113539
1.5535727739334106	112241362.50942701
1.5576666593551636	112113615.69626608
1.561754584312439	112413628.85036847
1.5658363103866577	114877889.89580871
1.5699119567871094	117907344.40599535
1.5739814043045044	119788232.82933538
1.5780447721481323	119967054.376016
1.582101821899414	119861118.87359272
1.5861525535583496	120554330.07398053
1.5901970863342285	121267107.36295614
1.5942351818084717	121665221.91456778
1.5982669591903687	121860432.80964603
1.6022924184799194	121670986.0706215
1.606311559677124	121224721.74360621
1.6103241443634033	120775582.66083163
1.6143304109573364	120061333.72997026
1.6183301210403442	119369142.77813911
1.6223233938217163	120044077.3381912
1.6263102293014526	121122862.3008007
1.6302905082702637	120665400.7481709
1.634264349937439	119499279.43049489
1.638231635093689	118790888.10682645
1.6421923637390137	118245726.04934937
1.646146535873413	117897333.70625706
1.6500942707061768	118328865.44291756
1.6540353298187256	118389567.79460435
1.6579699516296387	117371719.18660802
1.661897897720337	116254328.53402705
1.6658192873001099	114066932.43034734
1.6697341203689575	111651372.77664688
1.6736423969268799	112486112.25301857
1.677544116973877	115334083.04769285
1.6814392805099487	115638272.28101799
1.6853278875350952	112506801.50771038
1.6892099380493164	109263081.49713536
1.6930854320526123	107857859.12923792
1.696954369544983	107616173.98331651
1.7008168697357178	108664421.0078806
1.7046726942062378	109811926.18433838
1.708522081375122	109423539.8113022
1.712364912033081	108254867.26214373
1.7162011861801147	106605458.26670136
1.7200311422348022	104013429.90211225
1.723854422569275	100774543.69874471
1.7276713848114014	98366140.67304723
1.731481909751892	96744677.4869564
1.7352858781814575	94196125.41449963
1.7390835285186768	90665375.51564163
1.7428747415542603	86794786.30939397
1.7466596364974976	83137046.55212072
1.7504380941390991	80408977.2968974
1.7542102336883545	77333683.10898446
1.7579760551452637	74649905.54299796
1.7617355585098267	73463781.4285542
1.7654887437820435	70496427.05852771
1.7692357301712036	65168902.14874418
1.7729763984680176	60224716.72759552
1.776710867881775	56920574.37729539
1.7804391384124756	54449339.12438416
1.7841613292694092	50450497.843977086
1.7878772020339966	47852901.548713565
1.7915871143341064	46972624.69375999
1.7952908277511597	45994455.37973374
1.7989884614944458	44008999.374500945
1.8026801347732544	39847407.19688946
1.806365728378296	37560083.31790488
1.8100452423095703	38327247.08815329
1.8137187957763672	40962457.74012926
1.817386507987976	39729211.48958702
1.8210482597351074	37489934.229669765
1.8247040510177612	40168806.795192376
1.828354001045227	40354808.33320748
1.8319982290267944	37513801.94972296
1.8356364965438843	35487246.82564245
1.8392690420150757	34198075.634229705
1.8428958654403687	32819904.396752167
1.8465168476104736	30613857.77840168
1.8501322269439697	30535541.337337688
1.8537418842315674	30362195.363453317
1.8573459386825562	26280306.77053335
1.860944390296936	22916105.398217767
1.864537239074707	23140093.969497718
1.8681244850158691	25012246.24057936
1.871706247329712	27339688.494239297
1.8752825260162354	29915607.52596249
1.8788533210754395	33802385.47543821
1.8824186325073242	38483594.14679873
1.8859784603118896	41120215.05031879
1.8895330429077148	41253740.259386264
1.8930821418762207	42695518.29279177
1.8966259956359863	45871489.75449683
1.9001644849777222	46483266.061702065
1.9036977291107178	45380538.26866088
1.9072256088256836	46059590.43772676
1.9107483625411987	46474157.332426764
1.9142658710479736	46176592.84992341
1.9177782535552979	46592037.11735882
1.9212853908538818	44805438.97074973
1.9247875213623047	42356849.60850495
1.9282845258712769	40808062.94431296
1.9317764043807983	38201526.07594215
1.9352631568908691	34996867.474332646
1.9387450218200684	31254003.787240535
1.942221760749817	30932623.90685059
1.9456936120986938	34186699.36877905
1.9491604566574097	35970727.23527853
1.952622413635254	35051599.685292244
1.956079363822937	33255908.982720215
1.959531545639038	33340996.98287141
1.962978720664978	34299400.26299734
1.966421127319336	36000532.72879513
1.9698586463928223	37448982.0864579
1.9732913970947266	36736450.49023181
1.9767193794250488	36693211.87290045
1.9801424741744995	37644086.630463846
1.9835609197616577	39190654.2854599
1.9869745969772339	40219642.41235485
1.990383505821228	39247149.515007645
1.9937876462936401	40795343.924435765
1.9971871376037598	42563620.78377798
2.000581979751587	43486957.52768693
2.003972291946411	45815859.54104873
2.007357597351074	46083840.103195705
2.0107386112213135	46844607.209773995
2.0141148567199707	49323951.98889061
2.017486572265625	49905739.267906286
2.0208535194396973	52686296.02527708
2.0242159366607666	56300258.884804316
2.027573823928833	55493941.2796885
2.0309269428253174	56438720.50468573
2.034275770187378	60698436.322294444
2.0376198291778564	62922065.610165864
2.040959596633911	63243890.8439128
2.044294595718384	64793197.149662584
2.0476250648498535	67461325.7331378
2.0509510040283203	68214861.68753783
2.054272413253784	68910751.26160155
2.057589530944824	72878786.23299608
2.0609018802642822	74611540.27179074
2.0642096996307373	73999683.7666125
2.0675129890441895	75999003.45569536
2.0708119869232178	77420429.14897197
2.074106216430664	77342724.37208286
2.0773961544036865	78302332.72293755
2.080681324005127	79528100.14925146
2.0839622020721436	80213499.91316262
2.087238311767578	80965469.77958326
2.090510129928589	81960329.044715
2.0937774181365967	82506145.29608795
2.0970399379730225	82790458.44445617
2.1002981662750244	83184461.93432114
2.1035518646240234	83110446.9657662
2.1068007946014404	83090117.70141275
2.1100454330444336	83494197.02784528
2.1132853031158447	84010044.07929628
2.116520881652832	83681672.74339907
2.1197516918182373	83342544.31354994
2.1229779720306396	84115200.08807383
2.12619948387146	84277336.14423236
2.1294167041778564	83480145.262061
2.132629156112671	83544852.83154956
2.1358368396759033	83805620.79646449
2.139039993286133	82832451.22041175
2.1422386169433594	82116755.78128384
2.145432472229004	82386722.86347102
2.1486217975616455	82166268.28281136
2.151806354522705	81396345.84142728
2.1549863815307617	81094707.5315688
2.1581614017486572	80956006.70311533
2.16133189201355	80598988.70505053
2.1644976139068604	80109136.13271351
2.167658567428589	79634133.19978349
2.1708147525787354	79051135.44725536
2.173966407775879	78098787.05460879
2.1771130561828613	77047758.01348734
2.1802549362182617	76544830.67127325
2.183391809463501	76057801.72304596
2.1865241527557373	74992920.95000829
2.1896514892578125	74024716.35846888
2.1927738189697266	72613452.51637037
2.1958916187286377	70050156.31573753
2.1990041732788086	67085326.571342945
2.2021119594573975	64261813.31287032
2.2052149772644043	62312035.86272974
2.208312749862671	62217793.51623883
2.2114057540893555	63605611.23392906
2.214493751525879	65053489.97388532
2.217576742172241	64872398.24437651
2.2206547260284424	63774638.06948111
2.2237277030944824	63818028.22407892
2.2267956733703613	63664998.94735519
2.2298583984375	62951238.75181055
2.2329163551330566	62355694.60825561
2.235969066619873	61441167.068530515
2.2390167713165283	60422091.38318918
2.2420592308044434	58900313.07360062
2.2450966835021973	57605158.72340052
2.248128890991211	57259501.3190288
2.2511560916900635	57295107.331145614
2.254178285598755	57060927.1619131
2.257194995880127	56826613.9164303
2.260206699371338	56833724.82314169
2.2632133960723877	55956163.21336468
2.266214609146118	54554390.27874198
2.2692108154296875	53701341.38451686
2.2722020149230957	53712089.28228915
2.2751877307891846	54218442.99432355
2.278168201446533	53680192.510969535
2.2811436653137207	52341505.19901977
2.284113883972168	51746792.157932125
2.287078857421875	51492312.234423764
2.290038824081421	48879558.655567594
2.2929933071136475	42124939.04572067
2.295942783355713	35516427.474583946
2.298887014389038	33745216.82380662
2.301826238632202	34856700.22731853
2.304760217666626	35935264.92346234
2.3076889514923096	36488281.313900225
2.310612440109253	36595890.04776794
2.3135311603546143	36074152.11532236
2.3164443969726562	34211435.85688932
2.319352865219116	32094942.27411054
2.322256088256836	30234806.355187416
2.3251543045043945	29011165.21312894
2.328047275543213	29275576.856730398
2.330935478210449	30084978.519666553
2.3338186740875244	30996252.83323037
2.3366971015930176	31527778.624856383
2.3395702838897705	31394799.48403726
2.3424389362335205	31526429.388891406
2.3453025817871094	32869193.46257811
2.348161458969116	34274039.04172642
2.351015567779541	33394728.60672204
2.353865146636963	32444631.57183831
2.3567099571228027	32657572.99618212
2.3595502376556396	32382268.501790665
2.3623859882354736	32512921.351890285
2.3652172088623047	32797185.012960035
2.368043899536133	31832081.484883916
2.370866537094116	30201074.48961014
2.3736846446990967	30223782.80589395
2.3764986991882324	30698313.837481514
2.3793084621429443	30119324.201348927
2.3821144104003906	29176435.203035567
2.384916305541992	28577385.78354093
2.387714147567749	29802451.608268414
2.3905084133148193	31581221.142642815
2.393299102783203	31923342.78128593
2.3960859775543213	32048575.926193137
2.398869514465332	32848460.561629876
2.4016497135162354	33032569.774668336
2.4044265747070312	32832700.11306893
2.407200336456299	31710591.36996111
2.409970998764038	30408626.327314895
2.4127390384674072	30475776.275559127
2.415503978729248	30094008.08493723
2.418266534805298	29214434.902293757
2.4210267066955566	29459345.630581204
2.4237842559814453	29643206.339649186
2.426539897918701	28966602.19358887
2.429293394088745	29058785.501338106
2.4320452213287354	28557581.27554019
2.4347951412200928	26379091.21409801
2.4375438690185547	26484171.16033576
2.440291166305542	28104904.58561346
2.443037271499634	26759823.6731063
2.445782423019409	24338089.99761275
2.4485268592834473	23739265.964329626
2.451270818710327	22666747.419826407
2.454014539718628	21648853.530807737
2.4567582607269287	24419094.84978705
2.4595019817352295	25313219.211102944
2.4622461795806885	24410711.500549592
2.4649908542633057	24750380.38758339
2.4677364826202393	22163178.984824754
2.4704833030700684	19322982.894248728
2.473231554031372	17806522.074334435
2.4759814739227295	17653912.14392466
2.4787333011627197	18399556.39206829
2.481487512588501	18473227.593029182
2.4842441082000732	19828212.322564352
