#wavelength	surface flux
0.6450077295303345	85855.46832244156
0.6472567915916443	140972.12465941775
0.6494921445846558	196994.50183707202
0.6517150402069092	244249.02531050378
0.6539263725280762	299348.5514002721
0.6561272740364075	362728.28449648444
0.6583186388015747	434386.11106808495
0.6605015397071838	519045.2301710067
0.6626768708229065	617441.1962065406
0.6648455858230591	726710.7177845561
0.6670085787773132	842833.747202658
0.6691668033599854	955490.4655472818
0.6713210344314575	1075782.4931137788
0.6734722256660461	1228119.7048581454
0.6756211519241333	1386216.352457421
0.6777685880661011	1515895.3711635103
0.6799154281616211	1620530.5984858978
0.6820623278617859	1687552.705925863
0.6842101216316223	1702967.2133391167
0.6863595843315125	1656934.5013607203
0.688511312007904	1542185.6434849426
0.6906660795211792	1408476.9150766653
0.6928245425224304	1305126.8770675096
0.6949873566627502	1242583.3828590044
0.6971551775932312	1216743.9981755903
0.6993286609649658	1236528.0020829274
0.7015084028244019	1319358.3692752197
0.7036949396133423	1418133.782193863
0.7058889269828796	1477775.442770924
0.7080909013748169	1498847.115812855
0.710301399230957	1515626.755052723
0.712520956993103	1547266.3639785508
0.7147500514984131	1565556.1286480236
0.7169892191886902	1553513.2837609416
0.7192389369010925	1516496.493423311
0.7214996814727783	1460585.3715410738
0.723771870136261	1396582.599146729
0.7260559797286987	1319334.0289380972
0.7283523678779602	1226249.3097934618
0.7306615710258484	1121538.3847693715
0.7329838871955872	1001690.7219318314
0.7353196740150452	884771.3851002713
0.7376693487167358	784506.0134043712
0.7400332689285278	683480.7787707782
0.7424117922782898	588691.5832674307
0.7448052167892456	512657.2653921111
0.7472138404846191	440827.9634486006
0.7496379613876343	361775.9275213535
0.7520779371261597	283201.21075415873
0.7545340061187744	214106.51354820412
0.7570064663887024	153336.67720343714
0.7594954967498779	102952.48802023326
0.7620013952255249	59229.77596748694
0.7645244002342224	23485.50171592355
0.7670646905899048	5269.8369315476875
0.7696225643157959	2507.8328662500157
0.7721980810165405	13233.534341076827
0.7747915983200073	54228.50582471834
0.7774031162261963	123430.99015450354
0.7800329327583313	214301.5128261066
0.7826811671257019	371209.9284056136
0.7853479981422424	594253.0881192557
0.7880334854125977	850233.2984224259
0.7907378077507019	1106284.2272325023
0.7934610247612	1302456.7662306041
0.7962033748626709	1660994.7339833875
0.7989648580551147	2321495.2899381896
0.801745593547821	2999806.030668406
0.8045456409454346	3608047.317898104
0.8073651194572449	4252502.393146079
0.8102040886878967	4956178.211968834
0.8130625486373901	5733976.2285407875
0.8159406185150146	6528918.655332899
0.8188382983207703	7312933.910399465
0.8217556476593018	8257712.12246895
0.8246926665306091	9344896.116383767
0.8276493549346924	10389737.3348936
0.8306257724761963	11374575.235889016
0.8336219191551208	12353728.738271452
0.8366377949714661	13358465.573271835
0.8396733403205872	14403822.965291945
0.8427285552024841	15499728.414819272
0.8458034992218018	16525774.948193552
0.8488980531692505	16833621.602320895
0.8520121574401855	16420760.094298875
0.8551458716392517	17216149.25693956
0.8582990765571594	18405477.658884067
0.8614717125892639	17839360.85665243
0.8646637797355652	17198856.45781677
0.8678751587867737	17831027.855167262
0.8711057901382446	18992807.73884413
0.8743556141853333	20515591.55175332
0.87762451171875	22531968.977640875
0.8809124231338501	24696332.403967258
0.8842192888259888	26788508.65027699
0.8875449895858765	28471562.790731646
0.8908893465995789	28696751.279714763
0.894252359867096	28057493.239955336
0.8976338505744934	29448158.108035434
0.9010337591171265	32191093.29533477
0.9044519662857056	34045997.073494054
0.9078882932662964	35130419.93906414
0.9113426208496094	35775412.947863184
0.914814829826355	36296346.14801965
0.9183048605918884	37010768.497456506
0.9218124747276306	37557178.12319619
0.925337553024292	35976889.18553175
0.9288799166679382	32600994.311093085
0.9324395060539246	31376693.57805078
0.9360161423683167	33168644.32744188
0.9396095871925354	35760087.38720657
0.943219780921936	37469958.86290474
0.9468464851379395	37994235.877155386
0.9504896402359009	38337549.06084984
0.9541489481925964	38914214.77926243
0.9578243494033813	39450392.331329785
0.9615156054496765	40233243.84250738
0.9652225375175476	41612959.34685823
0.9689450263977051	43127612.144871056
0.9726828336715698	44387157.43849043
0.9764357805252075	45563079.474587634
0.9802037477493286	46761090.57631372
0.983986496925354	47973191.874652654
0.9877838492393494	49732717.74872675
0.9915955662727356	51878416.11127438
0.9954215884208679	52932860.32441275
0.9992615580558777	52887508.151449755
1.0031154155731201	53628718.63108994
1.0069829225540161	55498871.76802136
1.0108637809753418	57381052.54550565
1.0147579908370972	58831365.62571557
1.018665075302124	59871421.75957158
1.022585153579712	60821141.60222682
1.0265177488327026	61977078.797367714
1.0304628610610962	62893208.379536286
1.0344202518463135	63371982.42239673
1.0383895635604858	63887628.81976793
1.0423706769943237	64834788.217465624
1.0463634729385376	66492467.40235489
1.0503677129745483	68708325.5695074
1.0543830394744873	70752445.95951459
1.058409333229065	72021233.54154928
1.0624464750289917	72341678.90219165
1.0664942264556885	71970461.80963181
1.0705522298812866	71330976.70024902
1.0746204853057861	70686451.77876659
1.0786986351013184	70173030.00360234
1.0827864408493042	69875370.9093184
1.086883783340454	69721824.71347702
1.0909905433654785	69083687.50459343
1.0951062440872192	67326223.66522107
1.0992310047149658	64787330.71627931
1.10336434841156	62232902.42821332
1.1075061559677124	59742696.02513115
1.1116561889648438	57200092.73289588
1.115814208984375	55459135.56655174
1.1199802160263062	55379214.488192536
1.124153733253479	56976567.99631241
1.1283347606658936	57857267.529501736
1.1325229406356812	55374225.898266196
1.1367181539535522	54843634.11464699
1.1409201622009277	58549337.38207864
1.145128846168518	60941816.69658714
1.1493438482284546	61437573.82893437
1.1535650491714478	60813600.603458524
1.1577922105789185	60043967.771072604
1.1620250940322876	59950346.47520843
1.1662636995315552	59991636.13247164
1.170507550239563	61323720.21504489
1.174756646156311	63381711.38380078
1.1790107488632202	66509963.13093961
1.1832695007324219	71319535.92759737
1.1875330209732056	75409828.99005362
1.191800832748413	78755180.13971354
1.1960728168487549	82066081.62335181
1.2003488540649414	84634157.84815168
1.2046287059783936	86552289.69196036
1.2089121341705322	88078315.4515093
1.2131990194320679	89374636.64498867
1.2174891233444214	90604460.01552123
1.2217823266983032	91675698.90483364
1.2260783910751343	92502952.63672414
1.230377197265625	93272778.14317644
1.2346785068511963	94040645.37729089
1.238982081413269	94816521.36084883
1.2432878017425537	95385721.76755467
1.2475954294204712	95616321.77302386
1.2519049644470215	95847291.39123927
1.256216049194336	96053740.63466987
1.2605286836624146	96161103.23404469
1.2648425102233887	96252472.09773907
1.2691574096679688	96229651.69844618
1.2734732627868652	96074047.98571956
1.2777899503707886	95774013.68849751
1.2821072340011597	95334701.49616536
1.2864248752593994	94937269.56376727
1.2907428741455078	94574412.306848
1.2950609922409058	94367829.10054299
1.2993791103363037	94430210.41798118
1.303696870803833	94717076.41758712
1.3080145120620728	95358552.27432929
1.3123314380645752	95669706.27486925
1.3166478872299194	95524917.82363528
1.3209635019302368	94861717.63205978
1.3252781629562378	90978672.64087014
1.3295916318893433	78998122.6952787
1.3339040279388428	59697107.998828
1.3382149934768677	43669651.61009941
1.3425244092941284	35249663.720017396
1.3468321561813354	29804670.568895444
1.3511382341384888	25339610.352802582
1.3554422855377197	22214850.846246567
1.3597444295883179	21827583.3768003
1.3640443086624146	24112355.00159713
1.3683418035507202	25351837.57570842
1.3726370334625244	24979460.05275162
1.3769296407699585	26503312.343828678
1.381219506263733	28470587.882824276
1.3855066299438477	29092806.093253914
1.3897908926010132	28909305.31587498
1.3940720558166504	27372680.884013955
1.3983501195907593	25805677.978078853
1.4026249647140503	25337076.509790473
1.4068963527679443	24336246.278393842
1.4111642837524414	23090671.96717984
1.4154287576675415	22740348.48256538
1.419689416885376	21886668.165614042
1.4239463806152344	20917267.565307267
1.4281994104385376	21743284.431948844
1.4324485063552856	23660244.727471326
1.436693549156189	25266738.46649308
1.440934419631958	26486409.45054471
1.4451709985733032	28007417.633640602
1.449403166770935	31776224.73433755
1.453631043434143	36562213.972754724
1.4578542709350586	39681650.42569412
1.4620729684829712	40641513.329836115
1.4662868976593018	40516972.13130674
1.4704961776733398	40805758.41867702
1.4747005701065063	42405050.11816608
1.4788999557495117	45004665.314010374
1.4830944538116455	47384777.673732616
1.4872838258743286	49268854.96769001
1.491468071937561	50765255.354357705
1.4956470727920532	52916966.674441166
1.4998208284378052	55458326.23940858
1.5039892196655273	57991465.54461067
1.5081522464752197	61191158.95539524
1.5123097896575928	65075368.37868148
1.5164618492126465	68468296.52467328
1.5206083059310913	71593190.47509949
1.5247491598129272	75281793.10567932
1.5288842916488647	78658276.46615368
1.5330137014389038	82071018.60273732
1.5371372699737549	86132868.47186077
1.541254997253418	90322251.89213781
1.545366883277893	94620103.08344898
1.5494728088378906	98406195.2045542
1.5535727739334106	100404093.26601188
1.5576666593551636	100260221.69693598
1.561754584312439	101149599.74134389
1.5658363103866577	105335539.74969593
1.5699119567871094	110063234.93145584
1.5739814043045044	113041759.92720465
1.5780447721481323	113491721.36306071
1.582101821899414	113830893.48767845
1.5861525535583496	115829738.24966367
1.5901970863342285	117766313.87047683
1.5942351818084717	118993797.58589509
1.5982669591903687	119766067.54449973
1.6022924184799194	120098051.24186373
1.606311559677124	120406800.03962424
1.6103241443634033	120740352.53876176
1.6143304109573364	120768223.85734192
1.6183301210403442	120687788.50912987
1.6223233938217163	121454710.5310131
1.6263102293014526	122368030.01763389
1.6302905082702637	122037129.89119846
1.634264349937439	121294014.85619843
1.638231635093689	120942646.09824683
1.6421923637390137	120556070.19541553
1.646146535873413	120211037.09159236
1.6500942707061768	120370971.5364513
1.6540353298187256	120320725.37107465
1.6579699516296387	119439789.56257826
1.661897897720337	118392159.77301359
1.6658192873001099	116950836.262868
1.6697341203689575	115277464.20767058
1.6736423969268799	115592057.6474079
1.677544116973877	117691686.74186955
1.6814392805099487	118251705.35609673
1.6853278875350952	116028623.25237294
1.6892099380493164	113298872.90123102
1.6930854320526123	111878197.41639672
1.696954369544983	111396652.54568206
1.7008168697357178	112012791.31356701
1.7046726942062378	112393900.96933685
1.708522081375122	110829306.1077701
1.712364912033081	108058531.73418085
1.7162011861801147	104381611.15156126
1.7200311422348022	100713275.59805532
1.723854422569275	97681667.80580825
1.7276713848114014	94922914.25008766
1.731481909751892	92329834.5579769
1.7352858781814575	89360391.78989789
1.7390835285186768	86026363.60154174
1.7428747415542603	82226502.57570414
1.7466596364974976	78249402.97326124
1.7504380941390991	75427674.0957552
1.7542102336883545	72535610.92084333
1.7579760551452637	69736796.64809884
1.7617355585098267	68385029.85482967
1.7654887437820435	65440098.27619817
1.7692357301712036	60063138.17022225
1.7729763984680176	55136855.56027479
1.776710867881775	52161440.66763588
1.7804391384124756	50270162.19754366
1.7841613292694092	46544674.59804707
1.7878772020339966	43421807.20738107
1.7915871143341064	42134060.87149148
1.7952908277511597	41373630.26596078
1.7989884614944458	39771752.76603634
1.8026801347732544	35996894.085496806
1.806365728378296	33571503.70856277
1.8100452423095703	34016032.85871517
1.8137187957763672	36600825.15356026
1.817386507987976	35537725.08401576
1.8210482597351074	33163114.568716835
1.8247040510177612	35277221.70395374
1.828354001045227	35701136.69746438
1.8319982290267944	33330911.93824963
1.8356364965438843	31415115.324010648
1.8392690420150757	30281650.761303913
1.8428958654403687	28980052.336864155
1.8465168476104736	26980228.59076163
1.8501322269439697	27026834.921512634
1.8537418842315674	27115165.78494189
1.8573459386825562	23679445.692050856
1.860944390296936	20713505.692003228
1.864537239074707	20990816.980214216
1.8681244850158691	22693543.905632216
1.871706247329712	24541865.796095323
1.8752825260162354	26282904.199141886
1.8788533210754395	29116494.893443465
1.8824186325073242	33167920.104007572
1.8859784603118896	35826763.661975056
1.8895330429077148	35926128.46198384
1.8930821418762207	36483299.627803095
1.8966259956359863	38955063.980344236
1.9001644849777222	40133203.06700534
1.9036977291107178	39591155.97006688
1.9072256088256836	39953898.438520625
1.9107483625411987	40260330.861059874
1.9142658710479736	40213511.108345315
1.9177782535552979	40515543.7922361
1.9212853908538818	39011688.167259686
1.9247875213623047	37161812.09514651
1.9282845258712769	36020778.51368003
1.9317764043807983	33717777.5073785
1.9352631568908691	30866017.070323337
1.9387450218200684	27878606.09725769
1.942221760749817	27723217.551943738
1.9456936120986938	30486263.760500304
1.9491604566574097	31991718.71777679
1.952622413635254	30994988.46107481
1.956079363822937	29444723.825937748
1.959531545639038	29839864.2080612
1.962978720664978	30625538.371442996
1.966421127319336	31670000.894814678
1.9698586463928223	32992518.978471134
1.9732913970947266	32739934.588754844
1.9767193794250488	32588739.93277088
1.9801424741744995	33049767.80883822
1.9835609197616577	33977517.11547365
1.9869745969772339	34648549.40708899
1.990383505821228	34164490.43952571
1.9937876462936401	35658581.090522595
1.9971871376037598	36808465.565911256
2.000581979751587	37236247.24851503
2.003972291946411	38961139.56631525
2.007357597351074	39448305.86329417
2.0107386112213135	40334338.84732538
2.0141148567199707	42136842.930432156
2.017486572265625	42434699.44028657
2.0208535194396973	44730257.91326356
2.0242159366607666	47834025.27598532
2.027573823928833	47323437.48635865
2.0309269428253174	48167544.764491424
2.034275770187378	51755447.72499166
2.0376198291778564	53636877.01899247
2.040959596633911	53937134.37856589
2.044294595718384	55538299.54772824
2.0476250648498535	58082962.131062575
2.0509510040283203	58523983.788062215
2.054272413253784	59027669.68303938
2.057589530944824	63061993.64327555
2.0609018802642822	64811259.97449171
2.0642096996307373	64123134.73905301
2.0675129890441895	66330008.98492503
2.0708119869232178	68072822.24433036
2.074106216430664	68389949.13581218
2.0773961544036865	69764987.3440244
2.080681324005127	70973348.35986698
2.0839622020721436	71594273.85648647
2.087238311767578	72592679.30556016
2.090510129928589	73946282.31264628
2.0937774181365967	74789640.42835347
2.0970399379730225	75380866.31611305
2.1002981662750244	76315448.66961268
2.1035518646240234	76641045.68958105
2.1068007946014404	76728686.30945618
2.1100454330444336	77439162.01455414
2.1132853031158447	78484205.75533523
2.116520881652832	78245462.7238882
2.1197516918182373	77947418.31304543
2.1229779720306396	79262040.73261409
2.12619948387146	79742540.90185668
2.1294167041778564	78958561.89922199
2.132629156112671	79436908.72798806
2.1358368396759033	80192969.3155519
2.139039993286133	79128087.97266613
2.1422386169433594	78508980.87612146
2.145432472229004	79453322.1663101
2.1486217975616455	79400705.19274253
2.151806354522705	78365065.6002046
2.1549863815307617	78173107.08460744
2.1581614017486572	78356226.8353452
2.16133189201355	78202026.8958508
2.1644976139068604	77800920.45648964
2.167658567428589	77574710.66248357
2.1708147525787354	77229127.957403
2.173966407775879	76225923.09727097
2.1771130561828613	75004085.3994328
2.1802549362182617	74654864.99500844
2.183391809463501	74511986.28111759
2.1865241527557373	73611886.14848629
2.1896514892578125	72944701.0042528
2.1927738189697266	71857564.96430928
2.1958916187286377	69718062.6773262
2.1990041732788086	67560415.66996458
2.2021119594573975	65606976.73934129
2.2052149772644043	64303425.33284136
2.208312749862671	64383636.190559685
2.2114057540893555	65396842.40112903
2.214493751525879	66117044.50775496
2.217576742172241	65142099.97570707
2.2206547260284424	63678698.4256783
2.2237277030944824	63946470.93266477
2.2267956733703613	64121188.719135866
2.2298583984375	63698956.28489835
2.2329163551330566	63183431.49139424
2.235969066619873	62159350.04701586
2.2390167713165283	61513913.86483184
2.2420592308044434	60416196.75070417
2.2450966835021973	59238234.11278112
2.248128890991211	58990877.757860735
2.2511560916900635	59052554.98335484
2.254178285598755	58646858.917603366
2.257194995880127	58292487.21694926
2.260206699371338	58477095.04750678
2.2632133960723877	57591393.697858855
2.266214609146118	56018190.19257424
2.2692108154296875	55172548.771453284
2.2722020149230957	55346280.78182692
2.2751877307891846	56093094.89056076
2.278168201446533	55524440.10380215
2.2811436653137207	54101439.10216383
2.284113883972168	53819848.10977478
2.287078857421875	54024687.87402911
2.290038824081421	51497262.22078089
2.2929933071136475	43898151.54441395
2.295942783355713	36337265.1605408
2.298887014389038	34497698.3074072
2.301826238632202	35777382.8814697
2.304760217666626	36746788.95268079
2.3076889514923096	36990078.0510009
2.310612440109253	36702256.91574162
2.3135311603546143	36149910.74444284
2.3164443969726562	35017107.82382723
2.319352865219116	33542990.121971853
2.322256088256836	31487620.455727063
2.3251543045043945	30158359.009400964
2.328047275543213	30715881.125739884
2.330935478210449	31714189.577058304
2.3338186740875244	32734166.64063007
2.3366971015930176	33186666.736833364
2.3395702838897705	32825716.650458638
2.3424389362335205	32939333.65765316
2.3453025817871094	34411488.93311961
2.348161458969116	35702410.73405159
2.351015567779541	34281403.95018466
2.353865146636963	32700432.72972156
2.3567099571228027	32621079.33519394
2.3595502376556396	32155239.001170386
2.3623859882354736	32071234.65109106
2.3652172088623047	32336931.474006187
2.368043899536133	31827873.758834295
2.370866537094116	31106321.38905533
2.3736846446990967	31405870.840615097
2.3764986991882324	31451415.761757743
2.3793084621429443	30753244.979521576
2.3821144104003906	29865516.643262178
2.384916305541992	29050148.777503315
2.387714147567749	30023169.909608383
2.3905084133148193	31714306.293033395
2.393299102783203	31986246.57278906
2.3960859775543213	31955086.866740793
2.398869514465332	32441605.561366394
2.4016497135162354	32420225.150471672
2.4044265747070312	32197389.081080332
2.407200336456299	31006341.83076675
2.409970998764038	29495070.655497883
2.4127390384674072	29385503.210548013
2.415503978729248	29112639.295830052
2.418266534805298	28355179.63117288
2.4210267066955566	28509623.59679442
2.4237842559814453	28664316.964554008
2.426539897918701	28066170.793670535
2.429293394088745	28078978.369591746
2.4320452213287354	27469585.926825885
2.4347951412200928	25495326.535241123
2.4375438690185547	25624844.848249793
2.440291166305542	27062681.7288193
2.443037271499634	25834127.11102457
2.445782423019409	23559257.3069743
2.4485268592834473	22904933.97813846
2.451270818710327	21910519.309278954
2.454014539718628	21016682.73578385
2.4567582607269287	23516481.46270461
2.4595019817352295	24408905.941047974
2.4622461795806885	23617391.97970232
2.4649908542633057	23876938.122091882
2.4677364826202393	21611088.340507794
2.4704833030700684	19098723.569707993
2.473231554031372	17686418.172947202
2.4759814739227295	17505182.279890336
2.4787333011627197	18063155.440745402
2.481487512588501	17958069.357936993
