#wavelength	surface flux
0.6450077295303345	1077.691478140359
0.6472567915916443	1639.1680726757718
0.6494921445846558	2007.420567495485
0.6517150402069092	2141.7401515090924
0.6539263725280762	2267.2346355469126
0.6561272740364075	2395.187577302675
0.6583186388015747	2531.79143044958
0.6605015397071838	2681.7528381298453
0.6626768708229065	2837.175925101059
0.6648455858230591	2996.0131285157536
0.6670085787773132	3160.121769141632
0.6691668033599854	3322.2904657750933
0.6713210344314575	3493.1032988279394
0.6734722256660461	3692.097576759727
0.6756211519241333	3901.5862548951486
0.6777685880661011	4108.594060708481
0.6799154281616211	4322.967916454734
0.6820623278617859	4545.094758334469
0.6842101216316223	4774.208047071998
0.6863595843315125	5006.877679608826
0.688511312007904	5240.87982131957
0.6906660795211792	5492.581730761299
0.6928245425224304	5776.561951685771
0.6949873566627502	6083.67988628902
0.6971551775932312	6393.69721366132
0.6993286609649658	6714.514350014916
0.7015084028244019	7072.301014177515
0.7036949396133423	7450.862477271885
0.7058889269828796	7829.9620449303875
0.7080909013748169	8216.959587458392
0.710301399230957	8620.131733107028
0.712520956993103	9042.437060817005
0.7147500514984131	9478.232457565442
0.7169892191886902	9931.530441664787
0.7192389369010925	10417.844587927559
0.7214996814727783	10932.130786171148
0.723771870136261	11465.5101948897
0.7260559797286987	12021.284125047945
0.7283523678779602	12598.521018376936
0.7306615710258484	13198.039922263075
0.7329838871955872	13810.602582310605
0.7353196740150452	14437.099685305302
0.7376693487167358	15103.21288578654
0.7400332689285278	15802.017253071468
0.7424117922782898	16527.80115976421
0.7448052167892456	17299.83081575111
0.7472138404846191	18133.450087092864
0.7496379613876343	19016.385630560355
0.7520779371261597	19910.949844660125
0.7545340061187744	20798.60106694739
0.7570064663887024	21622.16660845214
0.7594954967498779	22160.72237488379
0.7620013952255249	21424.90497260251
0.7645244002342224	17821.644357560595
0.7670646905899048	13608.086038708105
0.7696225643157959	13922.789127772456
0.7721980810165405	19807.322120606495
0.7747915983200073	26681.46453954796
0.7774031162261963	30363.631436271302
0.7800329327583313	31912.401395637353
0.7826811671257019	34031.91799416392
0.7853479981422424	36583.61941099946
0.7880334854125977	38619.81335352816
0.7907378077507019	40301.35677700763
0.7934610247612	41495.00955778554
0.7962033748626709	43256.03618359506
0.7989648580551147	46137.60880753686
0.801745593547821	48878.57412833078
0.8045456409454346	51263.22476440267
0.8073651194572449	53722.10950567784
0.8102040886878967	56256.61696435238
0.8130625486373901	58902.47133871573
0.8159406185150146	61720.04674052291
0.8188382983207703	64682.47729049816
0.8217556476593018	67732.06882476817
0.8246926665306091	70928.92289770154
0.8276493549346924	74326.90364554894
0.8306257724761963	77871.53740550096
0.8336219191551208	81562.4554114385
0.8366377949714661	85412.08043698454
0.8396733403205872	89421.11127587993
0.8427285552024841	93614.27260183214
0.8458034992218018	97984.49965740414
0.8488980531692505	102557.77990813946
0.8520121574401855	107322.84044487549
0.8551458716392517	112264.75962567097
0.8582990765571594	117380.60178921594
0.8614717125892639	122621.5013116794
0.8646637797355652	128138.30955455893
0.8678751587867737	134079.91912105164
0.8711057901382446	140358.6415943422
0.8743556141853333	146918.80120268874
0.87762451171875	153753.39298424436
0.8809124231338501	160830.97023213387
0.8842192888259888	168169.54569151657
0.8875449895858765	175739.47643483948
0.8908893465995789	183413.8282042134
0.894252359867096	191197.5159833603
0.8976338505744934	199339.6404408122
0.9010337591171265	208482.6142764212
0.9044519662857056	218452.4835769102
0.9078882932662964	228397.5752416115
0.9113426208496094	238380.89833379333
0.914814829826355	248627.68437844305
0.9183048605918884	259289.85954922822
0.9218124747276306	270269.1114909608
0.925337553024292	279649.53429610166
0.9288799166679382	286026.27266763157
0.9324395060539246	291270.33208429883
0.9360161423683167	302091.2168340852
0.9396095871925354	322753.3246032186
0.943219780921936	343051.042478846
0.9468464851379395	355576.0921134746
0.9504896402359009	368144.3502443882
0.9541489481925964	384429.257159944
0.9578243494033813	401061.81111267407
0.9615156054496765	418449.0063095475
0.9652225375175476	438950.4912560476
0.9689450263977051	460357.2988046795
0.9726828336715698	479991.4383805403
0.9764357805252075	499721.97215952666
0.9802037477493286	520990.4934001556
0.983986496925354	542982.180361189
0.9877838492393494	565144.5599654772
0.9915955662727356	588283.8300853426
0.9954215884208679	612402.6674758103
0.9992615580558777	636556.3194868048
1.0031154155731201	660904.5971433969
1.0069829225540161	686144.1025457401
1.0108637809753418	712367.9221256365
1.0147579908370972	739414.3650373186
1.018665075302124	767271.4200300584
1.022585153579712	795928.8689313888
1.0265177488327026	825418.4967102337
1.0304628610610962	855742.4288862713
1.0344202518463135	886961.3358586768
1.0383895635604858	919113.2065714139
1.0423706769943237	952138.8265883061
1.0463634729385376	986029.0643622603
1.0503677129745483	1020886.7683858202
1.0543830394744873	1056759.661886638
1.058409333229065	1093987.4865825844
1.0624464750289917	1133466.8031466738
1.0664942264556885	1174250.940372112
1.0705522298812866	1215007.653234984
1.0746204853057861	1256318.9148381923
1.0786986351013184	1298659.5070648543
1.0827864408493042	1342038.4992101535
1.086883783340454	1385655.84173901
1.0909905433654785	1428049.424769077
1.0951062440872192	1466718.7671454651
1.0992310047149658	1501439.6754090297
1.10336434841156	1540683.915359271
1.1075061559677124	1586793.909502406
1.1116561889648438	1617552.8898206607
1.115814208984375	1621883.282738685
1.1199802160263062	1626998.1239794134
1.124153733253479	1673821.3908907168
1.1283347606658936	1769401.9658825502
1.1325229406356812	1848460.065069096
1.1367181539535522	1909475.215957308
1.1409201622009277	1985100.2319334424
1.145128846168518	2032814.409868801
1.1493438482284546	2072780.8799902976
1.1535650491714478	2147110.672733244
1.1577922105789185	2220125.742006347
1.1620250940322876	2279483.85744893
1.1662636995315552	2353580.3723051012
1.170507550239563	2432147.1860533226
1.174756646156311	2516223.876961505
1.1790107488632202	2614852.1064077634
1.1832695007324219	2704913.5584716597
1.1875330209732056	2787895.019060458
1.191800832748413	2875036.425492057
1.1960728168487549	2957514.871838505
1.2003488540649414	3038528.3701894945
1.2046287059783936	3125167.334730583
1.2089121341705322	3210784.2091403455
1.2131990194320679	3293488.5797478613
1.2174891233444214	3379390.203075161
1.2217823266983032	3468534.58941031
1.2260783910751343	3557462.368746117
1.230377197265625	3647231.397975565
1.2346785068511963	3740116.962625178
1.238982081413269	3834695.7843643
1.2432878017425537	3929348.642110216
1.2475954294204712	4024140.3253087765
1.2519049644470215	4119029.6770754526
1.256216049194336	4216127.196918123
1.2605286836624146	4316019.619522804
1.2648425102233887	4416431.182619799
1.2691574096679688	4516202.03735221
1.2734732627868652	4616603.794571948
1.2777899503707886	4718372.02589348
1.2821072340011597	4819837.540389219
1.2864248752593994	4922440.072326552
1.2907428741455078	5020052.023025475
1.2950609922409058	5113546.4119447805
1.2993791103363037	5224135.162183784
1.303696870803833	5348250.554537667
1.3080145120620728	5465768.171636844
1.3123314380645752	5571294.19832113
1.3166478872299194	5668503.743245334
1.3209635019302368	5756093.562231704
1.3252781629562378	5844303.799912174
1.3295916318893433	5873756.457816088
1.3339040279388428	5667811.494015731
1.3382149934768677	5297744.799526635
1.3425244092941284	5039002.945631001
1.3468321561813354	4864629.17018175
1.3511382341384888	4624216.599676496
1.3554422855377197	4462809.155623712
1.3597444295883179	4491577.287352309
1.3640443086624146	4640526.8914959235
1.3683418035507202	4966970.532596461
1.3726370334625244	5391976.488025874
1.3769296407699585	5770377.336445999
1.381219506263733	5956840.817357907
1.3855066299438477	5902897.387230256
1.3897908926010132	5773802.1598146185
1.3940720558166504	5686796.721612758
1.3983501195907593	5785930.994038818
1.4026249647140503	5950245.039018952
1.4068963527679443	6096464.43633586
1.4111642837524414	6274544.031961151
1.4154287576675415	6160449.68330297
1.419689416885376	5850244.206406393
1.4239463806152344	5805891.868454594
1.4281994104385376	6122173.479605164
1.4324485063552856	6700525.082762399
1.436693549156189	7076921.685039348
1.440934419631958	7233706.898713797
1.4451709985733032	7514861.742302725
1.449403166770935	7803311.247779931
1.453631043434143	8158862.701837001
1.4578542709350586	8633403.486213718
1.4620729684829712	8839550.137986537
1.4662868976593018	8848370.925708715
1.4704961776733398	9057423.19013942
1.4747005701065063	9355491.060705112
1.4788999557495117	9651267.517797953
1.4830944538116455	9915158.523543028
1.4872838258743286	10072255.541292049
1.491468071937561	10201469.232711997
1.4956470727920532	10385151.989883557
1.4998208284378052	10603343.19646582
1.5039892196655273	10930341.275749952
1.5081522464752197	11298915.602087416
1.5123097896575928	11579003.267437821
1.5164618492126465	11836477.618022965
1.5206083059310913	12087061.847208763
1.5247491598129272	12270657.833458457
1.5288842916488647	12391083.174422197
1.5330137014389038	12594277.7268837
1.5371372699737549	12879866.829978108
1.541254997253418	13116238.38869471
1.545366883277893	13306379.252823178
1.5494728088378906	13495116.600907529
1.5535727739334106	13678748.175493868
1.5576666593551636	13857503.30192451
1.561754584312439	14037356.90115855
1.5658363103866577	14217770.135489248
1.5699119567871094	14386921.581192404
1.5739814043045044	14558989.983261205
1.5780447721481323	14752182.8698813
1.582101821899414	14937017.076085078
1.5861525535583496	15102177.187431622
1.5901970863342285	15267851.891495526
1.5942351818084717	15439139.225721471
1.5982669591903687	15610728.867716659
1.6022924184799194	15780166.609649045
1.606311559677124	15944763.642885536
1.6103241443634033	16104888.67183494
1.6143304109573364	16266196.757540192
1.6183301210403442	16407258.83571932
1.6223233938217163	16433846.167069012
1.6263102293014526	16351532.001893366
1.6302905082702637	16285269.383617185
1.634264349937439	16348079.250824066
1.638231635093689	16758751.983472217
1.6421923637390137	17243005.633836962
1.646146535873413	17452976.820177175
1.6500942707061768	17580156.095497448
1.6540353298187256	17669253.29152738
1.6579699516296387	17769264.809509113
1.661897897720337	17700976.987270918
1.6658192873001099	17223731.551793266
1.6697341203689575	17365663.79353965
1.6736423969268799	18145744.353249483
1.677544116973877	18442346.575768005
1.6814392805099487	18555948.00082747
1.6853278875350952	18810513.870642986
1.6892099380493164	18938240.168001756
1.6930854320526123	18954303.779507525
1.696954369544983	18975055.249205776
1.7008168697357178	18973357.80743173
1.7046726942062378	19080132.992790714
1.708522081375122	19449374.736176707
1.712364912033081	19900699.24861846
1.7162011861801147	20154931.78287158
1.7200311422348022	20206563.3308816
1.723854422569275	20073016.16629419
1.7276713848114014	19812405.22758207
1.731481909751892	19708661.391349275
1.7352858781814575	19825857.98463237
1.7390835285186768	19966418.691247858
1.7428747415542603	20090891.026342366
1.7466596364974976	20303713.217085328
1.7504380941390991	20352967.83074568
1.7542102336883545	20067663.325147226
1.7579760551452637	19863056.128704716
1.7617355585098267	19848259.155296758
1.7654887437820435	19533760.81604257
1.7692357301712036	19100354.890927803
1.7729763984680176	19037140.05863136
1.776710867881775	19008628.83033015
1.7804391384124756	18773884.78378478
1.7841613292694092	18406565.855932225
1.7878772020339966	17782213.29693122
1.7915871143341064	17129802.58683534
1.7952908277511597	16987371.48220341
1.7989884614944458	16773724.023497183
1.8026801347732544	16435090.926731527
1.806365728378296	16126137.243979745
1.8100452423095703	15943152.948086444
1.8137187957763672	16835028.682962112
1.817386507987976	17593549.651316088
1.8210482597351074	17706513.392128874
1.8247040510177612	18244848.639782287
1.828354001045227	18332684.20782192
1.8319982290267944	18278740.908602025
1.8356364965438843	18418983.643055294
1.8392690420150757	17856081.153331645
1.8428958654403687	17209164.695879173
1.8465168476104736	16509076.935358174
1.8501322269439697	16484759.929148927
1.8537418842315674	16747362.436156973
1.8573459386825562	16051196.23522427
1.860944390296936	15324472.132072248
1.864537239074707	15115277.623922601
1.8681244850158691	15351115.113620747
1.871706247329712	15844814.895343399
1.8752825260162354	17063210.283112
1.8788533210754395	18785752.939607482
1.8824186325073242	19690001.23331678
1.8859784603118896	20165259.25142439
1.8895330429077148	20983667.433122367
1.8930821418762207	21592781.95208302
1.8966259956359863	21644670.089773215
1.9001644849777222	21241104.64526328
1.9036977291107178	21218473.196463224
1.9072256088256836	21721090.462031852
1.9107483625411987	21485080.545755286
1.9142658710479736	21174816.70922405
1.9177782535552979	21259452.792763267
1.9212853908538818	20439234.750479
1.9247875213623047	20277022.64475901
1.9282845258712769	20992422.457438268
1.9317764043807983	20632330.794696607
1.9352631568908691	19710148.2633708
1.9387450218200684	18490720.232907712
1.942221760749817	17943619.776169576
1.9456936120986938	18443945.61593875
1.9491604566574097	19141329.821465306
1.952622413635254	19228234.1138092
1.956079363822937	18085587.734679762
1.959531545639038	17996675.81245985
1.962978720664978	20153460.84382762
1.966421127319336	22214499.160931733
1.9698586463928223	22490313.271783162
1.9732913970947266	22114027.643711712
1.9767193794250488	22472715.60767056
1.9801424741744995	23429351.55438127
1.9835609197616577	24429601.14803529
1.9869745969772339	24396037.515563082
1.990383505821228	23591730.41550839
1.9937876462936401	24274456.677666295
1.9971871376037598	25087917.934692282
2.000581979751587	24782475.15290022
2.003972291946411	25330513.693141058
2.007357597351074	26429418.4467719
2.0107386112213135	27377071.891646672
2.0141148567199707	27906365.779304218
2.017486572265625	27977384.405490305
2.0208535194396973	28655979.33610661
2.0242159366607666	29258392.266518727
2.027573823928833	28741470.981466606
2.0309269428253174	28466660.804657027
2.034275770187378	29155137.43632133
2.0376198291778564	29618072.16995774
2.040959596633911	29668455.55895576
2.044294595718384	30206975.64944464
2.0476250648498535	30830174.74237867
2.0509510040283203	31070866.251101635
2.054272413253784	31357299.250683855
2.057589530944824	31668237.89345727
2.0609018802642822	31796259.58559023
2.0642096996307373	31885694.086512636
2.0675129890441895	32124861.67791899
2.0708119869232178	32389823.880301993
2.074106216430664	32610384.430629034
2.0773961544036865	32605669.776435588
2.080681324005127	32404574.766385075
2.0839622020721436	32475547.32229836
2.087238311767578	32768469.86754983
2.090510129928589	33073229.052988548
2.0937774181365967	33359551.52580322
2.0970399379730225	33494502.869375244
2.1002981662750244	33576783.46310005
2.1035518646240234	33708141.15326591
2.1068007946014404	33807598.18979153
2.1100454330444336	33787871.93212824
2.1132853031158447	33768826.054686084
2.116520881652832	33898395.78486342
2.1197516918182373	34104412.54372107
2.1229779720306396	34223134.993129
2.12619948387146	34269373.92027482
2.1294167041778564	34377142.383656874
2.132629156112671	34517136.91517251
2.1358368396759033	34606182.14895551
2.139039993286133	34650577.44053858
2.1422386169433594	34696994.24275773
2.145432472229004	34719726.79691502
2.1486217975616455	34710973.20806435
2.151806354522705	34729514.519223936
2.1549863815307617	34742732.06252571
2.1581614017486572	34851668.297418065
2.16133189201355	35021734.78620917
2.1644976139068604	35130612.34624291
2.167658567428589	35223223.64408428
2.1708147525787354	35253579.34374016
2.173966407775879	35256995.42087618
2.1771130561828613	35349253.372320086
2.1802549362182617	35465281.89936766
2.183391809463501	35474139.98584058
2.1865241527557373	35485927.13889012
2.1896514892578125	35588674.697896875
2.1927738189697266	35647327.74251765
2.1958916187286377	35388310.5887998
2.1990041732788086	34663273.5877208
2.2021119594573975	34236752.40065841
2.2052149772644043	34760373.688527234
2.208312749862671	35566680.2356637
2.2114057540893555	35951909.66260768
2.214493751525879	35882251.82916795
2.217576742172241	35063392.065419525
2.2206547260284424	33676471.686731115
2.2237277030944824	33093993.314572502
2.2267956733703613	33116785.39973893
2.2298583984375	33001432.30046949
2.2329163551330566	33128008.842062797
2.235969066619873	33378666.04149144
2.2390167713165283	33855854.972811244
2.2420592308044434	33726456.091116585
2.2450966835021973	32672381.47535294
2.248128890991211	32435989.149532013
2.2511560916900635	32633972.01434593
2.254178285598755	32259043.64112725
2.257194995880127	32783309.47661352
2.260206699371338	34283976.88464745
2.2632133960723877	34805189.870539285
2.266214609146118	34077148.64942771
2.2692108154296875	33568247.71482119
2.2722020149230957	34114657.217854016
2.2751877307891846	34515313.5568159
2.278168201446533	33988906.583756134
2.2811436653137207	33265870.74149374
2.284113883972168	32540139.165751785
2.287078857421875	31889288.919441678
2.290038824081421	31468041.0101466
2.2929933071136475	30635011.973705597
2.295942783355713	30185776.640147336
2.298887014389038	31309888.798666432
2.301826238632202	32559839.596362222
2.304760217666626	33061485.71201776
2.3076889514923096	33897771.19764011
2.310612440109253	35079678.04700779
2.3135311603546143	34491711.07881644
2.3164443969726562	31069622.843853053
2.319352865219116	28917068.813833866
2.322256088256836	30236398.403442122
2.3251543045043945	31997827.49364984
2.328047275543213	33044723.316130172
2.330935478210449	33371457.065019697
2.3338186740875244	32630196.8003445
2.3366971015930176	30885120.084804893
2.3395702838897705	29576668.381852146
2.3424389362335205	29531043.682133436
2.3453025817871094	29065377.003798984
2.348161458969116	28312507.12299101
2.351015567779541	27887343.098642983
2.353865146636963	28802666.3494363
2.3567099571228027	31227251.733406894
2.3595502376556396	32851605.719206028
2.3623859882354736	33720752.17232722
2.3652172088623047	34116713.705727644
2.368043899536133	31368144.604572546
2.370866537094116	26706056.390541382
2.3736846446990967	25848354.864127826
2.3764986991882324	27738019.156691074
2.3793084621429443	29280729.805527408
2.3821144104003906	30644935.804338288
2.384916305541992	31336771.58786416
2.387714147567749	32133643.108405642
2.3905084133148193	32660834.60407002
2.393299102783203	31436122.83873583
2.3960859775543213	30439983.578780133
2.398869514465332	30803101.339197278
2.4016497135162354	30427601.516321287
2.4044265747070312	29607205.843850154
2.407200336456299	30072569.858810935
2.409970998764038	30816791.2357527
2.4127390384674072	31034508.627554785
2.415503978729248	30201880.04380787
2.418266534805298	28686687.153837487
2.4210267066955566	29055256.71746962
2.4237842559814453	30316107.86024252
2.426539897918701	30198849.279122733
2.429293394088745	30568802.214516696
2.4320452213287354	30821334.64846269
2.4347951412200928	27922733.23407383
2.4375438690185547	26752722.39580172
2.440291166305542	29075577.06493605
2.443037271499634	28911601.21121689
2.445782423019409	27749606.809336912
2.4485268592834473	28460447.720362637
2.451270818710327	27187418.607936084
2.454014539718628	25276475.771746006
2.4567582607269287	26904208.82138406
2.4595019817352295	27663302.7674106
2.4622461795806885	27606854.401247688
2.4649908542633057	27916151.057665717
2.4677364826202393	25029390.112016443
2.4704833030700684	22637758.746797144
2.473231554031372	21616884.206435908
2.4759814739227295	21712477.0945959
2.4787333011627197	23405539.602118116
2.481487512588501	23565847.88379458
