#wavelength	surface flux
0.6450077295303345	156.41562153853363
0.6472567915916443	238.59688884869152
0.6494921445846558	293.77172387859923
0.6517150402069092	315.50559976883085
0.6539263725280762	336.3768030607092
0.6561272740364075	358.36104312826
0.6583186388015747	381.5233685820106
0.6605015397071838	405.90762925889703
0.6626768708229065	431.52516853832697
0.6648455858230591	458.47221008164996
0.6670085787773132	486.81795682537796
0.6691668033599854	516.4309732677915
0.6713210344314575	547.5766647454917
0.6734722256660461	580.7472336053848
0.6756211519241333	615.6622030296713
0.6777685880661011	652.1332238219545
0.6799154281616211	690.4300698515734
0.6820623278617859	730.6756878203951
0.6842101216316223	772.9549684957892
0.6863595843315125	817.3233340319455
0.688511312007904	863.8539546475173
0.6906660795211792	912.5927593858743
0.6928245425224304	963.90077057118
0.6949873566627502	1018.3400961159491
0.6971551775932312	1075.57064131816
0.6993286609649658	1135.5168035234205
0.7015084028244019	1198.9582608701028
0.7036949396133423	1265.7846591511452
0.7058889269828796	1335.6182058717077
0.7080909013748169	1408.6686535265235
0.710301399230957	1485.6181086668262
0.712520956993103	1566.6391382419408
0.7147500514984131	1650.5908850938958
0.7169892191886902	1738.3466387553474
0.7192389369010925	1833.311265898012
0.7214996814727783	1934.183131312411
0.723771870136261	2039.0494878656384
0.7260559797286987	2149.1620412619586
0.7283523678779602	2264.120682888365
0.7306615710258484	2384.5540887626394
0.7329838871955872	2511.1985840068337
0.7353196740150452	2643.434418390131
0.7376693487167358	2784.161778280255
0.7400332689285278	2933.5822153941017
0.7424117922782898	3089.769914675186
0.7448052167892456	3254.8443609480864
0.7472138404846191	3430.1870363890043
0.7496379613876343	3615.4166431577946
0.7520779371261597	3809.652862995337
0.7545340061187744	4013.408950064099
0.7570064663887024	4227.06729792022
0.7594954967498779	4449.790216340449
0.7620013952255249	4664.957827299045
0.7645244002342224	4810.136305634083
0.7670646905899048	4929.048764948799
0.7696225643157959	5186.5965587291785
0.7721980810165405	5601.099700843971
0.7747915983200073	6025.804758854199
0.7774031162261963	6380.235159994565
0.7800329327583313	6712.394710825954
0.7826811671257019	7071.427498986235
0.7853479981422424	7453.8255467333765
0.7880334854125977	7847.477698101288
0.7907378077507019	8255.225065021998
0.7934610247612	8674.409176386602
0.7962033748626709	9125.318358646731
0.7989648580551147	9619.114396470419
0.801745593547821	10133.370044784873
0.8045456409454346	10665.81335791437
0.8073651194572449	11220.356926041371
0.8102040886878967	11793.399991375833
0.8130625486373901	12398.232646975834
0.8159406185150146	13046.168010689593
0.8188382983207703	13729.58775052342
0.8217556476593018	14441.14088301191
0.8246926665306091	15190.20379717981
0.8276493549346924	15988.676303429711
0.8306257724761963	16828.096725562547
0.8336219191551208	17705.681370445964
0.8366377949714661	18622.87345138661
0.8396733403205872	19581.25971448102
0.8427285552024841	20587.30611657426
0.8458034992218018	21638.897558848385
0.8488980531692505	22748.91214445175
0.8520121574401855	23920.169099884504
0.8551458716392517	25142.583462439597
0.8582990765571594	26419.318834881342
0.8614717125892639	27749.552468697628
0.8646637797355652	29143.528226036207
0.8678751587867737	30618.12379886891
0.8711057901382446	32168.020454040623
0.8743556141853333	33789.54119858663
0.87762451171875	35488.26807385298
0.8809124231338501	37259.632503898974
0.8842192888259888	39106.82348921526
0.8875449895858765	41018.547900285375
0.8908893465995789	42954.48226814779
0.894252359867096	44913.69871496354
0.8976338505744934	46962.13589675848
0.9010337591171265	49327.71073649056
0.9044519662857056	51973.11921020982
0.9078882932662964	54600.51627691908
0.9113426208496094	57218.38882774829
0.914814829826355	59891.00619912023
0.9183048605918884	62673.69928091343
0.9218124747276306	65565.75559255343
0.925337553024292	68014.8270906963
0.9288799166679382	69600.58039719734
0.9324395060539246	70654.38474452004
0.9360161423683167	73155.96894200638
0.9396095871925354	78968.90051631164
0.943219780921936	84874.99115934168
0.9468464851379395	88043.11150427387
0.9504896402359009	91259.70060387353
0.9541489481925964	95854.83123552418
0.9578243494033813	100433.16492743597
0.9615156054496765	105183.39612936442
0.9652225375175476	111098.50316748154
0.9689450263977051	117294.91530111259
0.9726828336715698	122727.95696098644
0.9764357805252075	128225.18810624718
0.9802037477493286	134261.1746825125
0.983986496925354	140415.8120245764
0.9877838492393494	146587.39728321374
0.9915955662727356	153135.18691927276
0.9954215884208679	160041.9649297967
0.9992615580558777	167024.32658504441
1.0031154155731201	174115.94379917986
1.0069829225540161	181451.42123448112
1.0108637809753418	189063.38843655874
1.0147579908370972	196943.8668575739
1.018665075302124	205092.8301126994
1.022585153579712	213504.91369954898
1.0265177488327026	222196.95677555102
1.0304628610610962	231168.67798096937
1.0344202518463135	240437.1783615315
1.0383895635604858	250017.99437281187
1.0423706769943237	259900.98345183386
1.0463634729385376	270084.46017415624
1.0503677129745483	280589.9145511662
1.0543830394744873	291428.8296759677
1.058409333229065	302645.50554837217
1.0624464750289917	314431.1783719688
1.0664942264556885	326643.7681151659
1.0705522298812866	339033.1283012369
1.0746204853057861	351696.8891187614
1.0786986351013184	364722.0344698247
1.0827864408493042	378154.6838643814
1.086883783340454	391731.8207041041
1.0909905433654785	404938.1006802441
1.0951062440872192	416771.07598177646
1.0992310047149658	427279.79644968663
1.10336434841156	440671.39151064586
1.1075061559677124	458021.7463550374
1.1116561889648438	468717.90718066896
1.115814208984375	467339.01856332965
1.1199802160263062	466645.7467248067
1.124153733253479	480901.21044109203
1.1283347606658936	511776.23439152393
1.1325229406356812	539257.9723553058
1.1367181539535522	558873.7589746916
1.1409201622009277	580389.3951346322
1.145128846168518	593891.7958109843
1.1493438482284546	608863.4253614341
1.1535650491714478	637668.5275244346
1.1577922105789185	662452.1853440313
1.1620250940322876	678584.3783323792
1.1662636995315552	700984.6883651825
1.170507550239563	727068.3406592725
1.174756646156311	755181.3676951557
1.1790107488632202	788077.2726695213
1.1832695007324219	817445.7310644968
1.1875330209732056	845654.6424145685
1.191800832748413	876107.5711708546
1.1960728168487549	903117.3776492758
1.2003488540649414	929205.5874846794
1.2046287059783936	958446.6448416826
1.2089121341705322	987569.8922218165
1.2131990194320679	1015320.0851324748
1.2174891233444214	1044565.5835424038
1.2217823266983032	1075238.1015639743
1.2260783910751343	1105594.0591877569
1.230377197265625	1136309.0571867658
1.2346785068511963	1168363.5337674913
1.238982081413269	1201069.9165603637
1.2432878017425537	1233767.6834722678
1.2475954294204712	1266605.587029174
1.2519049644470215	1299539.6289734237
1.256216049194336	1333459.5443839955
1.2605286836624146	1368744.3250922633
1.2648425102233887	1404209.564865431
1.2691574096679688	1439247.9317604918
1.2734732627868652	1474948.4957965906
1.2777899503707886	1511474.6843971198
1.2821072340011597	1547474.7691408636
1.2864248752593994	1583702.748636398
1.2907428741455078	1617592.1280622296
1.2950609922409058	1649648.0623116682
1.2993791103363037	1690049.9090225082
1.303696870803833	1736786.2730249213
1.3080145120620728	1779848.227952447
1.3123314380645752	1818102.4650879807
1.3166478872299194	1852520.5219134134
1.3209635019302368	1881364.8007045025
1.3252781629562378	1915466.0954184055
1.3295916318893433	1941493.0734173383
1.3339040279388428	1901576.7886064702
1.3382149934768677	1819336.970006015
1.3425244092941284	1771143.0357233672
1.3468321561813354	1748376.8749853582
1.3511382341384888	1686633.0254954894
1.3554422855377197	1636170.2898688861
1.3597444295883179	1667051.9095089172
1.3640443086624146	1718870.321626158
1.3683418035507202	1788669.315458126
1.3726370334625244	1891081.6828265826
1.3769296407699585	2022625.7461738863
1.381219506263733	2129847.3544255206
1.3855066299438477	2127383.4425117024
1.3897908926010132	2088715.5136541876
1.3940720558166504	2087638.3294463067
1.3983501195907593	2127023.726012974
1.4026249647140503	2156522.6424231916
1.4068963527679443	2198823.5777494893
1.4111642837524414	2285657.6183784064
1.4154287576675415	2245321.1800953853
1.419689416885376	2117613.479279912
1.4239463806152344	2097851.9211288514
1.4281994104385376	2217000.917193428
1.4324485063552856	2450908.1000036984
1.436693549156189	2601263.1446926235
1.440934419631958	2644492.011444352
1.4451709985733032	2752372.6180012138
1.449403166770935	2863645.334324121
1.453631043434143	2953855.689269168
1.4578542709350586	3087538.2094687903
1.4620729684829712	3144500.954829543
1.4662868976593018	3133115.5997671275
1.4704961776733398	3212202.4439371787
1.4747005701065063	3330292.2419782053
1.4788999557495117	3451965.521312873
1.4830944538116455	3549940.0080916085
1.4872838258743286	3585776.6522137616
1.491468071937561	3623050.741331357
1.4956470727920532	3693164.907898366
1.4998208284378052	3779602.832202038
1.5039892196655273	3919327.3852955597
1.5081522464752197	4062347.637999006
1.5123097896575928	4156565.5534257456
1.5164618492126465	4250936.446314928
1.5206083059310913	4344360.37201779
1.5247491598129272	4408455.409197189
1.5288842916488647	4448349.389171628
1.5330137014389038	4530264.415774904
1.5371372699737549	4653866.191671219
1.541254997253418	4756179.738487465
1.545366883277893	4832795.1564693665
1.5494728088378906	4905388.081372426
1.5535727739334106	4975765.243060471
1.5576666593551636	5039545.51998443
1.561754584312439	5103464.96448089
1.5658363103866577	5180122.596479844
1.5699119567871094	5256276.733227075
1.5739814043045044	5327825.525344284
1.5780447721481323	5406347.987285702
1.582101821899414	5483049.686044103
1.5861525535583496	5555504.441630899
1.5901970863342285	5627330.642281763
1.5942351818084717	5699279.279581561
1.5982669591903687	5770569.01775983
1.6022924184799194	5840120.394700307
1.606311559677124	5908973.874480729
1.6103241443634033	5978273.619250463
1.6143304109573364	6049473.075632129
1.6183301210403442	6113906.093773466
1.6223233938217163	6138415.344387603
1.6263102293014526	6125679.861868853
1.6302905082702637	6115668.098549009
1.634264349937439	6144690.201587175
1.638231635093689	6300256.1117617395
1.6421923637390137	6485575.526811976
1.646146535873413	6572584.697009518
1.6500942707061768	6632338.840881489
1.6540353298187256	6677036.179161781
1.6579699516296387	6724291.371296279
1.661897897720337	6709934.804744245
1.6658192873001099	6550907.095289003
1.6697341203689575	6621500.507782981
1.6736423969268799	6913892.028897361
1.677544116973877	7020599.248868306
1.6814392805099487	7070623.042169613
1.6853278875350952	7184636.787932886
1.6892099380493164	7250841.464438101
1.6930854320526123	7270150.776481937
1.696954369544983	7294165.990339184
1.7008168697357178	7309511.930136292
1.7046726942062378	7357793.812018665
1.708522081375122	7512482.190835113
1.712364912033081	7700130.99349143
1.7162011861801147	7808105.102923835
1.7200311422348022	7842092.518031208
1.723854422569275	7793605.055136488
1.7276713848114014	7683178.38630269
1.731481909751892	7633574.28081423
1.7352858781814575	7700215.19718299
1.7390835285186768	7818281.936632037
1.7428747415542603	7931758.444747115
1.7466596364974976	8082287.213822485
1.7504380941390991	8164339.3432235
1.7542102336883545	8102882.788187381
1.7579760551452637	8102230.475771124
1.7617355585098267	8146773.579746128
1.7654887437820435	8044175.4561864855
1.7692357301712036	7928081.660361147
1.7729763984680176	7975984.209439353
1.776710867881775	8060890.619821972
1.7804391384124756	8074799.724613349
1.7841613292694092	8063845.45379676
1.7878772020339966	7847603.1427139295
1.7915871143341064	7503798.994991276
1.7952908277511597	7456375.5516836345
1.7989884614944458	7474047.536715093
1.8026801347732544	7501550.397192232
1.806365728378296	7450963.0168571435
1.8100452423095703	7363583.025387447
1.8137187957763672	7724889.359228656
1.817386507987976	8103422.2129250625
1.8210482597351074	8316376.535495465
1.8247040510177612	8511256.645541374
1.828354001045227	8442610.772021078
1.8319982290267944	8516549.498658445
1.8356364965438843	8837647.809642667
1.8392690420150757	8743395.042745152
1.8428958654403687	8323449.404435824
1.8465168476104736	7980273.294513606
1.8501322269439697	8123425.539801509
1.8537418842315674	8314614.98596591
1.8573459386825562	8027525.780411417
1.860944390296936	7718084.980208586
1.864537239074707	7627371.778658689
1.8681244850158691	7749802.196930918
1.871706247329712	7912139.207378671
1.8752825260162354	8198169.733847115
1.8788533210754395	8675054.087491013
1.8824186325073242	8946191.22911329
1.8859784603118896	9133921.72805503
1.8895330429077148	9489402.220104888
1.8930821418762207	9703564.504676212
1.8966259956359863	9773243.28369814
1.9001644849777222	9702071.579844909
1.9036977291107178	9761473.82004103
1.9072256088256836	10006959.599226525
1.9107483625411987	9932916.293775922
1.9142658710479736	9956020.45054265
1.9177782535552979	10011763.562797464
1.9212853908538818	9568806.348451179
1.9247875213623047	9531781.844428232
1.9282845258712769	9997536.047085023
1.9317764043807983	9995857.858427903
1.9352631568908691	9707614.367732553
1.9387450218200684	9293297.418597113
1.942221760749817	8846369.292510817
1.9456936120986938	8698276.434502281
1.9491604566574097	8962627.138744267
1.952622413635254	9227351.605482118
1.956079363822937	8845446.503630813
1.959531545639038	8715842.52100396
1.962978720664978	9719013.167459575
1.966421127319336	10744772.514793053
1.9698586463928223	10986758.590788601
1.9732913970947266	10917747.991826035
1.9767193794250488	10941592.098454388
1.9801424741744995	11296669.986045815
1.9835609197616577	11622584.231037732
1.9869745969772339	11425964.532860186
1.990383505821228	11120904.866553318
1.9937876462936401	11388153.939567115
1.9971871376037598	11614045.539788876
2.000581979751587	11309535.421714472
2.003972291946411	11344939.188029896
2.007357597351074	11947417.192213926
2.0107386112213135	12539349.563119838
2.0141148567199707	12653649.929447858
2.017486572265625	12594642.227036772
2.0208535194396973	12878168.51838483
2.0242159366607666	13042587.372863587
2.027573823928833	12737847.224054
2.0309269428253174	12608575.473601263
2.034275770187378	12918693.023225484
2.0376198291778564	13137300.720295724
2.040959596633911	13180138.536436401
2.044294595718384	13438744.696205996
2.0476250648498535	13700188.422714632
2.0509510040283203	13805585.237925006
2.054272413253784	13968808.81559732
2.057589530944824	14112474.747008678
2.0609018802642822	14185516.086804058
2.0642096996307373	14255713.123009594
2.0675129890441895	14362228.210905038
2.0708119869232178	14484317.864961717
2.074106216430664	14609645.00027405
2.0773961544036865	14640363.692133911
2.080681324005127	14571675.010869753
2.0839622020721436	14608531.049901307
2.087238311767578	14734457.9175437
2.090510129928589	14875716.702485956
2.0937774181365967	15026780.54893211
2.0970399379730225	15109126.317156034
2.1002981662750244	15160392.153558107
2.1035518646240234	15233820.558071474
2.1068007946014404	15296824.0867909
2.1100454330444336	15309394.25842797
2.1132853031158447	15318866.637285499
2.116520881652832	15394217.549776355
2.1197516918182373	15510504.931851737
2.1229779720306396	15592199.0780289
2.12619948387146	15636735.691874456
2.1294167041778564	15704727.69709658
2.132629156112671	15788137.799611667
2.1358368396759033	15848873.453991035
2.139039993286133	15892784.099407842
2.1422386169433594	15939407.281168422
2.145432472229004	15973336.61897063
2.1486217975616455	15994768.180209208
2.151806354522705	16027025.7227244
2.1549863815307617	16052075.105223702
2.1581614017486572	16120658.5165438
2.16133189201355	16218475.482173229
2.1644976139068604	16291443.283118255
2.167658567428589	16357468.17910255
2.1708147525787354	16392561.015643435
2.173966407775879	16416896.266707715
2.1771130561828613	16487620.283077896
2.1802549362182617	16566050.562523892
2.183391809463501	16589478.298535878
2.1865241527557373	16620028.42279437
2.1896514892578125	16695676.981453003
2.1927738189697266	16748094.845596433
2.1958916187286377	16657795.50340871
2.1990041732788086	16369691.691858893
2.2021119594573975	16220750.088050263
2.2052149772644043	16474361.562932257
2.208312749862671	16841588.743892044
2.2114057540893555	17035541.036008507
2.214493751525879	17035373.77452942
2.217576742172241	16697258.83255474
2.2206547260284424	16090258.4540802
2.2237277030944824	15847767.915055968
2.2267956733703613	15927481.204809196
2.2298583984375	15986773.882829538
2.2329163551330566	16096454.87708934
2.235969066619873	16175119.988424486
2.2390167713165283	16398071.481520338
2.2420592308044434	16384064.245846752
2.2450966835021973	15926245.117676567
2.248128890991211	15847744.103567194
2.2511560916900635	15950170.695690727
2.254178285598755	15758801.841648534
2.257194995880127	16020426.747525178
2.260206699371338	16807619.273879588
2.2632133960723877	17170706.63555202
2.266214609146118	16885109.61677826
2.2692108154296875	16603142.04701357
2.2722020149230957	16796283.409426812
2.2751877307891846	16966583.866877448
2.278168201446533	16741110.391576605
2.2811436653137207	16421464.823555393
2.284113883972168	16089138.870392088
2.287078857421875	15794626.144423047
2.290038824081421	15582266.121827094
2.2929933071136475	14974883.74890448
2.295942783355713	14530508.398356907
2.298887014389038	15083234.396149967
2.301826238632202	15570852.564864427
2.304760217666626	15516572.101580173
2.3076889514923096	16063427.51956544
2.310612440109253	17094274.356025934
2.3135311603546143	17013677.643695798
2.3164443969726562	15422451.618145099
2.319352865219116	14294735.527691772
2.322256088256836	14572066.712556627
2.3251543045043945	15125355.614025833
2.328047275543213	15720205.81183228
2.330935478210449	16149233.741701815
2.3338186740875244	16012711.934541808
2.3366971015930176	15351013.833161278
2.3395702838897705	14915748.15614898
2.3424389362335205	15144679.910423568
2.3453025817871094	14970248.071985789
2.348161458969116	14432842.847547106
2.351015567779541	13916853.264151357
2.353865146636963	14081882.882732626
2.3567099571228027	15354575.261250498
2.3595502376556396	16216346.490842558
2.3623859882354736	16474708.491464423
2.3652172088623047	16617454.912699345
2.368043899536133	15478125.930507999
2.370866537094116	13560211.834671266
2.3736846446990967	13223792.623461988
2.3764986991882324	14019713.135573449
2.3793084621429443	14709901.482742159
2.3821144104003906	15434548.956399867
2.384916305541992	15929781.82175987
2.387714147567749	16419873.356558463
2.3905084133148193	16551882.404289108
2.393299102783203	15810497.641829152
2.3960859775543213	15783862.298512144
2.398869514465332	16276070.729304409
2.4016497135162354	15664928.27047627
2.4044265747070312	15111113.150184063
2.407200336456299	15633172.15428382
2.409970998764038	16158130.73210831
2.4127390384674072	16299588.787223728
2.415503978729248	16088899.80839156
2.418266534805298	15626126.806606408
2.4210267066955566	15583301.479573743
2.4237842559814453	15712769.460911902
2.426539897918701	15631132.189474035
2.429293394088745	15956267.137564583
2.4320452213287354	15954471.736251915
2.4347951412200928	14373804.996087695
2.4375438690185547	13981694.772625204
2.440291166305542	15414160.231749874
2.443037271499634	15529062.470595222
2.445782423019409	15339211.005211927
2.4485268592834473	16001003.357290708
2.451270818710327	15828003.293629166
2.454014539718628	15346711.21036995
2.4567582607269287	15733721.852958215
2.4595019817352295	15924499.330768418
2.4622461795806885	16103819.947907548
2.4649908542633057	16267987.442477217
2.4677364826202393	15333797.451701002
2.4704833030700684	14687549.661384545
2.473231554031372	14172764.848646503
2.4759814739227295	14208365.589630198
2.4787333011627197	15217673.094548587
