#wavelength	surface flux
0.6450077295303345	106289.6949741943
0.6472567915916443	159843.44217349408
0.6494921445846558	191886.35854338785
0.6517150402069092	200392.71944424495
0.6539263725280762	206661.56041331965
0.6561272740364075	208229.15720201618
0.6583186388015747	213233.18230816364
0.6605015397071838	227958.9884968532
0.6626768708229065	241510.3355590362
0.6648455858230591	250555.3016223989
0.6670085787773132	258644.4361451215
0.6691668033599854	263075.8713805143
0.6713210344314575	267864.19818044914
0.6734722256660461	280422.4909617069
0.6756211519241333	292522.85048716195
0.6777685880661011	296974.9918044606
0.6799154281616211	299465.9593335771
0.6820623278617859	300809.7141085067
0.6842101216316223	299364.05869427393
0.6863595843315125	292781.70452766307
0.688511312007904	282333.7081094138
0.6906660795211792	285992.29971993447
0.6928245425224304	307507.78513911966
0.6949873566627502	332281.90104922035
0.6971551775932312	350471.9432947514
0.6993286609649658	363775.7413446534
0.7015084028244019	386415.8165218768
0.7036949396133423	421759.36392710934
0.7058889269828796	455395.77437597705
0.7080909013748169	477237.3368671058
0.710301399230957	492915.01265626756
0.712520956993103	509004.3407604575
0.7147500514984131	525322.4457903166
0.7169892191886902	541649.0674203484
0.7192389369010925	558698.1550515607
0.7214996814727783	576461.1518868519
0.723771870136261	594978.000308476
0.7260559797286987	613782.9653624289
0.7283523678779602	632693.8013505593
0.7306615710258484	650379.9897383992
0.7329838871955872	658637.6017175233
0.7353196740150452	658776.2388103124
0.7376693487167358	662491.6137024228
0.7400332689285278	666700.4284546921
0.7424117922782898	671629.6991621311
0.7448052167892456	680761.306319045
0.7472138404846191	693622.5746925583
0.7496379613876343	710168.5678845658
0.7520779371261597	723512.2993628378
0.7545340061187744	729861.3299401244
0.7570064663887024	715238.4133729411
0.7594954967498779	649144.5850400866
0.7620013952255249	497010.267518486
0.7645244002342224	276389.4148097165
0.7670646905899048	110825.2203491873
0.7696225643157959	104615.37089353662
0.7721980810165405	284217.57447734784
0.7747915983200073	574903.0263273437
0.7774031162261963	787229.4898177598
0.7800329327583313	880299.1797817862
0.7826811671257019	1003060.3435641319
0.7853479981422424	1147152.3353550497
0.7880334854125977	1239050.201237504
0.7907378077507019	1289229.0208154744
0.7934610247612	1273862.2519248782
0.7962033748626709	1286345.0597173842
0.7989648580551147	1387178.455116032
0.801745593547821	1474086.2673552956
0.8045456409454346	1526407.3642569468
0.8073651194572449	1582078.1417432446
0.8102040886878967	1642205.640782103
0.8130625486373901	1701790.4320296177
0.8159406185150146	1759809.6337007706
0.8188382983207703	1817078.2978471161
0.8217556476593018	1874013.9412533117
0.8246926665306091	1932210.8340026115
0.8276493549346924	1991924.6310373305
0.8306257724761963	2052842.0285216789
0.8336219191551208	2115418.972603381
0.8366377949714661	2179737.393914332
0.8396733403205872	2245369.2135361754
0.8427285552024841	2312574.475511977
0.8458034992218018	2381596.4181837165
0.8488980531692505	2449987.781527793
0.8520121574401855	2509320.523873112
0.8551458716392517	2563047.01560591
0.8582990765571594	2615595.519628006
0.8614717125892639	2662216.658375066
0.8646637797355652	2717011.052754482
0.8678751587867737	2793945.763908853
0.8711057901382446	2893049.978103558
0.8743556141853333	3005426.9672951717
0.87762451171875	3119946.722464657
0.8809124231338501	3232849.16253605
0.8842192888259888	3343951.096914488
0.8875449895858765	3453613.9479289097
0.8908893465995789	3558201.5146896206
0.894252359867096	3659555.8801993174
0.8976338505744934	3763912.9692713413
0.9010337591171265	3875779.0204641796
0.9044519662857056	3992958.1330492445
0.9078882932662964	4108951.2207727325
0.9113426208496094	4224653.972979696
0.914814829826355	4341610.147833513
0.9183048605918884	4461129.4411153495
0.9218124747276306	4580986.0367022
0.925337553024292	4678002.306333345
0.9288799166679382	4746093.597845544
0.9324395060539246	4821425.763473165
0.9360161423683167	4952082.151105468
0.9396095871925354	5151708.339300274
0.943219780921936	5342044.018912279
0.9468464851379395	5472225.665728534
0.9504896402359009	5600130.696892578
0.9541489481925964	5752889.449378723
0.9578243494033813	5905502.750849992
0.9615156054496765	6062943.635472374
0.9652225375175476	6245161.276647487
0.9689450263977051	6434134.374701279
0.9726828336715698	6609469.668822082
0.9764357805252075	6784417.08449626
0.9802037477493286	6968760.094607956
0.983986496925354	7156007.373215249
0.9877838492393494	7341895.758045766
0.9915955662727356	7533052.009361288
0.9954215884208679	7727498.606914577
0.9992615580558777	7916560.124787331
1.0031154155731201	8107963.328080618
1.0069829225540161	8310373.736045078
1.0108637809753418	8519124.865250828
1.0147579908370972	8730008.87857406
1.018665075302124	8942961.061052414
1.022585153579712	9158414.742683787
1.0265177488327026	9377109.986688828
1.0304628610610962	9599286.528571628
1.0344202518463135	9825509.187441057
1.0383895635604858	10055476.523996377
1.0423706769943237	10287000.382134054
1.0463634729385376	10518231.611477708
1.0503677129745483	10751436.488191444
1.0543830394744873	10989391.817835761
1.058409333229065	11235359.619740672
1.0624464750289917	11497003.790689103
1.0664942264556885	11766381.902394418
1.0705522298812866	12030417.660016844
1.0746204853057861	12293657.47318215
1.0786986351013184	12560346.140551176
1.0827864408493042	12829043.05868633
1.086883783340454	13092488.51458154
1.0909905433654785	13339034.738681031
1.0951062440872192	13555148.212561917
1.0992310047149658	13744703.81517731
1.10336434841156	13956869.385299481
1.1075061559677124	14200540.77249716
1.1116561889648438	14373024.622555805
1.115814208984375	14446369.862365864
1.1199802160263062	14540533.430455761
1.124153733253479	14827737.387429422
1.1283347606658936	15322746.144079605
1.1325229406356812	15698892.583468776
1.1367181539535522	16003345.33492308
1.1409201622009277	16417259.845195957
1.145128846168518	16707430.760098994
1.1493438482284546	16942675.004876126
1.1535650491714478	17297619.975861963
1.1577922105789185	17641155.17508218
1.1620250940322876	17939657.581944223
1.1662636995315552	18290415.51727789
1.170507550239563	18642517.518652804
1.174756646156311	19007697.437360805
1.1790107488632202	19459749.748377133
1.1832695007324219	19911462.33766113
1.1875330209732056	20317539.567203086
1.191800832748413	20728519.953261476
1.1960728168487549	21126183.008096207
1.2003488540649414	21511338.18231833
1.2046287059783936	21904912.738011066
1.2089121341705322	22281871.823386088
1.2131990194320679	22645392.13336302
1.2174891233444214	23017194.186660945
1.2217823266983032	23397320.121993735
1.2260783910751343	23776325.65464555
1.230377197265625	24156515.079173043
1.2346785068511963	24542704.353010334
1.238982081413269	24926876.36939517
1.2432878017425537	25305048.259377796
1.2475954294204712	25682698.81488688
1.2519049644470215	26057539.592665788
1.256216049194336	26442324.752384204
1.2605286836624146	26836835.13459657
1.2648425102233887	27223265.82668132
1.2691574096679688	27602639.615672097
1.2734732627868652	27981720.03694535
1.2777899503707886	28360940.38054372
1.2821072340011597	28732422.44259736
1.2864248752593994	29104976.696418095
1.2907428741455078	29462597.84738403
1.2950609922409058	29804143.800543353
1.2993791103363037	30196007.62978058
1.303696870803833	30632514.534426603
1.3080145120620728	31044393.832701497
1.3123314380645752	31406269.584536314
1.3166478872299194	31742938.708658084
1.3209635019302368	32048022.02566127
1.3252781629562378	32286522.57337525
1.3295916318893433	32113244.663398135
1.3339040279388428	30781051.225982074
1.3382149934768677	28800452.990827825
1.3425244092941284	27399440.580936637
1.3468321561813354	26380936.857436985
1.3511382341384888	25337214.669432916
1.3554422855377197	24853927.779512983
1.3597444295883179	25269672.090153836
1.3640443086624146	26237053.796572756
1.3683418035507202	27771925.146299116
1.3726370334625244	29608482.796155695
1.3769296407699585	31081335.894360963
1.381219506263733	31532884.54040968
1.3855066299438477	30970607.325803276
1.3897908926010132	30062206.56725064
1.3940720558166504	29454628.96053139
1.3983501195907593	29918776.80377907
1.4026249647140503	30726470.37516388
1.4068963527679443	31257015.680188496
1.4111642837524414	31722727.20626365
1.4154287576675415	31131447.884268474
1.419689416885376	29920340.86051331
1.4239463806152344	29743092.259648032
1.4281994104385376	30843646.890301317
1.4324485063552856	32801643.743415788
1.436693549156189	34063027.600167274
1.440934419631958	34576838.427084565
1.4451709985733032	35479832.267192684
1.449403166770935	36386641.937834285
1.453631043434143	37514824.195661046
1.4578542709350586	39033621.173294604
1.4620729684829712	39795065.73577015
1.4662868976593018	39984636.343086295
1.4704961776733398	40733941.40933597
1.4747005701065063	41659025.413696885
1.4788999557495117	42448841.18387385
1.4830944538116455	43132352.66339803
1.4872838258743286	43597792.76995496
1.491468071937561	44060662.3665759
1.4956470727920532	44661047.41044075
1.4998208284378052	45271208.90180956
1.5039892196655273	46106848.075581245
1.5081522464752197	47062485.83326263
1.5123097896575928	47835686.78024557
1.5164618492126465	48571892.57457125
1.5206083059310913	49295369.94808481
1.5247491598129272	49790053.099470906
1.5288842916488647	50055578.897028774
1.5330137014389038	50551803.71963154
1.5371372699737549	51310330.148433216
1.541254997253418	51929123.58948113
1.545366883277893	52401857.51367911
1.5494728088378906	52893704.90650396
1.5535727739334106	53372813.29564112
1.5576666593551636	53803012.369830556
1.561754584312439	54221539.07183723
1.5658363103866577	54652794.80011143
1.5699119567871094	55063166.441004075
1.5739814043045044	55474611.02144522
1.5780447721481323	55927565.47177432
1.582101821899414	56362750.800491445
1.5861525535583496	56756480.33129235
1.5901970863342285	57144500.877920836
1.5942351818084717	57531357.95446726
1.5982669591903687	57898816.998736404
1.6022924184799194	58252063.4961162
1.606311559677124	58595744.32634949
1.6103241443634033	58934221.15632152
1.6143304109573364	59284672.39450843
1.6183301210403442	59615924.69701202
1.6223233938217163	59791263.89223891
1.6263102293014526	59797354.33449632
1.6302905082702637	59780259.09251337
1.634264349937439	59886222.986596204
1.638231635093689	60533026.31658725
1.6421923637390137	61360665.53342234
1.646146535873413	61807592.86709443
1.6500942707061768	62126661.77792816
1.6540353298187256	62360305.359167695
1.6579699516296387	62585174.46554933
1.661897897720337	62599374.352415025
1.6658192873001099	62125495.68549414
1.6697341203689575	62400124.17327503
1.6736423969268799	63448700.856845416
1.677544116973877	63937374.866867915
1.6814392805099487	64205415.90136219
1.6853278875350952	64625891.673437595
1.6892099380493164	64889537.19599803
1.6930854320526123	64999686.079515606
1.696954369544983	65100744.998338714
1.7008168697357178	65222035.85133511
1.7046726942062378	65467669.39547325
1.708522081375122	65920391.647751994
1.712364912033081	66379976.558854274
1.7162011861801147	66561747.25643384
1.7200311422348022	66574083.720824294
1.723854422569275	66426002.36458555
1.7276713848114014	66001345.38914472
1.731481909751892	65646992.74153225
1.7352858781814575	65452157.920971274
1.7390835285186768	65270893.05863194
1.7428747415542603	65316554.57580694
1.7466596364974976	65662716.45806548
1.7504380941390991	65452527.95177126
1.7542102336883545	64346691.28989772
1.7579760551452637	63593161.372061886
1.7617355585098267	63423929.66094891
1.7654887437820435	62308281.193868235
1.7692357301712036	60799017.38381461
1.7729763984680176	60362018.5551596
1.776710867881775	60138818.0815156
1.7804391384124756	59423262.73195614
1.7841613292694092	58167382.51639492
1.7878772020339966	56327297.41455069
1.7915871143341064	54714856.56565664
1.7952908277511597	54039949.24325748
1.7989884614944458	52758610.05682231
1.8026801347732544	51486021.42408576
1.806365728378296	50864605.88337882
1.8100452423095703	50747579.83720281
1.8137187957763672	52923624.09535828
1.817386507987976	54379628.56192296
1.8210482597351074	54574444.098462164
1.8247040510177612	56018637.09033286
1.828354001045227	56164085.00847786
1.8319982290267944	56269404.77147134
1.8356364965438843	56944605.777728125
1.8392690420150757	55548327.058262475
1.8428958654403687	53750142.25235747
1.8465168476104736	51891486.67743165
1.8501322269439697	51356964.436383575
1.8537418842315674	50883042.42535221
1.8573459386825562	48228853.05905321
1.860944390296936	46667993.704112254
1.864537239074707	47140760.10676439
1.8681244850158691	48206201.46018208
1.871706247329712	49297905.40475819
1.8752825260162354	52139555.329891816
1.8788533210754395	56556144.9128916
1.8824186325073242	58997044.12110651
1.8859784603118896	59925399.19156315
1.8895330429077148	61649765.020595975
1.8930821418762207	63255485.37010767
1.8966259956359863	63478092.962362856
1.9001644849777222	62443402.14895648
1.9036977291107178	62312419.5667039
1.9072256088256836	63356585.89660598
1.9107483625411987	62964250.94348688
1.9142658710479736	62599059.19295693
1.9177782535552979	62259652.497153714
1.9212853908538818	59519639.402018495
1.9247875213623047	59109580.55955611
1.9282845258712769	61102930.64683558
1.9317764043807983	60245966.52573062
1.9352631568908691	57546179.84034477
1.9387450218200684	54226923.473203614
1.942221760749817	52803636.46066251
1.9456936120986938	54081435.13548543
1.9491604566574097	55846975.23696363
1.952622413635254	55739000.562999316
1.956079363822937	52887291.778704286
1.959531545639038	52757327.983193226
1.962978720664978	57356152.60970831
1.966421127319336	61545346.26807735
1.9698586463928223	61676064.88774372
1.9732913970947266	60291697.919667624
1.9767193794250488	61187418.349438824
1.9801424741744995	63501215.66474458
1.9835609197616577	65526010.70858249
1.9869745969772339	65076011.57991573
1.990383505821228	62773277.25031779
1.9937876462936401	64445502.6108441
1.9971871376037598	66704349.91421788
2.000581979751587	66676949.08514694
2.003972291946411	68223728.11564162
2.007357597351074	69644814.40425043
2.0107386112213135	70827888.88963765
2.0141148567199707	72261190.23660299
2.017486572265625	72490350.39802007
2.0208535194396973	73761419.01866643
2.0242159366607666	75492813.42485729
2.027573823928833	74667891.85132672
2.0309269428253174	74367702.80446653
2.034275770187378	76214864.94320875
2.0376198291778564	77341305.34813502
2.040959596633911	77453620.6743005
2.044294595718384	78048052.38706057
2.0476250648498535	78836647.75026168
2.0509510040283203	79465604.58121027
2.054272413253784	80352316.08327237
2.057589530944824	81276989.90229107
2.0609018802642822	81461976.0158602
2.0642096996307373	81185721.00288965
2.0675129890441895	81700014.31057474
2.0708119869232178	82488358.91865006
2.074106216430664	82793807.26100603
2.0773961544036865	82628590.30642703
2.080681324005127	82296401.9777931
2.0839622020721436	82491261.5622201
2.087238311767578	83107030.80789883
2.090510129928589	83738495.76985514
2.0937774181365967	84185879.61917727
2.0970399379730225	84337062.7593853
2.1002981662750244	84429462.84074594
2.1035518646240234	84613304.35558231
2.1068007946014404	84799927.89964066
2.1100454330444336	84765948.41994323
2.1132853031158447	84726678.91871746
2.116520881652832	84946216.47927596
2.1197516918182373	85260704.6443228
2.1229779720306396	85402386.13768655
2.12619948387146	85414896.87853439
2.1294167041778564	85552347.65657732
2.132629156112671	85752275.64397463
2.1358368396759033	85849103.11175388
2.139039993286133	85846549.06940304
2.1422386169433594	85861532.28155664
2.145432472229004	85827447.35740216
2.1486217975616455	85739653.74186812
2.151806354522705	85802460.40565279
2.1549863815307617	85859657.99712454
2.1581614017486572	85987743.70094751
2.16133189201355	86221779.50066812
2.1644976139068604	86293629.58482912
2.167658567428589	86300290.64757657
2.1708147525787354	86265478.56685293
2.173966407775879	86198893.71157447
2.1771130561828613	86273369.69639541
2.1802549362182617	86412588.83077249
2.183391809463501	86356583.17611368
2.1865241527557373	86281931.40698883
2.1896514892578125	86417842.1304417
2.1927738189697266	86477222.2210549
2.1958916187286377	86212141.68550494
2.1990041732788086	85650128.2237634
2.2021119594573975	85364689.40510903
2.2052149772644043	85810783.88846883
2.208312749862671	86428033.15657267
2.2114057540893555	86660003.97610031
2.214493751525879	86476046.3862955
2.217576742172241	85557477.46109666
2.2206547260284424	84175174.22156888
2.2237277030944824	83743549.63850395
2.2267956733703613	83884963.11886522
2.2298583984375	83774546.64547294
2.2329163551330566	83798992.03093573
2.235969066619873	83850926.73108023
2.2390167713165283	84221530.44933029
2.2420592308044434	84191197.00095646
2.2450966835021973	83423259.92657404
2.248128890991211	83477224.17759478
2.2511560916900635	83629921.68357857
2.254178285598755	82751157.85573319
2.257194995880127	82840261.56997637
2.260206699371338	84194759.62547193
2.2632133960723877	84490733.56118816
2.266214609146118	83870261.88766003
2.2692108154296875	83710596.41031359
2.2722020149230957	84353069.7140451
2.2751877307891846	84763189.0827525
2.278168201446533	83952925.06504877
2.2811436653137207	83124172.81539972
2.284113883972168	82879563.83557478
2.287078857421875	82484757.42423145
2.290038824081421	81671740.54916663
2.2929933071136475	79107661.17484412
2.295942783355713	76549785.30036615
2.298887014389038	76845266.39946432
2.301826238632202	76954372.42925283
2.304760217666626	75335599.93211068
2.3076889514923096	75675672.49613689
2.310612440109253	78113004.30359083
2.3135311603546143	78237097.30552228
2.3164443969726562	75615644.56225687
2.319352865219116	73860875.8602044
2.322256088256836	73299511.1695532
2.3251543045043945	73509856.31750372
2.328047275543213	75515258.24129695
2.330935478210449	77304726.23604664
2.3338186740875244	76779982.07216582
2.3366971015930176	74840050.4424477
2.3395702838897705	74396681.5763015
2.3424389362335205	74955622.98390092
2.3453025817871094	73750905.17121091
2.348161458969116	72604855.48567829
2.351015567779541	71518957.44910526
2.353865146636963	71697017.60625333
2.3567099571228027	74402958.79510379
2.3595502376556396	75617268.21535961
2.3623859882354736	75898703.94100071
2.3652172088623047	76325991.87235488
2.368043899536133	73833766.21415508
2.370866537094116	70327115.26017919
2.3736846446990967	70811554.98381914
2.3764986991882324	72558807.48080665
2.3793084621429443	72509282.85514085
2.3821144104003906	72996237.62511982
2.384916305541992	74041536.30825493
2.387714147567749	74988739.57342955
2.3905084133148193	75091319.63379388
2.393299102783203	72882335.04585506
2.3960859775543213	71609985.80022289
2.398869514465332	72619281.17157154
2.4016497135162354	72432655.11427432
2.4044265747070312	71622278.18942885
2.407200336456299	71717840.88183169
2.409970998764038	71992988.29959491
2.4127390384674072	72244521.65204337
2.415503978729248	71107992.7267565
2.418266534805298	68673036.83486494
2.4210267066955566	68456379.47286728
2.4237842559814453	70233635.25277753
2.426539897918701	70775717.74874544
2.429293394088745	70357798.33224916
2.4320452213287354	68332579.88402241
2.4347951412200928	62920045.542188175
2.4375438690185547	61255933.645368
2.440291166305542	64139274.608632945
2.443037271499634	62969024.85891536
2.445782423019409	60771210.0655673
2.4485268592834473	62090176.32498526
2.451270818710327	59844204.375220776
2.454014539718628	55720791.20931333
2.4567582607269287	59155349.39166901
2.4595019817352295	60292625.88629046
2.4622461795806885	59382698.14007941
2.4649908542633057	59585961.890202865
2.4677364826202393	53269406.02506419
2.4704833030700684	49042783.44439549
2.473231554031372	47053898.11693554
2.4759814739227295	46682308.52260777
2.4787333011627197	49944385.61552689
2.481487512588501	50365571.91208236
2.4842441082000732	52015552.34991376
2.4870035648345947	50641349.5130884
