#wavelength	surface flux
0.6450077295303345	513.0474922366034
0.6472567915916443	780.7787356454568
0.6494921445846558	957.1858103061845
0.6517150402069092	1022.5308362252971
0.6539263725280762	1084.369858675643
0.6561272740364075	1149.2610017612221
0.6583186388015747	1217.356307716889
0.6605015397071838	1288.8195824249979
0.6626768708229065	1363.5057234442193
0.6648455858230591	1441.5166244349805
0.6670085787773132	1522.646119831902
0.6691668033599854	1604.4571091981047
0.6713210344314575	1690.4212863233058
0.6734722256660461	1787.0392256434702
0.6756211519241333	1888.7569077200635
0.6777685880661011	1991.5101986020916
0.6799154281616211	2098.4170512414607
0.6820623278617859	2209.9351190731304
0.6842101216316223	2326.0774436044517
0.6863595843315125	2446.440457331231
0.688511312007904	2570.890154721432
0.6906660795211792	2701.789615799692
0.6928245425224304	2841.464911517483
0.6949873566627502	2989.033877817684
0.6971551775932312	3141.7174605620094
0.6993286609649658	3302.2639463807527
0.7015084028244019	3475.6240650411064
0.7036949396133423	3657.0427862361707
0.7058889269828796	3842.85777100721
0.7080909013748169	4035.7812462655934
0.710301399230957	4237.667401882429
0.712520956993103	4449.029584245592
0.7147500514984131	4668.524266589106
0.7169892191886902	4897.754306690407
0.7192389369010925	5141.412057941528
0.7214996814727783	5397.729659366864
0.723771870136261	5664.546417264175
0.7260559797286987	5943.780128396095
0.7283523678779602	6235.061692300255
0.7306615710258484	6538.589327897822
0.7329838871955872	6852.200692564648
0.7353196740150452	7176.43557027864
0.7376693487167358	7520.107604130215
0.7400332689285278	7882.03054747349
0.7424117922782898	8259.775606930141
0.7448052167892456	8659.933395307398
0.7472138404846191	9088.223162480528
0.7496379613876343	9542.146442488629
0.7520779371261597	10014.16854826251
0.7545340061187744	10505.689440250992
0.7570064663887024	11016.47341298195
0.7594954967498779	11538.542249648759
0.7620013952255249	11973.038629283166
0.7645244002342224	11972.614158543527
0.7670646905899048	11782.961314379032
0.7696225643157959	12321.699175129801
0.7721980810165405	13698.462081045633
0.7747915983200073	15088.583584708862
0.7774031162261963	16022.74078478048
0.7800329327583313	16765.36314566117
0.7826811671257019	17601.240773818427
0.7853479981422424	18508.65467559961
0.7880334854125977	19411.105489239282
0.7907378077507019	20314.322660436523
0.7934610247612	21196.16139883018
0.7962033748626709	22181.33973145952
0.7989648580551147	23332.440767380143
0.801745593547821	24506.119305073746
0.8045456409454346	25683.195784250354
0.8073651194572449	26909.371144174696
0.8102040886878967	28182.71082836574
0.8130625486373901	29516.461830124506
0.8159406185150146	30922.486803248554
0.8188382983207703	32394.08521343624
0.8217556476593018	33924.52288441043
0.8246926665306091	35526.13719517957
0.8276493549346924	37213.91400651865
0.8306257724761963	38980.69927288067
0.8336219191551208	40823.629183640456
0.8366377949714661	42743.80692096361
0.8396733403205872	44745.044787658524
0.8427285552024841	46836.14874857988
0.8458034992218018	49016.26450521378
0.8488980531692505	51299.208627702326
0.8520121574401855	53683.310869406436
0.8551458716392517	56162.66758714004
0.8582990765571594	58746.64978809672
0.8614717125892639	61431.399299339755
0.8646637797355652	64233.935596132884
0.8678751587867737	67185.06126542801
0.8711057901382446	70284.34002979653
0.8743556141853333	73519.56385907353
0.87762451171875	76889.24090522683
0.8809124231338501	80386.19253859192
0.8842192888259888	84018.74103489562
0.8875449895858765	87784.52822767512
0.8908893465995789	91640.9089511694
0.894252359867096	95598.05708990137
0.8976338505744934	99729.6368500373
0.9010337591171265	104233.0341688751
0.9044519662857056	109068.63963082481
0.9078882932662964	113973.08974612123
0.9113426208496094	118961.41380495041
0.914814829826355	124093.3545200239
0.9183048605918884	129420.19349356873
0.9218124747276306	134929.20189527792
0.925337553024292	140056.71453773224
0.9288799166679382	144410.68476645273
0.9324395060539246	148342.4849040968
0.9360161423683167	153824.0412937106
0.9396095871925354	162782.11165086192
0.943219780921936	171993.76692205606
0.9468464851379395	178577.11303279747
0.9504896402359009	185237.82213048154
0.9541489481925964	193250.42871840674
0.9578243494033813	201381.86555343255
0.9615156054496765	209882.6646841703
0.9652225375175476	219668.8918767454
0.9689450263977051	229840.8294791353
0.9726828336715698	239383.88913395323
0.9764357805252075	249107.28675613378
0.9802037477493286	259440.3703012661
0.983986496925354	270004.1483608215
0.9877838492393494	280741.117761006
0.9915955662727356	291996.2299408747
0.9954215884208679	303728.7971178682
0.9992615580558777	315634.56874515227
1.0031154155731201	327768.1002880453
1.0069829225540161	340330.0379029663
1.0108637809753418	353344.91313037596
1.0147579908370972	366774.8454852965
1.018665075302124	380620.5326474612
1.022585153579712	394874.43542537285
1.0265177488327026	409557.67166817316
1.0304628610610962	424679.2648446244
1.0344202518463135	440254.8936854758
1.0383895635604858	456292.8589862805
1.0423706769943237	472788.1040406818
1.0463634729385376	489743.9766615299
1.0503677129745483	507187.7383067754
1.0543830394744873	525144.0273921032
1.058409333229065	543713.0814684898
1.0624464750289917	563164.5334186294
1.0664942264556885	583244.3876865898
1.0705522298812866	603542.2526654586
1.0746204853057861	624209.6000023406
1.0786986351013184	645412.9381028768
1.0827864408493042	667188.5105700921
1.086883783340454	689305.143337753
1.0909905433654785	711312.7740791803
1.0951062440872192	732274.4814492151
1.0992310047149658	752304.4373651546
1.10336434841156	775337.1134637529
1.1075061559677124	801962.1100209986
1.1116561889648438	821814.5594941298
1.115814208984375	830573.7912650475
1.1199802160263062	839855.249348068
1.124153733253479	864129.4423889518
1.1283347606658936	906369.0801811873
1.1325229406356812	944761.505760183
1.1367181539535522	975039.1655802354
1.1409201622009277	1008532.2322955792
1.145128846168518	1034600.3118760096
1.1493438482284546	1061241.282468757
1.1535650491714478	1101445.61605285
1.1577922105789185	1137749.5105646004
1.1620250940322876	1165079.0549144053
1.1662636995315552	1199320.5262965218
1.170507550239563	1237565.3777112023
1.174756646156311	1277552.2252678312
1.1790107488632202	1323027.4036560785
1.1832695007324219	1365239.9535061694
1.1875330209732056	1405593.3338552169
1.191800832748413	1448564.979341539
1.1960728168487549	1489296.3573654797
1.2003488540649414	1529348.2517268967
1.2046287059783936	1572155.7958712035
1.2089121341705322	1615222.6551226145
1.2131990194320679	1657567.340301138
1.2174891233444214	1701237.5624471514
1.2217823266983032	1746247.3112221877
1.2260783910751343	1791482.4963888116
1.230377197265625	1837316.1163810897
1.2346785068511963	1884408.6876080225
1.238982081413269	1932364.3580370988
1.2432878017425537	1980641.4642934457
1.2475954294204712	2029409.1162699095
1.2519049644470215	2078558.623960477
1.256216049194336	2128663.2935888264
1.2605286836624146	2180099.874883528
1.2648425102233887	2231992.096009162
1.2691574096679688	2283953.238480494
1.2734732627868652	2336805.741325052
1.2777899503707886	2390662.506713059
1.2821072340011597	2444368.359628365
1.2864248752593994	2498331.141270718
1.2907428741455078	2550758.481274722
1.2950609922409058	2602120.357811547
1.2993791103363037	2660367.6153224534
1.303696870803833	2724027.712049982
1.3080145120620728	2785167.5307816435
1.3123314380645752	2843116.815326421
1.3166478872299194	2898205.524282442
1.3209635019302368	2948107.932027017
1.3252781629562378	3002168.4289051904
1.3295916318893433	3047249.9182398813
1.3339040279388428	3025906.7130812346
1.3382149934768677	2956463.5602081753
1.3425244092941284	2901539.8134843023
1.3468321561813354	2871409.7535003405
1.3511382341384888	2814939.6356062857
1.3554422855377197	2774403.680923156
1.3597444295883179	2841843.820024335
1.3640443086624146	2943033.151586827
1.3683418035507202	3052296.5961724212
1.3726370334625244	3200347.1345577408
1.3769296407699585	3375653.5154966996
1.381219506263733	3499905.0036462583
1.3855066299438477	3484676.5040051714
1.3897908926010132	3427476.532460228
1.3940720558166504	3439572.5946313282
1.3983501195907593	3531860.7192482823
1.4026249647140503	3608444.126085273
1.4068963527679443	3681912.9254310937
1.4111642837524414	3782798.9780035266
1.4154287576675415	3717539.104747435
1.419689416885376	3579951.21891013
1.4239463806152344	3595114.5149772433
1.4281994104385376	3760138.6996607683
1.4324485063552856	4059797.6826378363
1.436693549156189	4266353.578840091
1.440934419631958	4329379.017292667
1.4451709985733032	4460602.558044783
1.449403166770935	4592118.934384799
1.453631043434143	4692966.905140549
1.4578542709350586	4850409.42646596
1.4620729684829712	4953362.945164425
1.4662868976593018	4985240.501144411
1.4704961776733398	5090063.338870655
1.4747005701065063	5231466.492739616
1.4788999557495117	5372135.957289357
1.4830944538116455	5485543.52271214
1.4872838258743286	5540990.201560201
1.491468071937561	5600222.074627659
1.4956470727920532	5695422.362558188
1.4998208284378052	5810207.731080112
1.5039892196655273	5973191.494068517
1.5081522464752197	6134805.613087392
1.5123097896575928	6249830.589862395
1.5164618492126465	6365373.818417341
1.5206083059310913	6480885.562254102
1.5247491598129272	6569019.221622851
1.5288842916488647	6633894.71617736
1.5330137014389038	6736666.787146797
1.5371372699737549	6878194.288418096
1.541254997253418	7002631.966728733
1.545366883277893	7104017.564094227
1.5494728088378906	7202133.057665207
1.5535727739334106	7297763.029237456
1.5576666593551636	7382966.316721639
1.561754584312439	7468480.595685162
1.5658363103866577	7572259.793928993
1.5699119567871094	7677167.002091382
1.5739814043045044	7775217.73955689
1.5780447721481323	7878610.470741496
1.582101821899414	7981485.2274361225
1.5861525535583496	8082188.747064539
1.5901970863342285	8181953.379759779
1.5942351818084717	8280207.777328718
1.5982669591903687	8377149.166776888
1.6022924184799194	8473188.966672044
1.606311559677124	8569643.81995812
1.6103241443634033	8667232.863385458
1.6143304109573364	8765990.293636935
1.6183301210403442	8863039.26778067
1.6223233938217163	8948458.868914098
1.6263102293014526	9021674.794953978
1.6302905082702637	9089762.985198021
1.634264349937439	9162746.093826195
1.638231635093689	9285680.710503655
1.6421923637390137	9426953.354719475
1.646146535873413	9535716.356272511
1.6500942707061768	9638248.60798944
1.6540353298187256	9733420.694956245
1.6579699516296387	9822821.650971657
1.661897897720337	9888713.407543505
1.6658192873001099	9915202.132209945
1.6697341203689575	10017957.156159548
1.6736423969268799	10183022.316696841
1.677544116973877	10287538.289367637
1.6814392805099487	10380726.60970164
1.6853278875350952	10499482.066790564
1.6892099380493164	10604506.133082649
1.6930854320526123	10687385.026863968
1.696954369544983	10770038.70404706
1.7008168697357178	10859989.539040543
1.7046726942062378	10953104.668828178
1.708522081375122	11070329.201074706
1.712364912033081	11200085.2152647
1.7162011861801147	11300023.421774777
1.7200311422348022	11371213.635789368
1.723854422569275	11404692.09315107
1.7276713848114014	11385852.729672732
1.731481909751892	11368195.001553442
1.7352858781814575	11414978.861180738
1.7390835285186768	11521835.167378109
1.7428747415542603	11661486.175867276
1.7466596364974976	11857046.768860815
1.7504380941390991	11968726.499375377
1.7542102336883545	11921150.692820333
1.7579760551452637	11962399.76605197
1.7617355585098267	12042131.714291826
1.7654887437820435	11906653.236988889
1.7692357301712036	11771320.033973956
1.7729763984680176	11856093.870769903
1.776710867881775	11985772.670449298
1.7804391384124756	12058363.209454175
1.7841613292694092	12091073.182547681
1.7878772020339966	11837846.010477634
1.7915871143341064	11455040.872948935
1.7952908277511597	11391702.525101786
1.7989884614944458	11302490.65578282
1.8026801347732544	11255387.850234145
1.806365728378296	11219632.563515276
1.8100452423095703	11202451.812206898
1.8137187957763672	11676045.941546723
1.817386507987976	12126384.756342383
1.8210482597351074	12435664.694979748
1.8247040510177612	12663758.180269225
1.828354001045227	12545483.689889517
1.8319982290267944	12725814.210559636
1.8356364965438843	13217638.844398366
1.8392690420150757	13131479.654104574
1.8428958654403687	12617603.257914437
1.8465168476104736	12246133.31098807
1.8501322269439697	12447579.397660471
1.8537418842315674	12614614.618548611
1.8573459386825562	12205986.077592017
1.860944390296936	11885952.21815743
1.864537239074707	11927474.446168896
1.8681244850158691	12089418.443468804
1.871706247329712	12189558.116008757
1.8752825260162354	12556781.890098954
1.8788533210754395	13266568.745547278
1.8824186325073242	13623760.021396741
1.8859784603118896	13789192.262900077
1.8895330429077148	14267205.701354524
1.8930821418762207	14593038.46291006
1.8966259956359863	14626524.370968787
1.9001644849777222	14448953.564084398
1.9036977291107178	14517248.949623875
1.9072256088256836	14843746.02366749
1.9107483625411987	14772459.874839904
1.9142658710479736	14862071.801639874
1.9177782535552979	14872680.579909807
1.9212853908538818	14246623.206785163
1.9247875213623047	14273835.853012826
1.9282845258712769	14982967.27927059
1.9317764043807983	15147529.179039057
1.9352631568908691	14887618.751371387
1.9387450218200684	14382294.984223647
1.942221760749817	13742391.396663925
1.9456936120986938	13430958.921157615
1.9491604566574097	13759307.193056103
1.952622413635254	14201054.120093808
1.956079363822937	13851199.722613296
1.959531545639038	13733239.066799395
1.962978720664978	14935522.136364833
1.966421127319336	16152249.411107661
1.9698586463928223	16400912.061290154
1.9732913970947266	16256301.208690817
1.9767193794250488	16276436.430605093
1.9801424741744995	16739999.1637714
1.9835609197616577	17135977.779426575
1.9869745969772339	16877963.532337654
1.990383505821228	16515173.89614014
1.9937876462936401	16888749.729688704
1.9971871376037598	17205212.307321835
2.000581979751587	16871034.990706824
2.003972291946411	16953651.24023789
2.007357597351074	17646180.21145521
2.0107386112213135	18285742.604203474
2.0141148567199707	18433428.65042727
2.017486572265625	18415766.72942055
2.0208535194396973	18736670.45582682
2.0242159366607666	18889633.159335718
2.027573823928833	18545639.1331082
2.0309269428253174	18431594.070750903
2.034275770187378	18826017.45568834
2.0376198291778564	19110090.128803324
2.040959596633911	19169893.413785335
2.044294595718384	19448493.33097215
2.0476250648498535	19765514.657752633
2.0509510040283203	19923309.072497424
2.054272413253784	20113806.799307156
2.057589530944824	20291042.357434224
2.0609018802642822	20394572.625045232
2.0642096996307373	20496317.261346184
2.0675129890441895	20652363.026541084
2.0708119869232178	20816053.761383448
2.074106216430664	20964418.730866488
2.0773961544036865	21017302.273016755
2.080681324005127	20975223.269434024
2.0839622020721436	21044940.124253232
2.087238311767578	21215566.732809212
2.090510129928589	21390641.72841127
2.0937774181365967	21557926.6949266
2.0970399379730225	21665033.309080176
2.1002981662750244	21751965.668815114
2.1035518646240234	21858402.730883893
2.1068007946014404	21950351.475197308
2.1100454330444336	21995053.44231792
2.1132853031158447	22042888.087218896
2.116520881652832	22149228.145413294
2.1197516918182373	22284061.90108854
2.1229779720306396	22383188.00364471
2.12619948387146	22454901.327706326
2.1294167041778564	22553667.173690017
2.132629156112671	22663948.739814524
2.1358368396759033	22753374.430928867
2.139039993286133	22825442.897712097
2.1422386169433594	22898286.234329313
2.145432472229004	22963046.70080817
2.1486217975616455	23024188.873510834
2.151806354522705	23104608.435713187
2.1549863815307617	23175592.11244895
2.1581614017486572	23265138.26915742
2.16133189201355	23377552.54350226
2.1644976139068604	23461325.994693257
2.167658567428589	23532659.6686921
2.1708147525787354	23595274.036791865
2.173966407775879	23657822.17017145
2.1771130561828613	23751664.06816609
2.1802549362182617	23847409.801223055
2.183391809463501	23901506.005251758
2.1865241527557373	23960291.104146317
2.1896514892578125	24058530.62667215
2.1927738189697266	24139735.647656653
2.1958916187286377	24164012.387676544
2.1990041732788086	24143761.88694006
2.2021119594573975	24177832.381706197
2.2052149772644043	24323686.50996442
2.208312749862671	24485065.280557077
2.2114057540893555	24592348.717715047
2.214493751525879	24632536.387829185
2.217576742172241	24513846.371729687
2.2206547260284424	24302070.527503774
2.2237277030944824	24305393.304703444
2.2267956733703613	24455775.84121953
2.2298583984375	24566376.829219196
2.2329163551330566	24649459.767926168
2.235969066619873	24689237.03610282
2.2390167713165283	24832868.049151503
2.2420592308044434	24933341.235647537
2.2450966835021973	24872684.18589574
2.248128890991211	24953193.783231225
2.2511560916900635	25024818.51004818
2.254178285598755	24863013.07681162
2.257194995880127	24914640.94841201
2.260206699371338	25290541.43320814
2.2632133960723877	25482539.864787094
2.266214609146118	25410329.502547454
2.2692108154296875	25329975.696884375
2.2722020149230957	25478862.663063645
2.2751877307891846	25705354.49137541
2.278168201446533	25661295.814078428
2.2811436653137207	25566095.340600304
2.284113883972168	25535825.29521406
2.287078857421875	25441807.54583197
2.290038824081421	25292652.31377167
2.2929933071136475	24487026.851586595
2.295942783355713	23777662.793964483
2.298887014389038	24242229.02195073
2.301826238632202	24416239.343135055
2.304760217666626	23882637.250474505
2.3076889514923096	24401901.055454336
2.310612440109253	25664443.639204856
2.3135311603546143	25783304.106871776
2.3164443969726562	25120443.03443905
2.319352865219116	24621894.13100844
2.322256088256836	23944476.009930156
2.3251543045043945	23537446.29311048
2.328047275543213	24082342.230985194
2.330935478210449	24801878.1814491
2.3338186740875244	25056635.087630548
2.3366971015930176	24840790.349232443
2.3395702838897705	24843070.534116786
2.3424389362335205	25176131.30092369
2.3453025817871094	24821431.208096225
2.348161458969116	24320882.06764269
2.351015567779541	23799713.081438657
2.353865146636963	23674568.9320905
2.3567099571228027	24596454.943383902
2.3595502376556396	25099548.3282753
2.3623859882354736	25112311.070457444
2.3652172088623047	25140916.53375187
2.368043899536133	24602435.794192854
2.370866537094116	24071131.757345986
2.3736846446990967	24314807.447122313
2.3764986991882324	24412627.931905124
2.3793084621429443	24125594.995688777
2.3821144104003906	24466788.159679115
2.384916305541992	25054299.567729674
2.387714147567749	25520777.517303117
2.3905084133148193	25454674.376458425
2.393299102783203	24611639.185707748
2.3960859775543213	24972184.610454153
2.398869514465332	25879525.92522459
2.4016497135162354	25422773.294749185
2.4044265747070312	25237913.780299682
2.407200336456299	25867108.639110595
2.409970998764038	26076959.39191558
2.4127390384674072	25888741.564572364
2.415503978729248	25757079.15236333
2.418266534805298	25785212.600722216
2.4210267066955566	25836841.969595663
2.4237842559814453	25876900.966630246
2.426539897918701	25877919.81524637
2.429293394088745	25733419.162664577
2.4320452213287354	24958413.882039748
2.4347951412200928	23292382.701071512
2.4375438690185547	23251688.872987382
2.440291166305542	24770022.312238365
2.443037271499634	24663714.370930657
2.445782423019409	24427623.3853581
2.4485268592834473	25376215.504560355
2.451270818710327	25253945.16242451
2.454014539718628	24353137.248203684
2.4567582607269287	24567301.365216047
2.4595019817352295	24706709.06499652
2.4622461795806885	24785203.73477271
2.4649908542633057	24795524.83672255
2.4677364826202393	23512799.957139026
2.4704833030700684	22783729.169738673
2.473231554031372	21946269.788091265
2.4759814739227295	21915047.724884447
