#wavelength	surface flux
0.6450077295303345	421.0321153090076
0.6472567915916443	641.5337083144466
0.6494921445846558	788.2239275647031
0.6517150402069092	844.231671080908
0.6539263725280762	897.6366943780258
0.6561272740364075	953.9658017153725
0.6583186388015747	1013.2116131878755
0.6605015397071838	1075.3515503891965
0.6626768708229065	1140.4583571898168
0.6648455858230591	1208.7466539434827
0.6670085787773132	1280.1614828183897
0.6691668033599854	1353.4185309071818
0.6713210344314575	1430.4433299929242
0.6734722256660461	1514.8179070514914
0.6756211519241333	1603.6340280162258
0.6777685880661011	1694.788890411306
0.6799154281616211	1790.0782753198407
0.6820623278617859	1889.9877171244593
0.6842101216316223	1994.7051629918076
0.6863595843315125	2104.2653921476476
0.688511312007904	2218.725635210233
0.6906660795211792	2338.257711290299
0.6928245425224304	2463.6477216748626
0.6949873566627502	2595.6518093387367
0.6971551775932312	2732.893041063341
0.6993286609649658	2878.0503263837263
0.7015084028244019	3035.3247346976723
0.7036949396133423	3200.0608463201015
0.7058889269828796	3369.3675078312963
0.7080909013748169	3545.670845149209
0.710301399230957	3730.912638159392
0.712520956993103	3925.461144713417
0.7147500514984131	4125.960099536744
0.7169892191886902	4334.990736538187
0.7192389369010925	4561.9256985644215
0.7214996814727783	4802.660623037513
0.723771870136261	5051.860021305627
0.7260559797286987	5312.81971876631
0.7283523678779602	5584.326889341704
0.7306615710258484	5867.938061534508
0.7329838871955872	6164.8706615632855
0.7353196740150452	6473.156382403616
0.7376693487167358	6801.056777323717
0.7400332689285278	7148.958383881185
0.7424117922782898	7511.296523480563
0.7448052167892456	7893.543076534176
0.7472138404846191	8299.5106222654
0.7496379613876343	8727.649480830476
0.7520779371261597	9173.671362754083
0.7545340061187744	9637.249217826258
0.7570064663887024	10114.9459525858
0.7594954967498779	10586.133161120335
0.7620013952255249	10864.888238620015
0.7645244002342224	10425.516801265683
0.7670646905899048	9697.840858147581
0.7696225643157959	10123.093862703265
0.7721980810165405	11922.953541686256
0.7747915983200073	13792.580981856416
0.7774031162261963	14880.205608630049
0.7800329327583313	15587.050447254986
0.7826811671257019	16444.307926096277
0.7853479981422424	17410.759519810235
0.7880334854125977	18322.401222380253
0.7907378077507019	19199.43172833193
0.7934610247612	20004.713045351775
0.7962033748626709	20959.8903723554
0.7989648580551147	22179.713651204624
0.801745593547821	23399.15775308979
0.8045456409454346	24577.323932342697
0.8073651194572449	25795.838916080575
0.8102040886878967	27048.548801077253
0.8130625486373901	28368.92601274132
0.8159406185150146	29785.4791986495
0.8188382983207703	31276.20002591214
0.8217556476593018	32819.1254304263
0.8246926665306091	34439.47148394209
0.8276493549346924	36168.14067160769
0.8306257724761963	37982.40868127988
0.8336219191551208	39873.09386358078
0.8366377949714661	41841.344106710196
0.8396733403205872	43890.6212186569
0.8427285552024841	46037.00671571351
0.8458034992218018	48274.40601424501
0.8488980531692505	50633.43256213833
0.8520121574401855	53118.45306840364
0.8551458716392517	55702.68685339636
0.8582990765571594	58386.96713321997
0.8614717125892639	61155.15344240119
0.8646637797355652	64051.838217297314
0.8678751587867737	67145.46803274083
0.8711057901382446	70397.30687615759
0.8743556141853333	73784.61462247894
0.87762451171875	77327.98507188846
0.8809124231338501	80999.06650979734
0.8842192888259888	84808.4297383869
0.8875449895858765	88745.74997079828
0.8908893465995789	92699.24405707794
0.894252359867096	96673.10540970854
0.8976338505744934	100839.26005011707
0.9010337591171265	105696.9334640478
0.9044519662857056	111142.00532970247
0.9078882932662964	116497.95518077562
0.9113426208496094	121790.6086947107
0.914814829826355	127162.14313836064
0.9183048605918884	132738.54556602004
0.9218124747276306	138503.6141665164
0.925337553024292	143133.73040074337
0.9288799166679382	145784.17827941067
0.9324395060539246	147452.44440026462
0.9360161423683167	152390.75840714623
0.9396095871925354	164445.1990359987
0.943219780921936	176582.0750412164
0.9468464851379395	182655.58180291386
0.9504896402359009	188764.68086775125
0.9541489481925964	197853.17397516532
0.9578243494033813	206828.73382628057
0.9615156054496765	216079.4054064157
0.9652225375175476	227839.3119906759
0.9689450263977051	240184.15451815038
0.9726828336715698	250789.6187172751
0.9764357805252075	261443.0527945939
0.9802037477493286	273192.3431163152
0.983986496925354	285096.77537687885
0.9877838492393494	296933.9907544934
0.9915955662727356	309547.69266998116
0.9954215884208679	322883.3883957027
0.9992615580558777	336262.7265048871
1.0031154155731201	349765.5011282829
1.0069829225540161	363693.30350574886
1.0108637809753418	378101.64739985246
1.0147579908370972	392969.5648147206
1.018665075302124	408301.48601899494
1.022585153579712	424084.78568235214
1.0265177488327026	440344.66884403373
1.0304628610610962	457070.7565563049
1.0344202518463135	474307.44772083743
1.0383895635604858	492081.3207135016
1.0423706769943237	510359.5405348113
1.0463634729385376	529141.529028178
1.0503677129745483	548468.6672171827
1.0543830394744873	568361.8194710551
1.058409333229065	588891.0616647488
1.0624464750289917	610434.0346830898
1.0664942264556885	632718.3017608225
1.0705522298812866	655248.0130758459
1.0746204853057861	678222.8599252125
1.0786986351013184	701792.4277863943
1.0827864408493042	726012.2869499759
1.086883783340454	750294.1405618825
1.0909905433654785	773466.7949589165
1.0951062440872192	793330.2236221419
1.0992310047149658	810196.8971927305
1.10336434841156	833140.9911251955
1.1075061559677124	864416.5105976817
1.1116561889648438	882398.7262160064
1.115814208984375	876286.3346183305
1.1199802160263062	872005.775698768
1.124153733253479	897334.2267403032
1.1283347606658936	954075.1320617994
1.1325229406356812	1002850.0982119611
1.1367181539535522	1036415.6497731268
1.1409201622009277	1074326.2021942956
1.145128846168518	1096894.7776331154
1.1493438482284546	1122656.7456271916
1.1535650491714478	1174330.5433224752
1.1577922105789185	1217561.124742245
1.1620250940322876	1244417.0721917036
1.1662636995315552	1282738.5143143146
1.170507550239563	1327657.1598871006
1.174756646156311	1376899.5401891102
1.1790107488632202	1435540.4309044476
1.1832695007324219	1486835.4355892686
1.1875330209732056	1535808.6688811514
1.191800832748413	1589675.2584865692
1.1960728168487549	1636425.893175968
1.2003488540649414	1680715.409687255
1.2046287059783936	1730857.1319690014
1.2089121341705322	1780365.329632079
1.2131990194320679	1827053.025603683
1.2174891233444214	1876445.605779444
1.2217823266983032	1928399.309256892
1.2260783910751343	1979566.8567302132
1.230377197265625	2030899.6624882193
1.2346785068511963	2084432.1470638192
1.238982081413269	2139167.746736039
1.2432878017425537	2193655.5644099973
1.2475954294204712	2247891.41108875
1.2519049644470215	2301706.1621676474
1.256216049194336	2357316.9918011874
1.2605286836624146	2415608.572506872
1.2648425102233887	2473904.99182356
1.2691574096679688	2530906.1002073823
1.2734732627868652	2588665.213395031
1.2777899503707886	2647889.3388988944
1.2821072340011597	2706175.7175969062
1.2864248752593994	2764512.0688089533
1.2907428741455078	2817483.9440217293
1.2950609922409058	2866365.774307643
1.2993791103363037	2931841.902830748
1.303696870803833	3009497.4240735895
1.3080145120620728	3079145.145412524
1.3123314380645752	3139350.2189400084
1.3166478872299194	3192620.9159699106
1.3209635019302368	3235246.096904961
1.3252781629562378	3284903.077196462
1.3295916318893433	3313912.960270943
1.3339040279388428	3213026.9231470833
1.3382149934768677	3039870.248548712
1.3425244092941284	2948710.011803697
1.3468321561813354	2902584.9777885377
1.3511382341384888	2783159.068483512
1.3554422855377197	2690733.2949083443
1.3597444295883179	2732488.6910639782
1.3640443086624146	2804850.2338834535
1.3683418035507202	2918541.505347442
1.3726370334625244	3092684.6439137836
1.3769296407699585	3314528.6292621223
1.381219506263733	3495326.0253471527
1.3855066299438477	3489003.875969985
1.3897908926010132	3414992.3265702883
1.3940720558166504	3397969.7240046198
1.3983501195907593	3447530.074766341
1.4026249647140503	3479390.3730519856
1.4068963527679443	3536504.6230862043
1.4111642837524414	3686262.1977970595
1.4154287576675415	3626001.0219402965
1.419689416885376	3396781.4126258385
1.4239463806152344	3340313.369155797
1.4281994104385376	3530416.4238548153
1.4324485063552856	3915634.752834036
1.436693549156189	4150246.162363779
1.440934419631958	4210567.199251825
1.4451709985733032	4388548.2643855205
1.449403166770935	4572005.5559502365
1.453631043434143	4723058.414936115
1.4578542709350586	4948288.639963456
1.4620729684829712	5031296.977176637
1.4662868976593018	4996343.720465568
1.4704961776733398	5124861.313946692
1.4747005701065063	5319313.081384767
1.4788999557495117	5516300.391062303
1.4830944538116455	5671642.015302165
1.4872838258743286	5722979.006055877
1.491468071937561	5785307.876094328
1.4956470727920532	5900829.361761166
1.4998208284378052	6032293.606890922
1.5039892196655273	6253684.544844407
1.5081522464752197	6486800.319041662
1.5123097896575928	6641551.3016910525
1.5164618492126465	6797530.128809161
1.5206083059310913	6950419.381120717
1.5247491598129272	7044416.989989041
1.5288842916488647	7088831.93741303
1.5330137014389038	7214520.124761984
1.5371372699737549	7422955.311520498
1.541254997253418	7590639.781370963
1.545366883277893	7707365.466634121
1.5494728088378906	7817207.328092798
1.5535727739334106	7922702.698989317
1.5576666593551636	8012092.686944076
1.561754584312439	8102682.190893205
1.5658363103866577	8221477.176727966
1.5699119567871094	8338312.632272392
1.5739814043045044	8444389.60099882
1.5780447721481323	8563402.172771182
1.582101821899414	8678958.852505235
1.5861525535583496	8786248.399017189
1.5901970863342285	8892128.894724831
1.5942351818084717	8998057.269046403
1.5982669591903687	9101282.402834335
1.6022924184799194	9200469.898297826
1.606311559677124	9299316.04071871
1.6103241443634033	9398855.518555619
1.6143304109573364	9501465.011148093
1.6183301210403442	9594391.690997796
1.6223233938217163	9626623.061550736
1.6263102293014526	9602686.713251844
1.6302905082702637	9581059.867104087
1.634264349937439	9616166.326365441
1.638231635093689	9844310.746156577
1.6421923637390137	10118058.613419242
1.646146535873413	10245501.129799534
1.6500942707061768	10333903.757734843
1.6540353298187256	10395931.981666734
1.6579699516296387	10458594.042700954
1.661897897720337	10429021.796936745
1.6658192873001099	10187058.143184967
1.6697341203689575	10286644.132902376
1.6736423969268799	10711908.111697828
1.677544116973877	10862002.85480597
1.6814392805099487	10931953.082492154
1.6853278875350952	11099447.726956401
1.6892099380493164	11195253.982321367
1.6930854320526123	11215536.743944062
1.696954369544983	11242509.647202974
1.7008168697357178	11263768.755512182
1.7046726942062378	11329125.782594886
1.708522081375122	11544102.350502735
1.712364912033081	11808425.240422655
1.7162011861801147	11952914.195734777
1.7200311422348022	11985559.178858897
1.723854422569275	11890464.787283763
1.7276713848114014	11686600.830017088
1.731481909751892	11568051.28778381
1.7352858781814575	11627396.188525248
1.7390835285186768	11776101.87358535
1.7428747415542603	11941754.164566224
1.7466596364974976	12189032.11440319
1.7504380941390991	12314974.58982603
1.7542102336883545	12177480.363056473
1.7579760551452637	12134513.665149916
1.7617355585098267	12177510.87649397
1.7654887437820435	11998424.668999076
1.7692357301712036	11794833.410175093
1.7729763984680176	11841219.126517326
1.776710867881775	11932015.965402396
1.7804391384124756	11893358.556462858
1.7841613292694092	11857337.724038286
1.7878772020339966	11539953.965628132
1.7915871143341064	10997411.557978015
1.7952908277511597	10901837.202529345
1.7989884614944458	10923773.429977708
1.8026801347732544	10956102.633290313
1.806365728378296	10827225.372873768
1.8100452423095703	10628664.84991877
1.8137187957763672	11191137.24055508
1.817386507987976	11768207.471585376
1.8210482597351074	12012046.484982355
1.8247040510177612	12290699.749380182
1.828354001045227	12230867.537398905
1.8319982290267944	12347191.064557765
1.8356364965438843	12774513.282699194
1.8392690420150757	12553097.318510298
1.8428958654403687	11872593.662083684
1.8465168476104736	11299387.651614895
1.8501322269439697	11478742.51320815
1.8537418842315674	11778424.819709433
1.8573459386825562	11345823.176158572
1.860944390296936	10883445.960935593
1.864537239074707	10754584.754837139
1.8681244850158691	10950642.068421878
1.871706247329712	11217888.277950913
1.8752825260162354	11655767.100831067
1.8788533210754395	12347891.187341979
1.8824186325073242	12753890.735134814
1.8859784603118896	13064915.132172694
1.8895330429077148	13595692.714237303
1.8930821418762207	13887909.743980303
1.8966259956359863	13959461.062366944
1.9001644849777222	13856471.465646358
1.9036977291107178	13958924.62284392
1.9072256088256836	14333058.955931967
1.9107483625411987	14227849.047213519
1.9142658710479736	14229545.238072092
1.9177782535552979	14324040.43913186
1.9212853908538818	13701223.018573472
1.9247875213623047	13635498.698924944
1.9282845258712769	14266714.023117706
1.9317764043807983	14149977.038650315
1.9352631568908691	13635414.09821288
1.9387450218200684	12989946.233125001
1.942221760749817	12374523.127185883
1.9456936120986938	12239613.18341761
1.9491604566574097	12632321.826991292
1.952622413635254	12913788.777493019
1.956079363822937	12262701.506220726
1.959531545639038	12085191.152759422
1.962978720664978	13577746.278491369
1.966421127319336	15077929.295273904
1.9698586463928223	15399161.850818383
1.9732913970947266	15277444.695570981
1.9767193794250488	15310035.58946701
1.9801424741744995	15791254.705543697
1.9835609197616577	16270911.863754956
1.9869745969772339	16021990.942156212
1.990383505821228	15562267.131813925
1.9937876462936401	15933333.66667558
1.9971871376037598	16259734.652941184
2.000581979751587	15825700.04234687
2.003972291946411	15915288.55397986
2.007357597351074	16818066.965454314
2.0107386112213135	17687135.408693414
2.0141148567199707	17834125.59053927
2.017486572265625	17729212.682336796
2.0208535194396973	18186205.02246621
2.0242159366607666	18456378.025858343
2.027573823928833	17966684.67905693
2.0309269428253174	17765842.7991874
2.034275770187378	18244159.3500179
2.0376198291778564	18570485.19546214
2.040959596633911	18640258.71758229
2.044294595718384	19035048.971028343
2.0476250648498535	19439007.989781022
2.0509510040283203	19600986.69234172
2.054272413253784	19839874.87338794
2.057589530944824	20063091.721428994
2.0609018802642822	20169136.086195424
2.0642096996307373	20257585.463471472
2.0675129890441895	20425260.305579863
2.0708119869232178	20618415.78804708
2.074106216430664	20801091.346799787
2.0773961544036865	20826528.9325133
2.080681324005127	20695309.09066536
2.0839622020721436	20741080.2316279
2.087238311767578	20937223.911782965
2.090510129928589	21158504.315532632
2.0937774181365967	21383287.814525027
2.0970399379730225	21489175.769865084
2.1002981662750244	21551245.19913506
2.1035518646240234	21655949.89071572
2.1068007946014404	21741366.140404455
2.1100454330444336	21738971.8204686
2.1132853031158447	21732694.398546617
2.116520881652832	21834653.450605664
2.1197516918182373	22001728.869885657
2.1229779720306396	22109755.74160084
2.12619948387146	22157941.708848733
2.1294167041778564	22248379.65067503
2.132629156112671	22365717.06820108
2.1358368396759033	22447087.09428189
2.139039993286133	22496662.0325252
2.1422386169433594	22547074.475866813
2.145432472229004	22578094.608056154
2.1486217975616455	22593059.25423825
2.151806354522705	22633836.401789013
2.1549863815307617	22663056.340846147
2.1581614017486572	22750106.39809911
2.16133189201355	22881856.84888551
2.1644976139068604	22971158.253837354
2.167658567428589	23046505.04050417
2.1708147525787354	23081681.795294434
2.173966407775879	23102578.69404894
2.1771130561828613	23192297.88166854
2.1802549362182617	23295944.08708486
2.183391809463501	23316294.587358046
2.1865241527557373	23341694.088667378
2.1896514892578125	23438831.77910898
2.1927738189697266	23501634.892459307
2.1958916187286377	23361048.67661128
2.1990041732788086	22963673.886795226
2.2021119594573975	22767164.95768667
2.2052149772644043	23110754.462728105
2.208312749862671	23594655.38907307
2.2114057540893555	23838566.016054954
2.214493751525879	23819731.727860276
2.217576742172241	23331761.626062434
2.2206547260284424	22479879.66289417
2.2237277030944824	22154078.63918392
2.2267956733703613	22278418.986066177
2.2298583984375	22360130.188710112
2.2329163551330566	22492178.54030104
2.235969066619873	22577541.092111252
2.2390167713165283	22878459.158023126
2.2420592308044434	22867442.343572978
2.2450966835021973	22255550.948218893
2.248128890991211	22165345.80790175
2.2511560916900635	22297537.019474305
2.254178285598755	21990591.66391387
2.257194995880127	22303668.19627344
2.260206699371338	23345906.39632261
2.2632133960723877	23795470.137362417
2.266214609146118	23380197.239507914
2.2692108154296875	22993260.88105891
2.2722020149230957	23277190.129903555
2.2751877307891846	23557362.5056322
2.278168201446533	23245843.30264656
2.2811436653137207	22797050.481144737
2.284113883972168	22373789.653233066
2.287078857421875	21976173.715548474
2.290038824081421	21642883.0801755
2.2929933071136475	20635599.659761887
2.295942783355713	19869806.04976018
2.298887014389038	20681759.12853185
2.301826238632202	21387769.58880924
2.304760217666626	21231932.347067397
2.3076889514923096	21913414.030595023
2.310612440109253	23322449.875498306
2.3135311603546143	23266423.97666172
2.3164443969726562	21206458.51890622
2.319352865219116	19706283.52810731
2.322256088256836	19909079.329811905
2.3251543045043945	20517916.251331292
2.328047275543213	21347397.784754626
2.330935478210449	21945089.321120176
2.3338186740875244	21724659.524416443
2.3366971015930176	20857358.863503158
2.3395702838897705	20360531.44035931
2.3424389362335205	20673758.8921488
2.3453025817871094	20367484.183656443
2.348161458969116	19627101.964442953
2.351015567779541	18895941.242859345
2.353865146636963	19062772.008187767
2.3567099571228027	20782144.418375626
2.3595502376556396	21871519.610249825
2.3623859882354736	22066854.977948833
2.3652172088623047	22197549.91272309
2.368043899536133	20790210.571599144
2.370866537094116	18402499.617286455
2.3736846446990967	17993454.605780717
2.3764986991882324	18948365.699139427
2.3793084621429443	19799523.77093769
2.3821144104003906	20748698.573219556
2.384916305541992	21320437.09150187
2.387714147567749	21926797.700727638
2.3905084133148193	22129865.67156749
2.393299102783203	21097002.333055273
2.3960859775543213	21046843.78801514
2.398869514465332	21737886.585273933
2.4016497135162354	20914897.866638727
2.4044265747070312	20231964.011115868
2.407200336456299	20977397.15674513
2.409970998764038	21616240.000941873
2.4127390384674072	21762623.57091434
2.415503978729248	21479937.243472923
2.418266534805298	20760028.477664094
2.4210267066955566	20607160.32009493
2.4237842559814453	20831067.41443624
2.426539897918701	20802675.18074899
2.429293394088745	21167886.156174682
2.4320452213287354	20951961.54825855
2.4347951412200928	18739087.087873016
2.4375438690185547	18268022.786394846
2.440291166305542	20180017.71505078
2.443037271499634	20239853.88377394
2.445782423019409	19943255.96954483
2.4485268592834473	20875155.21929167
2.451270818710327	20567345.273390673
2.454014539718628	19749783.858583722
2.4567582607269287	20353075.516150046
2.4595019817352295	20674173.592400372
2.4622461795806885	20894153.449232463
2.4649908542633057	21164828.028743
2.4677364826202393	19815314.56444189
2.4704833030700684	18754430.522270843
2.473231554031372	17927825.57359504
2.4759814739227295	17971507.671919405
