#wavelength	surface flux
0.6450077295303345	6.045268501613325
0.6472567915916443	9.271152938144848
0.6494921445846558	11.530018730716728
0.6517150402069092	12.536035444452548
0.6539263725280762	13.53044881741647
0.6561272740364075	14.590641634903962
0.6583186388015747	15.721643750986855
0.6605015397071838	16.9266539316699
0.6626768708229065	18.2080809023429
0.6648455858230591	19.572274456626158
0.6670085787773132	21.025483381083596
0.6691668033599854	22.572136963316783
0.6713210344314575	24.217001976452124
0.6734722256660461	25.965632910705303
0.6756211519241333	27.82481964466279
0.6777685880661011	29.801560970216084
0.6799154281616211	31.902951531394155
0.6820623278617859	34.13683024918866
0.6842101216316223	36.511010606792084
0.6863595843315125	39.03475557252074
0.688511312007904	41.715242233197834
0.6906660795211792	44.54962266727819
0.6928245425224304	47.556247503192715
0.6949873566627502	50.7818699630271
0.6971551775932312	54.221450592516675
0.6993286609649658	57.85434612025699
0.7015084028244019	61.71503034407515
0.7036949396133423	65.8286122863275
0.7058889269828796	70.1914687443103
0.7080909013748169	74.80860919652623
0.710301399230957	79.72305182490295
0.712520956993103	84.95252775277159
0.7147500514984131	90.4223408498618
0.7169892191886902	96.18799282747275
0.7192389369010925	102.50882150346014
0.7214996814727783	109.31278815547222
0.723771870136261	116.44482716073827
0.7260559797286987	124.00143740471776
0.7283523678779602	131.9811609316941
0.7306615710258484	140.45252505380347
0.7329838871955872	149.53384164801912
0.7353196740150452	159.16889696664248
0.7376693487167358	169.4771790541295
0.7400332689285278	180.50904820277512
0.7424117922782898	192.16748414648333
0.7448052167892456	204.56966626811214
0.7472138404846191	217.78127285384278
0.7496379613876343	231.82272216971344
0.7520779371261597	246.74210848481067
0.7545340061187744	262.59740372995344
0.7570064663887024	279.4512811926348
0.7594954967498779	297.3612923458693
0.7620013952255249	316.39510466085375
0.7645244002342224	336.6133948561504
0.7670646905899048	358.11454525792294
0.7696225643157959	381.0180749606886
0.7721980810165405	405.40109655636195
0.7747915983200073	431.32294386438184
0.7774031162261963	458.8677152242881
0.7800329327583313	488.1465732609449
0.7826811671257019	519.2720621588098
0.7853479981422424	552.3163444611419
0.7880334854125977	587.3606243522719
0.7907378077507019	624.7023014177057
0.7934610247612	664.5486391748412
0.7962033748626709	706.8103849402721
0.7989648580551147	751.6065850406286
0.801745593547821	799.2668512113476
0.8045456409454346	849.980216410868
0.8073651194572449	903.3695945246221
0.8102040886878967	958.8948739034565
0.8130625486373901	1017.8194366846719
0.8159406185150146	1081.9953706920858
0.8188382983207703	1150.905388303978
0.8217556476593018	1223.2517242710892
0.8246926665306091	1300.4037009109466
0.8276493549346924	1383.7089156107272
0.8306257724761963	1471.7628367171126
0.8336219191551208	1564.81029236588
0.8366377949714661	1663.421668762387
0.8396733403205872	1767.6127836645837
0.8427285552024841	1878.1858459855614
0.8458034992218018	1995.0443644982247
0.8488980531692505	2119.4601066963346
0.8520121574401855	2252.1011622896413
0.8551458716392517	2392.2505624957003
0.8582990765571594	2540.0052044800213
0.8614717125892639	2695.364688579468
0.8646637797355652	2860.2617113854344
0.8678751587867737	3036.5281314834306
0.8711057901382446	3223.1003283352784
0.8743556141853333	3420.256298321392
0.87762451171875	3629.198889001891
0.8809124231338501	3849.832425846526
0.8842192888259888	4082.6340158493485
0.8875449895858765	4325.990058783671
0.8908893465995789	4575.388744750145
0.894252359867096	4827.352689945317
0.8976338505744934	5090.481109144165
0.9010337591171265	5403.095443705416
0.9044519662857056	5760.567965508359
0.9078882932662964	6116.506497151783
0.9113426208496094	6472.376012906193
0.914814829826355	6840.745987372703
0.9183048605918884	7230.065351077079
0.9218124747276306	7641.34854532244
0.925337553024292	7997.072566870683
0.9288799166679382	8205.198149873442
0.9324395060539246	8301.409909136408
0.9360161423683167	8655.991324765735
0.9396095871925354	9547.091981402245
0.943219780921936	10427.719473534962
0.9468464851379395	10889.400147074382
0.9504896402359009	11373.211499169784
0.9541489481925964	12082.628604402467
0.9578243494033813	12811.798248692705
0.9615156054496765	13577.501194721219
0.9652225375175476	14512.702568468983
0.9689450263977051	15497.904404639095
0.9726828336715698	16382.219717231448
0.9764357805252075	17278.57964835494
0.9802037477493286	18278.070181292358
0.983986496925354	19332.433702200473
0.9877838492393494	20402.005594294413
0.9915955662727356	21523.408015764013
0.9954215884208679	22708.36812281251
0.9992615580558777	23920.972674448338
1.0031154155731201	25162.322526308006
1.0069829225540161	26455.864002529535
1.0108637809753418	27811.491958228406
1.0147579908370972	29228.626628209237
1.018665075302124	30707.7402397608
1.022585153579712	32249.462093197497
1.0265177488327026	33857.076517422705
1.0304628610610962	35532.562851450326
1.0344202518463135	37279.9090781959
1.0383895635604858	39101.956523911525
1.0423706769943237	40998.924632205875
1.0463634729385376	42973.74204043695
1.0503677129745483	45030.196681818605
1.0543830394744873	47169.26743582967
1.058409333229065	49403.326114865
1.0624464750289917	51769.68534702415
1.0664942264556885	54239.369897743345
1.0705522298812866	56768.63416070673
1.0746204853057861	59379.42662164196
1.0786986351013184	62087.733096023396
1.0827864408493042	64901.04672376284
1.086883783340454	67770.16974242144
1.0909905433654785	70612.32964933082
1.0951062440872192	73274.97378811394
1.0992310047149658	75684.16834896815
1.10336434841156	78406.45671961231
1.1075061559677124	81670.88224577613
1.1116561889648438	83702.35071141626
1.115814208984375	83415.68575101398
1.1199802160263062	83265.21952187331
1.124153733253479	86466.29773403986
1.1283347606658936	93511.96471400028
1.1325229406356812	99748.62166952013
1.1367181539535522	104569.81137612612
1.1409201622009277	110070.975936727
1.145128846168518	113227.2320791879
1.1493438482284546	115962.90130248734
1.1535650491714478	121770.28020328903
1.1577922105789185	127725.91833668287
1.1620250940322876	132649.13428766254
1.1662636995315552	138759.47950399708
1.170507550239563	145302.899184938
1.174756646156311	152387.24973119228
1.1790107488632202	160619.3316198626
1.1832695007324219	168261.99083310252
1.1875330209732056	175595.19162540569
1.191800832748413	183142.80902548233
1.1960728168487549	190053.1135755151
1.2003488540649414	196961.76310755007
1.2046287059783936	204650.60442333232
1.2089121341705322	212359.7325517994
1.2131990194320679	219781.23254873065
1.2174891233444214	227688.06560892359
1.2217823266983032	236027.67786797622
1.2260783910751343	244335.65132200377
1.230377197265625	252832.3184344882
1.2346785068511963	261734.38313269534
1.238982081413269	270871.21055547387
1.2432878017425537	280095.6108082842
1.2475954294204712	289450.6287099139
1.2519049644470215	298936.12196648726
1.256216049194336	308736.04870922543
1.2605286836624146	318914.397453385
1.2648425102233887	329215.0022833429
1.2691574096679688	339525.7993758221
1.2734732627868652	350075.098384962
1.2777899503707886	360916.0179570242
1.2821072340011597	371772.8278234638
1.2864248752593994	382810.2208463166
1.2907428741455078	393324.03972851846
1.2950609922409058	403440.28309238696
1.2993791103363037	415604.7170575549
1.303696870803833	429405.1406908813
1.3080145120620728	442641.2033150363
1.3123314380645752	454628.60242374556
1.3166478872299194	465369.9375836444
1.3209635019302368	474885.66959965735
1.3252781629562378	485887.8068293403
1.3295916318893433	493672.96501035633
1.3339040279388428	481108.74087806523
1.3382149934768677	451511.2337051396
1.3425244092941284	429750.0206415772
1.3468321561813354	414740.60163247254
1.3511382341384888	389599.10907440784
1.3554422855377197	371458.30523726245
1.3597444295883179	371822.5400784105
1.3640443086624146	381200.5465420295
1.3683418035507202	409397.3452721544
1.3726370334625244	450755.2617606668
1.3769296407699585	491714.2399767718
1.381219506263733	516242.09278504195
1.3855066299438477	515948.02539432445
1.3897908926010132	509536.68953166483
1.3940720558166504	505819.6330550166
1.3983501195907593	515906.7445839034
1.4026249647140503	533079.6611733638
1.4068963527679443	551310.8989578299
1.4111642837524414	575436.6220527468
1.4154287576675415	569213.9891148088
1.419689416885376	539376.2047837139
1.4239463806152344	536397.2157120192
1.4281994104385376	573602.7360859375
1.4324485063552856	638984.1739127064
1.436693549156189	682137.7571666357
1.440934419631958	703923.8570572126
1.4451709985733032	741720.5649471616
1.449403166770935	783684.3690397096
1.453631043434143	834713.026016561
1.4578542709350586	896585.8040482398
1.4620729684829712	919166.7608455189
1.4662868976593018	914280.6115392538
1.4704961776733398	938339.1688723135
1.4747005701065063	978441.919418972
1.4788999557495117	1022386.8137106376
1.4830944538116455	1063036.4806534497
1.4872838258743286	1087701.260449829
1.491468071937561	1105481.584268781
1.4956470727920532	1130372.2177283312
1.4998208284378052	1162972.2795506925
1.5039892196655273	1214038.3270032047
1.5081522464752197	1272184.9472919307
1.5123097896575928	1315190.4414200308
1.5164618492126465	1353098.5771368842
1.5206083059310913	1390559.3430126244
1.5247491598129272	1421247.8970620572
1.5288842916488647	1445217.6060290898
1.5330137014389038	1480181.557366213
1.5371372699737549	1524945.2571248002
1.541254997253418	1562140.8719928088
1.545366883277893	1593205.8586168506
1.5494728088378906	1624236.1947017962
1.5535727739334106	1655221.3367717385
1.5576666593551636	1686245.3128432638
1.561754584312439	1717495.3201488557
1.5658363103866577	1749322.70151627
1.5699119567871094	1780188.6288409496
1.5739814043045044	1810990.0334431962
1.5780447721481323	1844246.8544176042
1.582101821899414	1877114.5423095543
1.5861525535583496	1908323.7481416073
1.5901970863342285	1939897.0989792277
1.5942351818084717	1972267.8628634221
1.5982669591903687	2004571.8223755355
1.6022924184799194	2036589.0580691295
1.606311559677124	2068588.7314380137
1.6103241443634033	2100472.5384270907
1.6143304109573364	2132176.8519009557
1.6183301210403442	2157168.3908668314
1.6223233938217163	2154747.5293264533
1.6263102293014526	2131538.2674936773
1.6302905082702637	2116949.342309768
1.634264349937439	2137532.7547041406
1.638231635093689	2229057.727732286
1.6421923637390137	2325123.9939695727
1.646146535873413	2359567.8302351986
1.6500942707061768	2378957.772246154
1.6540353298187256	2395189.882201435
1.6579699516296387	2417553.513887635
1.661897897720337	2408346.4408085924
1.6658192873001099	2303998.818355941
1.6697341203689575	2328390.2129746997
1.6736423969268799	2499215.375833421
1.677544116973877	2560719.910083069
1.6814392805099487	2576505.702105501
1.6853278875350952	2630940.5773481526
1.6892099380493164	2657557.2102580415
1.6930854320526123	2654248.296112668
1.696954369544983	2644294.531897198
1.7008168697357178	2617917.8872849373
1.7046726942062378	2629883.7445112593
1.708522081375122	2737761.237061783
1.712364912033081	2876318.4544325336
1.7162011861801147	2956348.8955658153
1.7200311422348022	2973569.446597358
1.723854422569275	2928280.5475879298
1.7276713848114014	2858506.0864010006
1.731481909751892	2853311.742525524
1.7352858781814575	2920902.65136542
1.7390835285186768	2993466.5760987373
1.7428747415542603	3034620.56241835
1.7466596364974976	3072720.7579462896
1.7504380941390991	3094288.149367035
1.7542102336883545	3070706.251600877
1.7579760551452637	3045621.7052139356
1.7617355585098267	3045488.3315126337
1.7654887437820435	3013799.976222567
1.7692357301712036	2960137.3312190543
1.7729763984680176	2949521.4054178097
1.776710867881775	2952743.005022305
1.7804391384124756	2934356.5408461527
1.7841613292694092	2879854.3717356795
1.7878772020339966	2773144.8377550654
1.7915871143341064	2657888.5422539944
1.7952908277511597	2657588.8005226906
1.7989884614944458	2672567.449840742
1.8026801347732544	2629468.718612908
1.806365728378296	2574292.788357021
1.8100452423095703	2535587.6241333704
1.8137187957763672	2668719.514296754
1.817386507987976	2801278.564431508
1.8210482597351074	2853324.242566736
1.8247040510177612	2985847.3037343808
1.828354001045227	2996129.0779974572
1.8319982290267944	2938764.0072873584
1.8356364965438843	2939108.60461947
1.8392690420150757	2870585.6074343235
1.8428958654403687	2819289.387770468
1.8465168476104736	2733278.164787652
1.8501322269439697	2747473.4671685183
1.8537418842315674	2827064.7534986204
1.8573459386825562	2722130.064871423
1.860944390296936	2566295.2077525966
1.864537239074707	2473891.2645149515
1.8681244850158691	2476764.486523884
1.871706247329712	2568942.6355519937
1.8752825260162354	2827246.6340601556
1.8788533210754395	3172698.8601858034
1.8824186325073242	3358852.9952342496
1.8859784603118896	3472362.095170953
1.8895330429077148	3627812.284887881
1.8930821418762207	3722919.680920453
1.8966259956359863	3736599.4301880742
1.9001644849777222	3676223.227846004
1.9036977291107178	3693693.313080014
1.9072256088256836	3808364.2518382585
1.9107483625411987	3738467.7133794613
1.9142658710479736	3660226.36303012
1.9177782535552979	3732466.3336999062
1.9212853908538818	3632697.575474985
1.9247875213623047	3587848.1778707686
1.9282845258712769	3671721.562132305
1.9317764043807983	3593542.1067589615
1.9352631568908691	3469382.95748011
1.9387450218200684	3270609.28413142
1.942221760749817	3202210.4611370377
1.9456936120986938	3332329.440469095
1.9491604566574097	3471637.653756852
1.952622413635254	3508406.833175154
1.956079363822937	3281122.1101031336
1.959531545639038	3242013.375847988
1.962978720664978	3709984.330725857
1.966421127319336	4194342.360945761
1.9698586463928223	4303341.374440606
1.9732913970947266	4280536.269126283
1.9767193794250488	4400940.824401966
1.9801424741744995	4622653.246126545
1.9835609197616577	4847794.699203986
1.9869745969772339	4851238.537028503
1.990383505821228	4697783.588089267
1.9937876462936401	4856192.797473377
1.9971871376037598	5031497.910325254
2.000581979751587	4948492.855171254
2.003972291946411	5036124.96335777
2.007357597351074	5322980.319772721
2.0107386112213135	5607479.033433173
2.0141148567199707	5705788.1848305
2.017486572265625	5681925.181848503
2.0208535194396973	5847973.566443721
2.0242159366607666	6007073.248027342
2.027573823928833	5898858.005801797
2.0309269428253174	5834773.899255859
2.034275770187378	5994386.864099666
2.0376198291778564	6107916.110051217
2.040959596633911	6129706.387050011
2.044294595718384	6280612.598703931
2.0476250648498535	6428186.890547591
2.0509510040283203	6479962.337095765
2.054272413253784	6568889.405020342
2.057589530944824	6652310.018417428
2.0609018802642822	6696877.342300941
2.0642096996307373	6734755.218075224
2.0675129890441895	6783298.97901083
2.0708119869232178	6842835.506155807
2.074106216430664	6916817.642053678
2.0773961544036865	6949358.915689316
2.080681324005127	6935539.196133493
2.0839622020721436	6964080.98724893
2.087238311767578	7020833.196484705
2.090510129928589	7096690.626866971
2.0937774181365967	7190431.815793749
2.0970399379730225	7242648.6089350125
2.1002981662750244	7274053.793053236
2.1035518646240234	7318956.334104401
2.1068007946014404	7358470.301013901
2.1100454330444336	7367783.707086756
2.1132853031158447	7373334.974050365
2.116520881652832	7419326.511103357
2.1197516918182373	7490900.889055994
2.1229779720306396	7542487.606471465
2.12619948387146	7571930.053323308
2.1294167041778564	7616483.294909517
2.132629156112671	7671345.728430731
2.1358368396759033	7711318.432016427
2.139039993286133	7739852.537719775
2.1422386169433594	7768136.744235206
2.145432472229004	7786019.477088621
2.1486217975616455	7786494.112467537
2.151806354522705	7787360.433284586
2.1549863815307617	7795716.124987443
2.1581614017486572	7845598.023130767
2.16133189201355	7909721.726389504
2.1644976139068604	7963867.6219528
2.167658567428589	8018584.571069403
2.1708147525787354	8041437.12936957
2.173966407775879	8054513.279256441
2.1771130561828613	8102174.425260297
2.1802549362182617	8155910.21323409
2.183391809463501	8170612.893390461
2.1865241527557373	8191655.694851414
2.1896514892578125	8241292.38011991
2.1927738189697266	8273326.310962509
2.1958916187286377	8137659.741080484
2.1990041732788086	7734772.6172194835
2.2021119594573975	7500983.358019838
2.2052149772644043	7786200.035273308
2.208312749862671	8223273.551735096
2.2114057540893555	8438493.077868674
2.214493751525879	8419814.833908806
2.217576742172241	8096081.22534043
2.2206547260284424	7532824.603054057
2.2237277030944824	7251589.854819429
2.2267956733703613	7238931.234315673
2.2298583984375	7212546.8947090665
2.2329163551330566	7302859.018261885
2.235969066619873	7482512.943127515
2.2390167713165283	7677571.977010519
2.2420592308044434	7532690.742516063
2.2450966835021973	7046498.99568868
2.248128890991211	6934610.909875137
2.2511560916900635	7080951.159092467
2.254178285598755	7088607.698677388
2.257194995880127	7349794.784027634
2.260206699371338	7868216.6130311815
2.2632133960723877	8060204.590381458
2.266214609146118	7804152.780115735
2.2692108154296875	7612941.168232478
2.2722020149230957	7788971.957200512
2.2751877307891846	7859185.654636345
2.278168201446533	7674905.922136803
2.2811436653137207	7470492.760659602
2.284113883972168	7198115.350767546
2.287078857421875	6938602.051604133
2.290038824081421	6758467.836140204
2.2929933071136475	6534954.888922394
2.295942783355713	6430582.03267245
2.298887014389038	6746253.747199026
2.301826238632202	7278024.442005497
2.304760217666626	7728820.613494769
2.3076889514923096	8095576.159774423
2.310612440109253	8456221.132130783
2.3135311603546143	8293569.861697062
2.3164443969726562	6974137.262771819
2.319352865219116	6144846.837128373
2.322256088256836	6862833.811477398
2.3251543045043945	7620565.109312638
2.328047275543213	7866013.378857455
2.330935478210449	7820980.695090422
2.3338186740875244	7506123.104991099
2.3366971015930176	6901978.545672126
2.3395702838897705	6347850.544581529
2.3424389362335205	6295639.784133932
2.3453025817871094	6280005.01602179
2.348161458969116	6171853.457133448
2.351015567779541	6168288.514744765
2.353865146636963	6575572.797926923
2.3567099571228027	7396537.311562388
2.3595502376556396	8027864.894411679
2.3623859882354736	8401525.315353503
2.3652172088623047	8522845.737581417
2.368043899536133	7580564.450187525
2.370866537094116	5868118.500975469
2.3736846446990967	5358721.648994473
2.3764986991882324	6045181.86466368
2.3793084621429443	6935943.634996015
2.3821144104003906	7527123.006944134
2.384916305541992	7599133.021548722
2.387714147567749	7899260.892176736
2.3905084133148193	8274431.710684426
2.393299102783203	7935988.152752182
2.3960859775543213	7389645.507526617
2.398869514465332	7223032.556363332
2.4016497135162354	6997429.257376605
2.4044265747070312	6770425.779025021
2.407200336456299	7089701.784571876
2.409970998764038	7486200.647052232
2.4127390384674072	7633017.457487784
2.415503978729248	7396371.941809287
2.418266534805298	6792902.7092628535
2.4210267066955566	6690293.575675753
2.4237842559814453	6920320.638805934
2.426539897918701	6901014.167582278
2.429293394088745	7309813.4738896275
2.4320452213287354	7755654.638830912
2.4347951412200928	6987208.578415014
2.4375438690185547	6638508.5215281695
2.440291166305542	7397604.518133432
2.443037271499634	7420578.9659469975
2.445782423019409	7162680.242025302
2.4485268592834473	7367235.746576353
2.451270818710327	7009137.367584062
2.454014539718628	6692407.748876232
2.4567582607269287	7224299.971626478
2.4595019817352295	7377654.614681481
2.4622461795806885	7410900.593946322
2.4649908542633057	7591560.619056764
2.4677364826202393	6837125.773124837
2.4704833030700684	6109955.570349093
2.473231554031372	5914660.997178162
2.4759814739227295	6042171.072367009
2.4787333011627197	6444993.599090739
2.481487512588501	6502660.810471311
2.4842441082000732	6737166.627216727
