#wavelength	surface flux
0.6450077295303345	9414.772313227311
0.6472567915916443	14200.726371511017
0.6494921445846558	17143.485103289182
0.6517150402069092	18004.814671166536
0.6539263725280762	18783.32757063003
0.6561272740364075	19561.890110690438
0.6583186388015747	20397.45198331494
0.6605015397071838	21338.94716820113
0.6626768708229065	22291.049918796885
0.6648455858230591	23220.922347724696
0.6670085787773132	24118.73806634483
0.6691668033599854	24734.302198891208
0.6713210344314575	25400.24334305337
0.6734722256660461	26750.251729544085
0.6756211519241333	28183.654151299983
0.6777685880661011	29246.916705457814
0.6799154281616211	30268.506739596443
0.6820623278617859	31210.910850104832
0.6842101216316223	32024.390666314684
0.6863595843315125	32583.786831587724
0.688511312007904	32799.66859274046
0.6906660795211792	33513.46333946719
0.6928245425224304	35223.638143446355
0.6949873566627502	37183.73855757964
0.6971551775932312	38778.2065217169
0.6993286609649658	40391.53350225487
0.7015084028244019	42734.45058114737
0.7036949396133423	45379.71638145128
0.7058889269828796	47622.09743709585
0.7080909013748169	49541.52093676301
0.710301399230957	51395.20688062495
0.712520956993103	53301.841456234564
0.7147500514984131	55247.5309018383
0.7169892191886902	57273.09905555829
0.7192389369010925	59433.26431561455
0.7214996814727783	61674.08825828321
0.723771870136261	63969.04269671359
0.7260559797286987	66337.11712421465
0.7283523678779602	68769.9687956345
0.7306615710258484	71147.75960423783
0.7329838871955872	72847.45198657646
0.7353196740150452	73962.81666064398
0.7376693487167358	75454.43101161286
0.7400332689285278	77108.89488079918
0.7424117922782898	78868.78683645255
0.7448052167892456	81292.19810577891
0.7472138404846191	84843.25325820022
0.7496379613876343	89331.36241843711
0.7520779371261597	93860.08999571961
0.7545340061187744	98490.5302114694
0.7570064663887024	103116.45621325982
0.7594954967498779	107169.84989536574
0.7620013952255249	108078.49939724302
0.7645244002342224	97714.24294466885
0.7670646905899048	82524.12954996164
0.7696225643157959	84538.37727303556
0.7721980810165405	106536.51015992812
0.7747915983200073	128660.43412292126
0.7774031162261963	138844.53752322652
0.7800329327583313	143272.63616329446
0.7826811671257019	149367.1024109369
0.7853479981422424	156478.46643036706
0.7880334854125977	162454.48967011896
0.7907378077507019	167384.31113572908
0.7934610247612	170727.79662615425
0.7962033748626709	175746.29727156673
0.7989648580551147	183893.9851843209
0.801745593547821	191850.92641879656
0.8045456409454346	199335.98148840663
0.8073651194572449	207380.16673450003
0.8102040886878967	215812.21455912272
0.8130625486373901	224365.44374044324
0.8159406185150146	233007.94086464157
0.8188382983207703	241784.88503054067
0.8217556476593018	250684.82929211707
0.8246926665306091	259846.75225253726
0.8276493549346924	269386.5674322509
0.8306257724761963	279268.48853960045
0.8336219191551208	289467.11733224173
0.8366377949714661	299973.78351309785
0.8396733403205872	310808.971084056
0.8427285552024841	322018.95151559723
0.8458034992218018	333582.74551128614
0.8488980531692505	345388.831653867
0.8520121574401855	356840.8689023386
0.8551458716392517	368190.0966799615
0.8582990765571594	380032.5604565956
0.8614717125892639	392269.36408552196
0.8646637797355652	405101.3736498853
0.8678751587867737	419126.7585008536
0.8711057901382446	435167.1844231325
0.8743556141853333	452582.62361348426
0.87762451171875	470330.99911629426
0.8809124231338501	488231.7286698834
0.8842192888259888	506275.93026543036
0.8875449895858765	524610.3732685455
0.8908893465995789	542918.6812303767
0.894252359867096	561324.1588814311
0.8976338505744934	580436.188858185
0.9010337591171265	600960.6142541029
0.9044519662857056	622627.7776446125
0.9078882932662964	644408.8899353165
0.9113426208496094	666419.2756683698
0.914814829826355	688860.5851124281
0.9183048605918884	711916.9963292475
0.9218124747276306	735436.5362100861
0.925337553024292	756738.055012053
0.9288799166679382	774930.2856864013
0.9324395060539246	792739.826440469
0.9360161423683167	816748.1539571427
0.9396095871925354	853069.8072706865
0.943219780921936	889997.9629597483
0.9468464851379395	916977.0865778484
0.9504896402359009	943933.360807396
0.9541489481925964	975473.9609599204
0.9578243494033813	1007045.0269063306
0.9615156054496765	1039808.2742740054
0.9652225375175476	1077451.2932140152
0.9689450263977051	1116472.1808215405
0.9726828336715698	1152913.3371874553
0.9764357805252075	1189815.3774474934
0.9802037477493286	1228605.3604925508
0.983986496925354	1267608.240891123
0.9877838492393494	1306655.0207286198
0.9915955662727356	1347480.808634187
0.9954215884208679	1390016.50162635
0.9992615580558777	1432762.0652107322
1.0031154155731201	1476045.8025382287
1.0069829225540161	1520804.0351827005
1.0108637809753418	1566789.2685594358
1.0147579908370972	1613747.2035704176
1.018665075302124	1661871.5107960235
1.022585153579712	1711089.8612242644
1.0265177488327026	1761330.4722788325
1.0304628610610962	1812660.026746325
1.0344202518463135	1865153.9813013829
1.0383895635604858	1918761.732185032
1.0423706769943237	1973325.9681723919
1.0463634729385376	2028699.1932516429
1.0503677129745483	2085202.1362458353
1.0543830394744873	2143255.6374844657
1.058409333229065	2203200.8587700515
1.0624464750289917	2265963.849865733
1.0664942264556885	2330356.7315396275
1.0705522298812866	2394535.6800393155
1.0746204853057861	2459187.517225502
1.0786986351013184	2525217.132886574
1.0827864408493042	2592654.059925754
1.086883783340454	2660335.2940414385
1.0909905433654785	2726584.3175802175
1.0951062440872192	2788363.5670500137
1.0992310047149658	2847207.360420291
1.10336434841156	2916344.9415172515
1.1075061559677124	2996354.2491651666
1.1116561889648438	3056124.138702028
1.115814208984375	3086146.954476246
1.1199802160263062	3119748.057682052
1.124153733253479	3192740.382505584
1.1283347606658936	3310546.6649064412
1.1325229406356812	3415403.4024891714
1.1367181539535522	3498736.9153687353
1.1409201622009277	3592266.3307510912
1.145128846168518	3668307.8018199755
1.1493438482284546	3746824.617982194
1.1535650491714478	3857765.9935570005
1.1577922105789185	3955563.298134639
1.1620250940322876	4028734.9589835787
1.1662636995315552	4119139.1333182137
1.170507550239563	4219321.699937933
1.174756646156311	4320836.618753006
1.1790107488632202	4437442.949324553
1.1832695007324219	4550057.383265465
1.1875330209732056	4657838.093687747
1.191800832748413	4771833.408706014
1.1960728168487549	4879387.224290858
1.2003488540649414	4982990.02857545
1.2046287059783936	5092092.2964163935
1.2089121341705322	5200685.6633148715
1.2131990194320679	5307474.266942871
1.2174891233444214	5417447.776882523
1.2217823266983032	5529878.212094505
1.2260783910751343	5641694.530436543
1.230377197265625	5754398.132032484
1.2346785068511963	5869996.275605257
1.238982081413269	5986593.059447752
1.2432878017425537	6103184.480372833
1.2475954294204712	6220358.329977144
1.2519049644470215	6337666.600681807
1.256216049194336	6457136.398408132
1.2605286836624146	6579272.590134253
1.2648425102233887	6701400.806566964
1.2691574096679688	6822777.474286378
1.2734732627868652	6944925.835809744
1.2777899503707886	7068545.502559178
1.2821072340011597	7191706.00467871
1.2864248752593994	7315063.79689687
1.2907428741455078	7434711.856768775
1.2950609922409058	7551431.808079912
1.2993791103363037	7682196.9372390965
1.303696870803833	7824256.074700818
1.3080145120620728	7960062.05125089
1.3123314380645752	8087556.516081988
1.3166478872299194	8210010.264104405
1.3209635019302368	8323261.616284904
1.3252781629562378	8439407.683767032
1.3295916318893433	8520251.648854015
1.3339040279388428	8436346.296248903
1.3382149934768677	8259514.29793468
1.3425244092941284	8125971.764211944
1.3468321561813354	8034216.4821659075
1.3511382341384888	7900393.556383422
1.3554422855377197	7834367.5732617155
1.3597444295883179	8026367.19336101
1.3640443086624146	8268984.787602059
1.3683418035507202	8499681.866716864
1.3726370334625244	8837220.30142197
1.3769296407699585	9239856.081707774
1.381219506263733	9501526.750401355
1.3855066299438477	9428903.192943288
1.3897908926010132	9248306.034644572
1.3940720558166504	9256594.136481538
1.3983501195907593	9484250.243386164
1.4026249647140503	9658784.359546918
1.4068963527679443	9807659.135143008
1.4111642837524414	10028599.439658869
1.4154287576675415	9883060.767804533
1.419689416885376	9575507.706026576
1.4239463806152344	9607585.405846994
1.4281994104385376	9958113.701209756
1.4324485063552856	10588988.535573944
1.436693549156189	11009615.123839842
1.440934419631958	11115189.900737574
1.4451709985733032	11378967.884994045
1.449403166770935	11644065.694332434
1.453631043434143	11821364.549987528
1.4578542709350586	12117454.016608257
1.4620729684829712	12338358.801825805
1.4662868976593018	12419621.3251218
1.4704961776733398	12627165.400113888
1.4747005701065063	12898478.193733323
1.4788999557495117	13152674.314602366
1.4830944538116455	13347907.550645957
1.4872838258743286	13444241.380523542
1.491468071937561	13570436.088245634
1.4956470727920532	13761895.354892042
1.4998208284378052	13967782.728018163
1.5039892196655273	14253785.309216538
1.5081522464752197	14538181.634979447
1.5123097896575928	14747902.125016589
1.5164618492126465	14964779.667808525
1.5206083059310913	15177346.708711555
1.5247491598129272	15326491.32226722
1.5288842916488647	15425030.137694601
1.5330137014389038	15600587.063815651
1.5371372699737549	15856975.305901082
1.541254997253418	16081379.478313193
1.545366883277893	16258153.234241748
1.5494728088378906	16428325.858762506
1.5535727739334106	16594266.708888879
1.5576666593551636	16739905.958981946
1.561754584312439	16887746.758323647
1.5658363103866577	17066724.41969511
1.5699119567871094	17241899.65553922
1.5739814043045044	17404926.28232247
1.5780447721481323	17581130.49855324
1.582101821899414	17757289.926386494
1.5861525535583496	17927308.85527048
1.5901970863342285	18092362.237740144
1.5942351818084717	18253414.316978417
1.5982669591903687	18412988.996571902
1.6022924184799194	18570608.409830756
1.606311559677124	18724912.707454562
1.6103241443634033	18880043.983553644
1.6143304109573364	19041919.51815479
1.6183301210403442	19204404.81836313
1.6223233938217163	19360047.440251537
1.6263102293014526	19511583.695224572
1.6302905082702637	19660427.930644058
1.634264349937439	19810196.297485717
1.638231635093689	19968400.73877248
1.6421923637390137	20122696.90222104
1.646146535873413	20279159.60080147
1.6500942707061768	20448190.075879667
1.6540353298187256	20608954.595187224
1.6579699516296387	20755514.879273113
1.661897897720337	20899340.11624358
1.6658192873001099	21050068.10782812
1.6697341203689575	21203942.1063751
1.6736423969268799	21348247.538922705
1.677544116973877	21482985.8300881
1.6814392805099487	21632159.699736547
1.6853278875350952	21802406.892854776
1.6892099380493164	21968320.246020965
1.6930854320526123	22109213.226853605
1.696954369544983	22241062.55278358
1.7008168697357178	22387766.634913135
1.7046726942062378	22530074.000435844
1.708522081375122	22674599.296556044
1.712364912033081	22825630.24946172
1.7162011861801147	22948576.707859915
1.7200311422348022	23047736.046725802
1.723854422569275	23102604.53759127
1.7276713848114014	23067600.722253446
1.731481909751892	23023390.44318511
1.7352858781814575	23061098.145919856
1.7390835285186768	23187653.099027265
1.7428747415542603	23392800.8194085
1.7466596364974976	23715784.892728552
1.7504380941390991	23895862.743002724
1.7542102336883545	23792363.949389618
1.7579760551452637	23850839.29546917
1.7617355585098267	23966000.563931417
1.7654887437820435	23686144.236284614
1.7692357301712036	23407527.521029353
1.7729763984680176	23508722.686887167
1.776710867881775	23713401.591747206
1.7804391384124756	23877751.55468922
1.7841613292694092	23971399.036841463
1.7878772020339966	23489907.128401443
1.7915871143341064	22771368.805186402
1.7952908277511597	22637823.808431096
1.7989884614944458	22421264.870884527
1.8026801347732544	22267659.396428335
1.806365728378296	22171377.56388695
1.8100452423095703	22133942.88089472
1.8137187957763672	22889467.45025833
1.817386507987976	23564165.766984712
1.8210482597351074	24075001.759768635
1.8247040510177612	24442009.10629654
1.828354001045227	24231945.725759044
1.8319982290267944	24636442.738270808
1.8356364965438843	25524679.786199465
1.8392690420150757	25352354.704077043
1.8428958654403687	24436870.64876376
1.8465168476104736	23810346.458913695
1.8501322269439697	24114710.6883546
1.8537418842315674	24267823.83113035
1.8573459386825562	23493242.51107279
1.860944390296936	23044107.481246054
1.864537239074707	23318330.246869963
1.8681244850158691	23577743.073085517
1.871706247329712	23556980.527429584
1.8752825260162354	24093008.199962642
1.8788533210754395	25306157.182889048
1.8824186325073242	25844638.810100846
1.8859784603118896	26007259.41167589
1.8895330429077148	26816896.783863984
1.8930821418762207	27372151.536401715
1.8966259956359863	27288774.36397673
1.9001644849777222	26860355.705979344
1.9036977291107178	26962787.147513803
1.9072256088256836	27501083.468563728
1.9107483625411987	27383866.02778596
1.9142658710479736	27565689.179572396
1.9177782535552979	27495946.397545867
1.9212853908538818	26411956.854914967
1.9247875213623047	26511778.48332386
1.9282845258712769	27694072.954761904
1.9317764043807983	28048049.385109596
1.9352631568908691	27711605.542644404
1.9387450218200684	26902956.88167848
1.942221760749817	25761327.40784182
1.9456936120986938	25076233.08537016
1.9491604566574097	25548729.57702388
1.952622413635254	26313373.746700887
1.956079363822937	25832673.420047805
1.959531545639038	25647882.167453192
1.962978720664978	27447735.458647687
1.966421127319336	29254362.11898559
1.9698586463928223	29543307.111863546
1.9732913970947266	29199500.43914303
1.9767193794250488	29152521.27217306
1.9801424741744995	29847805.56583829
1.9835609197616577	30416588.50794322
1.9869745969772339	29966523.027493984
1.990383505821228	29389824.109973453
1.9937876462936401	29964612.55116251
1.9971871376037598	30437767.38492167
2.000581979751587	29922086.4917495
2.003972291946411	30051554.266417496
2.007357597351074	31026282.235009164
2.0107386112213135	31871100.59882255
2.0141148567199707	32044162.39316674
2.017486572265625	32036742.432193562
2.0208535194396973	32474410.880009513
2.0242159366607666	32587071.94434366
2.027573823928833	32006982.862077035
2.0309269428253174	31833504.231847975
2.034275770187378	32426875.572425418
2.0376198291778564	32846181.24365869
2.040959596633911	32901745.10254876
2.044294595718384	33232613.951660253
2.0476250648498535	33667024.96616414
2.0509510040283203	33897826.25029413
2.054272413253784	34131471.264464825
2.057589530944824	34349883.788766615
2.0609018802642822	34462215.944318265
2.0642096996307373	34577117.715569474
2.0675129890441895	34799296.3362497
2.0708119869232178	35023990.542276114
2.074106216430664	35195740.92055269
2.0773961544036865	35233677.63271206
2.080681324005127	35154051.62173558
2.0839622020721436	35230000.18774653
2.087238311767578	35457638.45791827
2.090510129928589	35685002.053243995
2.0937774181365967	35875791.4840924
2.0970399379730225	35987498.94598992
2.1002981662750244	36083236.42920145
2.1035518646240234	36206515.46854557
2.1068007946014404	36314981.55600921
2.1100454330444336	36367612.59775825
2.1132853031158447	36421684.53416891
2.116520881652832	36539308.61068875
2.1197516918182373	36690314.11931588
2.1229779720306396	36802985.641542114
2.12619948387146	36880336.61266303
2.1294167041778564	36985125.73017996
2.132629156112671	37104432.86112889
2.1358368396759033	37202038.10075922
2.139039993286133	37276691.51623769
2.1422386169433594	37353643.48359853
2.145432472229004	37425818.21400281
2.1486217975616455	37492327.04932584
2.151806354522705	37587806.67442777
2.1549863815307617	37676977.5091102
2.1581614017486572	37778521.28996181
2.16133189201355	37898841.964758866
2.1644976139068604	37978836.110908546
2.167658567428589	38047936.5651649
2.1708147525787354	38112885.28765327
2.173966407775879	38171044.78114857
2.1771130561828613	38267061.10539942
2.1802549362182617	38372813.70663478
2.183391809463501	38427090.260515705
2.1865241527557373	38480166.348594114
2.1896514892578125	38581963.643649966
2.1927738189697266	38669463.12329617
2.1958916187286377	38720743.68394631
2.1990041732788086	38769970.31878509
2.2021119594573975	38848721.17474734
2.2052149772644043	38963126.69673807
2.208312749862671	39067457.45744868
2.2114057540893555	39141773.10933918
2.214493751525879	39174487.20737436
2.217576742172241	39099136.74949069
2.2206547260284424	38994379.33432633
2.2237277030944824	39083048.87827894
2.2267956733703613	39273537.01020102
2.2298583984375	39405349.05235011
2.2329163551330566	39482149.59771127
2.235969066619873	39520552.49989125
2.2390167713165283	39620788.83520875
2.2420592308044434	39734081.67466643
2.2450966835021973	39810592.67407112
2.248128890991211	39949840.965008676
2.2511560916900635	40036813.42643235
2.254178285598755	39959026.527598664
2.257194995880127	39928817.9876151
2.260206699371338	40012963.58385516
2.2632133960723877	40048210.95085904
2.266214609146118	40073511.09168716
2.2692108154296875	40073284.46160479
2.2722020149230957	40180216.617962636
2.2751877307891846	40412834.13584417
2.278168201446533	40412215.12107726
2.2811436653137207	40411262.26178727
2.284113883972168	40578420.6113982
2.287078857421875	40645561.6443444
2.290038824081421	40422586.12991683
2.2929933071136475	39203146.60627255
2.295942783355713	38133879.31563605
2.298887014389038	38553364.85050057
2.301826238632202	38509289.76780868
2.304760217666626	37553517.27434098
2.3076889514923096	38218354.61621767
2.310612440109253	39984226.00033109
2.3135311603546143	40195915.505618945
2.3164443969726562	39797460.7342572
2.319352865219116	39491870.92214225
2.322256088256836	38073835.94326713
2.3251543045043945	36939204.83489979
2.328047275543213	37565781.25526478
2.330935478210449	38674238.72629106
2.3338186740875244	39242586.78326667
2.3366971015930176	39275296.880512856
2.3395702838897705	39568416.6026212
2.3424389362335205	40057864.44838126
2.3453025817871094	39689602.11578653
2.348161458969116	39458259.78046206
2.351015567779541	39040684.39450969
2.353865146636963	38480451.290251896
2.3567099571228027	38921187.199136674
2.3595502376556396	39107999.80512719
2.3623859882354736	39013929.69607836
2.3652172088623047	38995533.185423575
2.368043899536133	38767492.73094831
2.370866537094116	39122338.119520165
2.3736846446990967	39652854.74996192
2.3764986991882324	39125501.20656848
2.3793084621429443	38118472.52584803
2.3821144104003906	38251986.12602847
2.384916305541992	39075067.739912346
2.387714147567749	39587444.535617545
2.3905084133148193	39184423.85601727
2.393299102783203	37990607.729427814
2.3960859775543213	38562904.21709695
2.398869514465332	39792618.300905906
2.4016497135162354	39320431.48673037
2.4044265747070312	39351537.89390344
2.407200336456299	40188754.82745867
2.409970998764038	40318245.06427522
2.4127390384674072	39956371.47139426
2.415503978729248	39942507.520202056
2.418266534805298	40335903.22039565
2.4210267066955566	40247781.27592693
2.4237842559814453	40051240.05482532
2.426539897918701	40081091.05770088
2.429293394088745	39537827.52655853
2.4320452213287354	38188527.88162809
2.4347951412200928	36432278.67550533
2.4375438690185547	36588047.28973045
2.440291166305542	38205053.23902417
2.443037271499634	37882110.5217415
2.445782423019409	37556969.845072396
2.4485268592834473	38866904.514309764
2.451270818710327	38766321.818911046
2.454014539718628	37347781.58323508
2.4567582607269287	37403262.846407026
2.4595019817352295	37524165.7369715
2.4622461795806885	37533033.910212405
2.4649908542633057	37279023.977470264
2.4677364826202393	35374038.95531215
2.4704833030700684	34511432.45175103
2.473231554031372	33439231.775336478
2.4759814739227295	33404111.73442631
2.4787333011627197	35600739.12799711
2.481487512588501	35584815.078942716
