#wavelength	surface flux
0.6450077295303345	4575.10592759153
0.6472567915916443	7440.464009621699
0.6494921445846558	10287.325033443896
0.6517150402069092	12614.970071176856
0.6539263725280762	15232.186689427108
0.6561272740364075	18207.743413448123
0.6583186388015747	21595.104528172647
0.6605015397071838	25411.56082399525
0.6626768708229065	29596.196180345767
0.6648455858230591	34016.576801474184
0.6670085787773132	37072.87036789997
0.6691668033599854	35548.03802721245
0.6713210344314575	36145.53418770351
0.6734722256660461	47457.337291314514
0.6756211519241333	60631.96123494692
0.6777685880661011	68916.48648440737
0.6799154281616211	75580.13341297666
0.6820623278617859	81744.19496315952
0.6842101216316223	87397.31379223315
0.6863595843315125	92309.74732157361
0.688511312007904	95817.4710772561
0.6906660795211792	96406.61049375772
0.6928245425224304	95205.0964920841
0.6949873566627502	96531.58885116891
0.6971551775932312	99382.7915331646
0.6993286609649658	99189.86818227831
0.7015084028244019	96289.2052884765
0.7036949396133423	93007.89183423527
0.7058889269828796	89622.10288782581
0.7080909013748169	85601.84932500415
0.710301399230957	80690.23926708719
0.712520956993103	74886.7121742905
0.7147500514984131	67240.85865121364
0.7169892191886902	58083.73448312679
0.7192389369010925	51025.23604118512
0.7214996814727783	46215.72092060876
0.723771870136261	40851.08727173962
0.7260559797286987	35277.40601699261
0.7283523678779602	30833.12160402149
0.7306615710258484	27183.333444979213
0.7329838871955872	23998.691613099312
0.7353196740150452	21103.20969998754
0.7376693487167358	18065.690328667755
0.7400332689285278	15141.944541849341
0.7424117922782898	12558.96801590933
0.7448052167892456	10361.78396903667
0.7472138404846191	8479.92078786073
0.7496379613876343	6826.517462597084
0.7520779371261597	5408.590289865629
0.7545340061187744	4223.63624904451
0.7570064663887024	3244.66099756921
0.7594954967498779	2422.6886845991903
0.7620013952255249	1655.074296416046
0.7645244002342224	909.671193564412
0.7670646905899048	430.7816298073893
0.7696225643157959	481.2870571428904
0.7721980810165405	1157.2712416374138
0.7747915983200073	2277.604153159879
0.7774031162261963	3397.849433399098
0.7800329327583313	4697.396417474906
0.7826811671257019	6978.73034759833
0.7853479981422424	10178.306379083946
0.7880334854125977	13952.440825805283
0.7907378077507019	17623.567174847733
0.7934610247612	20338.277348204607
0.7962033748626709	26751.171042255835
0.7989648580551147	39307.36745294985
0.801745593547821	53281.87038254048
0.8045456409454346	67548.09463257746
0.8073651194572449	82611.06582184468
0.8102040886878967	97655.0625502607
0.8130625486373901	115427.70983837903
0.8159406185150146	141005.92330380002
0.8188382983207703	173397.81462731247
0.8217556476593018	207388.84280149592
0.8246926665306091	247953.14526748838
0.8276493549346924	296836.45665017574
0.8306257724761963	348340.001881312
0.8336219191551208	404545.64098084957
0.8366377949714661	467524.963513411
0.8396733403205872	539724.9900925222
0.8427285552024841	625192.0324897359
0.8458034992218018	718966.9471471657
0.8488980531692505	773140.544300896
0.8520121574401855	811555.1287981035
0.8551458716392517	976789.9671936139
0.8582990765571594	1182612.5356625249
0.8614717125892639	1273524.9228433978
0.8646637797355652	1351548.2176786894
0.8678751587867737	1504599.8486913682
0.8711057901382446	1682320.7195295647
0.8743556141853333	1847895.9287359284
0.87762451171875	1944416.3941466287
0.8809124231338501	1846814.735927272
0.8842192888259888	1636551.7738673354
0.8875449895858765	1497805.1727551832
0.8908893465995789	1372146.4405173308
0.894252359867096	1316689.5739400103
0.8976338505744934	1706484.510677203
0.9010337591171265	2541335.6328496044
0.9044519662857056	3433703.9107006793
0.9078882932662964	4029268.3855797094
0.9113426208496094	4220547.769896783
0.914814829826355	4220429.302630029
0.9183048605918884	4391672.014134424
0.9218124747276306	4572536.732115858
0.925337553024292	3829773.0667630425
0.9288799166679382	2423153.6812778385
0.9324395060539246	1726130.2351821314
0.9360161423683167	1898359.2542019445
0.9396095871925354	2346552.044540633
0.943219780921936	2692745.5369295026
0.9468464851379395	2840862.1710208594
0.9504896402359009	2927854.7754702843
0.9541489481925964	2938582.694071979
0.9578243494033813	2827571.374387935
0.9615156054496765	2875259.933169714
0.9652225375175476	3261423.6983523974
0.9689450263977051	3720537.3960070475
0.9726828336715698	4001671.261308848
0.9764357805252075	4245311.964649752
0.9802037477493286	4506237.126798811
0.983986496925354	4671237.300377512
0.9877838492393494	4950614.063357664
0.9915955662727356	5499080.15047299
0.9954215884208679	6110068.4646453075
0.9992615580558777	6601650.482808271
1.0031154155731201	7366678.376221679
1.0069829225540161	8509596.16451705
1.0108637809753418	9749490.860707898
1.0147579908370972	11238343.09444296
1.018665075302124	12957510.607528206
1.022585153579712	14630731.162049914
1.0265177488327026	16244892.751951873
1.0304628610610962	18039280.892058183
1.0344202518463135	20141319.16490041
1.0383895635604858	22290321.790688477
1.0423706769943237	24087151.404008724
1.0463634729385376	25376578.88302423
1.0503677129745483	26338068.176295113
1.0543830394744873	27385011.875074312
1.058409333229065	28441102.957348865
1.0624464750289917	29527557.180818476
1.0664942264556885	30543266.412675858
1.0705522298812866	31342631.49140775
1.0746204853057861	32418594.85745353
1.0786986351013184	33228819.457661025
1.0827864408493042	32440871.812800072
1.086883783340454	28001399.129117407
1.0909905433654785	19946864.48514815
1.0951062440872192	12579466.195448956
1.0992310047149658	8496777.654018337
1.10336434841156	6186690.437402738
1.1075061559677124	4376727.3443533825
1.1116561889648438	3048581.2312196875
1.115814208984375	2284813.398444352
1.1199802160263062	1984211.9977972796
1.124153733253479	1982678.6018243355
1.1283347606658936	2058179.362059677
1.1325229406356812	1786684.4293576644
1.1367181539535522	1740926.9783652164
1.1409201622009277	2218400.813221253
1.145128846168518	2425933.763147078
1.1493438482284546	2200054.318970475
1.1535650491714478	1864394.2202463055
1.1577922105789185	1732784.4435734912
1.1620250940322876	1711050.5798224022
1.1662636995315552	1780708.8246876907
1.170507550239563	2242540.67008461
1.174756646156311	2894058.1528451955
1.1790107488632202	3778882.791675805
1.1832695007324219	5034013.541248692
1.1875330209732056	6352651.819856902
1.191800832748413	8111791.772148942
1.1960728168487549	10331237.514015151
1.2003488540649414	12432716.172506046
1.2046287059783936	14725428.238508785
1.2089121341705322	16925833.436248973
1.2131990194320679	18840046.417035434
1.2174891233444214	20991645.671851322
1.2217823266983032	23355147.71847435
1.2260783910751343	26159947.91617095
1.230377197265625	29183482.359582234
1.2346785068511963	31812385.875872783
1.238982081413269	33392393.896860924
1.2432878017425537	34260784.82916125
1.2475954294204712	35241562.430352904
1.2519049644470215	35633953.9921897
1.256216049194336	38607458.429095
1.2605286836624146	42451384.4814068
1.2648425102233887	41980194.17342339
1.2691574096679688	39638231.91949498
1.2734732627868652	37618878.07574161
1.2777899503707886	36004021.48714128
1.2821072340011597	33729238.78741272
1.2864248752593994	30188178.208536256
1.2907428741455078	27493317.46744018
1.2950609922409058	26447664.097574785
1.2993791103363037	25075450.452178806
1.303696870803833	22881247.225181177
1.3080145120620728	20506147.373580985
1.3123314380645752	17852675.78407261
1.3166478872299194	15775889.902693722
1.3209635019302368	14574474.891831437
1.3252781629562378	12342802.669948842
1.3295916318893433	7843991.103829201
1.3339040279388428	3347955.445778453
1.3382149934768677	1220508.1845170849
1.3425244092941284	611951.3647089326
1.3468321561813354	344231.86239392427
1.3511382341384888	208140.3184354723
1.3554422855377197	141861.3413730932
1.3597444295883179	129750.49256905966
1.3640443086624146	169180.00129957186
1.3683418035507202	201394.31484539012
1.3726370334625244	222779.75806338905
1.3769296407699585	267804.8381748545
1.381219506263733	269185.27609536465
1.3855066299438477	242286.84787381673
1.3897908926010132	246352.53315956143
1.3940720558166504	246746.49965237096
1.3983501195907593	238048.20267529518
1.4026249647140503	236931.27013626686
1.4068963527679443	227481.70518627248
1.4111642837524414	235068.7236406401
1.4154287576675415	270620.03238419077
1.419689416885376	273808.9751344446
1.4239463806152344	274186.83412259095
1.4281994104385376	345681.53124339535
1.4324485063552856	437673.80594793253
1.436693549156189	498799.336353978
1.440934419631958	557686.7422465056
1.4451709985733032	662924.0573568869
1.449403166770935	906639.4151501516
1.453631043434143	1211374.101030089
1.4578542709350586	1389332.9406498692
1.4620729684829712	1415685.8024788955
1.4662868976593018	1349758.6912443265
1.4704961776733398	1231529.9536764699
1.4747005701065063	1228621.765166526
1.4788999557495117	1382999.413283658
1.4830944538116455	1520221.277734463
1.4872838258743286	1642339.0917543063
1.491468071937561	1776726.019471959
1.4956470727920532	1965151.4539405243
1.4998208284378052	2235764.47978073
1.5039892196655273	2422794.646502592
1.5081522464752197	2565442.1121211476
1.5123097896575928	2786219.013396711
1.5164618492126465	3048588.415259261
1.5206083059310913	3463910.914392757
1.5247491598129272	3964020.53866111
1.5288842916488647	4440281.050232837
1.5330137014389038	4948383.861582204
1.5371372699737549	5364568.921394491
1.541254997253418	5733713.451693483
1.545366883277893	6315658.796369549
1.5494728088378906	6829941.551378078
1.5535727739334106	6999851.979741119
1.5576666593551636	7477828.658165261
1.561754584312439	8829366.928589998
1.5658363103866577	10386146.630347129
1.5699119567871094	11123815.548233584
1.5739814043045044	11302479.066965332
1.5780447721481323	11640333.506452754
1.582101821899414	11924838.0654052
1.5861525535583496	11791315.568530533
1.5901970863342285	11222910.995663922
1.5942351818084717	10471664.588497287
1.5982669591903687	9580575.25845581
1.6022924184799194	8282022.666695985
1.606311559677124	6946099.456584542
1.6103241443634033	6007099.025044873
1.6143304109573364	5029150.581734071
1.6183301210403442	4094912.597267574
1.6223233938217163	3961652.22548176
1.6263102293014526	4419847.477179818
1.6302905082702637	4840253.348785817
1.634264349937439	5433913.333079661
1.638231635093689	6360264.932305624
1.6421923637390137	6460088.045893757
1.646146535873413	5331441.853322429
1.6500942707061768	5079221.481492845
1.6540353298187256	5236748.055685538
1.6579699516296387	4565755.657091672
1.661897897720337	4266796.9321211325
1.6658192873001099	2948425.3246143903
1.6697341203689575	1199725.9476525085
1.6736423969268799	1342966.413624138
1.677544116973877	2003001.67877707
1.6814392805099487	1964570.587211858
1.6853278875350952	1692156.0174705829
1.6892099380493164	1390477.9504922838
1.6930854320526123	1031729.2964304918
1.696954369544983	775914.8380203645
1.7008168697357178	668261.1736064482
1.7046726942062378	749124.8785279986
1.708522081375122	1031180.3235572237
1.712364912033081	1296040.7303918945
1.7162011861801147	1534685.0725202062
1.7200311422348022	1732331.7367320606
1.723854422569275	1645770.964643074
1.7276713848114014	1478631.2608604752
1.731481909751892	1374922.6754268254
1.7352858781814575	1359157.8875862446
1.7390835285186768	1563472.460380465
1.7428747415542603	1853660.6566009556
1.7466596364974976	2068017.2493892198
1.7504380941390991	2098837.2326762537
1.7542102336883545	1879405.734008802
1.7579760551452637	1622908.1058344417
1.7617355585098267	1508959.5802162427
1.7654887437820435	1405866.6055846028
1.7692357301712036	1210239.1246735547
1.7729763984680176	1062627.5934135013
1.776710867881775	1149845.2649070085
1.7804391384124756	1310488.0074670257
1.7841613292694092	1227848.9084970264
1.7878772020339966	1045162.6997500281
1.7915871143341064	856744.630160064
1.7952908277511597	785212.5184704539
1.7989884614944458	867480.810685728
1.8026801347732544	794262.4981299129
1.806365728378296	728738.3306653472
1.8100452423095703	801617.3907609425
1.8137187957763672	862944.348439852
1.817386507987976	797315.5232609501
1.8210482597351074	825982.3780001821
1.8247040510177612	997506.6804269315
1.828354001045227	902394.9831131101
1.8319982290267944	681445.2124494507
1.8356364965438843	561175.3924339677
1.8392690420150757	559656.3438378944
1.8428958654403687	700741.7444408385
1.8465168476104736	744877.7208981689
1.8501322269439697	700545.4052644278
1.8537418842315674	688155.6493729592
1.8573459386825562	589530.0063474668
1.860944390296936	469948.16124739277
1.864537239074707	410919.00514639344
1.8681244850158691	370218.5065773645
1.871706247329712	407987.27485545096
1.8752825260162354	607978.3771495918
1.8788533210754395	956210.5134166693
1.8824186325073242	1229417.9489571229
1.8859784603118896	1273775.282745172
1.8895330429077148	1249001.9993278484
1.8930821418762207	1384007.8326112176
1.8966259956359863	1483822.3359177709
1.9001644849777222	1253708.2955900847
1.9036977291107178	1064610.9861938928
1.9072256088256836	1163226.4741904086
1.9107483625411987	1150578.1853627712
1.9142658710479736	1027226.9988131156
1.9177782535552979	1066717.1050402643
1.9212853908538818	1058171.0746613913
1.9247875213623047	931923.4958078923
1.9282845258712769	781408.482728149
1.9317764043807983	657206.2559063641
1.9352631568908691	587455.9618778459
1.9387450218200684	535226.048612693
1.942221760749817	606218.8572612623
1.9456936120986938	714951.8277887449
1.9491604566574097	740611.0426549971
1.952622413635254	720710.2373358514
1.956079363822937	698951.2192096828
1.959531545639038	755171.6066911335
1.962978720664978	831900.2802079938
1.966421127319336	918380.5089954336
1.9698586463928223	997132.0371302557
1.9732913970947266	1022523.7527301307
1.9767193794250488	1110576.6880718863
1.9801424741744995	1183387.4889674396
1.9835609197616577	1252968.9211821775
1.9869745969772339	1387452.543883576
1.990383505821228	1531440.3378708533
1.9937876462936401	1811266.80253249
1.9971871376037598	2046553.082738799
2.000581979751587	2170683.084913176
2.003972291946411	2236758.5021391134
2.007357597351074	2229354.304570483
2.0107386112213135	2358892.0326343016
2.0141148567199707	2475133.366026385
2.017486572265625	2453063.362697219
2.0208535194396973	2766138.1078896793
2.0242159366607666	3257662.111496015
2.027573823928833	3347298.687291993
2.0309269428253174	3470096.6884410284
2.034275770187378	3915918.6802965575
2.0376198291778564	4162727.0754798697
2.040959596633911	4147423.6192281996
2.044294595718384	4485195.798567037
2.0476250648498535	5079544.096296396
2.0509510040283203	5191390.417132698
2.054272413253784	5186469.3476432385
2.057589530944824	5659961.1588325435
2.0609018802642822	5922438.950436159
2.0642096996307373	5933345.150290186
2.0675129890441895	6164028.518202457
2.0708119869232178	6325616.11521631
2.074106216430664	6380919.019884354
2.0773961544036865	6393910.535279701
2.080681324005127	6414071.5186720705
2.0839622020721436	6428737.683242945
2.087238311767578	6433531.560698215
2.090510129928589	6528745.972493467
2.0937774181365967	6499251.514866801
2.0970399379730225	6288144.704545766
2.1002981662750244	5997709.136870931
2.1035518646240234	5751249.973886522
2.1068007946014404	5518097.099103099
2.1100454330444336	5240750.942277064
2.1132853031158447	5106121.019090675
2.116520881652832	4909941.763232017
2.1197516918182373	4661900.314673724
2.1229779720306396	4571612.238482627
2.12619948387146	4464762.419697236
2.1294167041778564	4298687.422756153
2.132629156112671	4181104.155462266
2.1358368396759033	4004347.413668719
2.139039993286133	3606720.0884211143
2.1422386169433594	3018856.736754356
2.145432472229004	2498972.9899413288
2.1486217975616455	2331559.153642373
2.151806354522705	2314627.7912808815
2.1549863815307617	2208813.1306421794
2.1581614017486572	2041476.190478925
2.16133189201355	1829918.806779527
2.1644976139068604	1635221.5101946855
2.167658567428589	1453725.881760916
2.1708147525787354	1355142.7892816064
2.173966407775879	1315050.7548156783
2.1771130561828613	1221734.4562700768
2.1802549362182617	1128274.0458475575
2.183391809463501	1015292.6750412151
2.1865241527557373	881258.3508486733
2.1896514892578125	730930.6832304742
2.1927738189697266	539136.288606146
2.1958916187286377	342704.97633226437
2.1990041732788086	184827.70649301854
2.2021119594573975	102923.39810609164
2.2052149772644043	89145.75240647043
2.208312749862671	112660.68272348988
2.2114057540893555	159735.02265483412
2.214493751525879	213139.89013714797
2.217576742172241	252500.01073573387
2.2206547260284424	262551.44938678254
2.2237277030944824	244667.01925133518
2.2267956733703613	217273.0948364126
2.2298583984375	191253.65973178868
2.2329163551330566	174825.5057221814
2.235969066619873	163539.70938116245
2.2390167713165283	140666.24049403676
2.2420592308044434	118473.61147620447
2.2450966835021973	103284.08577569619
2.248128890991211	90806.7828918271
2.2511560916900635	84100.97058607664
2.254178285598755	80543.46452464667
2.257194995880127	81321.9605477412
2.260206699371338	85528.35184707362
2.2632133960723877	89033.39404406029
2.266214609146118	91179.75587676639
2.2692108154296875	92757.70432779499
2.2722020149230957	92832.2268867758
2.2751877307891846	88277.00891502503
2.278168201446533	84697.73687990516
2.2811436653137207	79985.11684722985
2.284113883972168	66741.17933876412
2.287078857421875	54615.582640552704
2.290038824081421	47987.62776046978
2.2929933071136475	44385.60990800217
2.295942783355713	46133.44575574251
2.298887014389038	54887.578919406384
2.301826238632202	66104.86777382207
2.304760217666626	84578.82173242963
2.3076889514923096	127069.46820003091
2.310612440109253	187125.91584470557
2.3135311603546143	206671.10927967826
2.3164443969726562	137911.45985105317
2.319352865219116	58771.6550701465
2.322256088256836	37657.27197542832
2.3251543045043945	37048.0976262588
2.328047275543213	38122.27403437133
2.330935478210449	45146.31633650587
2.3338186740875244	53952.42396119243
2.3366971015930176	61488.82053708898
2.3395702838897705	66215.67383709227
2.3424389362335205	65327.5378944206
2.3453025817871094	58156.66792886835
2.348161458969116	54817.36391945933
2.351015567779541	60693.961627032164
2.353865146636963	69225.97883592585
2.3567099571228027	79185.43784170956
2.3595502376556396	93082.32977889337
2.3623859882354736	109433.16683249902
2.3652172088623047	122878.31239381628
2.368043899536133	115735.00699424295
2.370866537094116	78613.19171505298
2.3736846446990967	53790.815614255414
2.3764986991882324	57642.81272161863
2.3793084621429443	58662.242900983736
2.3821144104003906	54989.81018055226
2.384916305541992	67699.78534115464
2.387714147567749	95414.61670993223
2.3905084133148193	108233.46909968308
2.393299102783203	105097.9452524709
2.3960859775543213	110254.46979582225
2.398869514465332	128647.63019016081
2.4016497135162354	153568.17630679597
2.4044265747070312	182939.1937535565
2.407200336456299	201173.07879740218
2.409970998764038	213951.22989888705
2.4127390384674072	231352.5385327088
2.415503978729248	227317.17465573573
2.418266534805298	207770.77867283826
2.4210267066955566	192056.53373463263
2.4237842559814453	169501.42591465134
2.426539897918701	161189.36513342158
2.429293394088745	189216.58564138238
2.4320452213287354	213489.18718561664
2.4347951412200928	212779.02718135633
2.4375438690185547	239991.51085805372
2.440291166305542	290256.19597780274
2.443037271499634	304348.9410438623
2.445782423019409	298127.7266793389
2.4485268592834473	303173.59615094075
2.451270818710327	316680.3085859855
2.454014539718628	339555.5870449852
2.4567582607269287	377897.1010913792
2.4595019817352295	412171.3166114318
2.4622461795806885	453352.29890477215
2.4649908542633057	503207.5718549197
2.4677364826202393	486261.35427482816
2.4704833030700684	437667.8849408905
2.473231554031372	425259.9248050495
2.4759814739227295	451870.1583122233
2.4787333011627197	480822.6656507514
2.481487512588501	488780.7767876972
