#wavelength	surface flux
0.6450077295303345	3042.7431166836277
0.6472567915916443	4828.144702969031
0.6494921445846558	6384.560849299476
0.6517150402069092	7444.767243069959
0.6539263725280762	8568.845151649239
0.6561272740364075	9787.307567927317
0.6583186388015747	11101.406546972215
0.6605015397071838	12517.710896864872
0.6626768708229065	14019.44842531179
0.6648455858230591	15574.343880347758
0.6670085787773132	16853.88278384318
0.6691668033599854	16989.664827580673
0.6713210344314575	17510.83079670268
0.6734722256660461	20448.2382099967
0.6756211519241333	23534.649932253888
0.6777685880661011	25326.088235676176
0.6799154281616211	26767.34568419423
0.6820623278617859	28040.65601270394
0.6842101216316223	29125.994672227975
0.6863595843315125	29989.94956709291
0.688511312007904	30568.398311895537
0.6906660795211792	30701.85001856864
0.6928245425224304	30478.205892251597
0.6949873566627502	30333.175392978766
0.6971551775932312	30179.548590056216
0.6993286609649658	29590.53494793094
0.7015084028244019	28625.416420249534
0.7036949396133423	27515.642215642725
0.7058889269828796	26305.523087835143
0.7080909013748169	24975.71943324185
0.710301399230957	23534.23709743199
0.712520956993103	21980.531695933765
0.7147500514984131	20199.15592627369
0.7169892191886902	18200.1464718361
0.7192389369010925	16446.20269438266
0.7214996814727783	15034.803402646807
0.723771870136261	13623.11851807607
0.7260559797286987	12249.8953460277
0.7283523678779602	11031.118714815037
0.7306615710258484	9948.862645238936
0.7329838871955872	9049.65841181257
0.7353196740150452	8254.538530775679
0.7376693487167358	7458.319767421644
0.7400332689285278	6711.835484717426
0.7424117922782898	6038.291097890125
0.7448052167892456	5425.51901148528
0.7472138404846191	4862.109439403444
0.7496379613876343	4338.894210979298
0.7520779371261597	3843.9435071551834
0.7545340061187744	3357.407688645866
0.7570064663887024	2864.34382986641
0.7594954967498779	2348.734546589013
0.7620013952255249	1759.2246818440838
0.7645244002342224	1086.2042122140786
0.7670646905899048	609.0916894402257
0.7696225643157959	667.9022503269882
0.7721980810165405	1345.7854859590047
0.7747915983200073	2351.004590249251
0.7774031162261963	3162.1846813969273
0.7800329327583313	3903.1807009972094
0.7826811671257019	5255.980353974563
0.7853479981422424	7000.049551315461
0.7880334854125977	8673.230568418947
0.7907378077507019	10070.132455780793
0.7934610247612	10900.71311823623
0.7962033748626709	13101.486692792632
0.7989648580551147	17583.11222575948
0.801745593547821	22290.164197658625
0.8045456409454346	26864.8130552463
0.8073651194572449	31924.1411445086
0.8102040886878967	37319.759139719856
0.8130625486373901	43350.65694071838
0.8159406185150146	51244.95418966722
0.8188382983207703	61350.25239463879
0.8217556476593018	72379.27956672304
0.8246926665306091	85269.38870435234
0.8276493549346924	100786.07237570941
0.8306257724761963	117627.80757503423
0.8336219191551208	136491.40180654763
0.8366377949714661	158323.40019058442
0.8396733403205872	183152.57856396722
0.8427285552024841	211210.7648894505
0.8458034992218018	241338.6790284018
0.8488980531692505	263656.3666213139
0.8520121574401855	284077.41321847396
0.8551458716392517	334438.90272620606
0.8582990765571594	400517.9190804542
0.8614717125892639	454836.26563970797
0.8646637797355652	509233.9211336531
0.8678751587867737	571988.9624904415
0.8711057901382446	641527.0233295406
0.8743556141853333	713785.3277598559
0.87762451171875	779479.4236059478
0.8809124231338501	821444.4476270947
0.8842192888259888	847043.0201360891
0.8875449895858765	875051.2515416803
0.8908893465995789	866342.0242870895
0.894252359867096	845588.966597008
0.8976338505744934	982934.5918111556
0.9010337591171265	1273673.4251616069
0.9044519662857056	1554355.3171307847
0.9078882932662964	1742348.0477814705
0.9113426208496094	1854274.0875210557
0.914814829826355	1953752.3965351172
0.9183048605918884	2098550.402870377
0.9218124747276306	2218458.7510917056
0.925337553024292	1952364.5983162653
0.9288799166679382	1290363.0709291687
0.9324395060539246	925400.3769331796
0.9360161423683167	1196004.7405905752
0.9396095871925354	1695384.0676485826
0.943219780921936	1874053.532452696
0.9468464851379395	1766792.8754455948
0.9504896402359009	1752562.709562584
0.9541489481925964	1781843.5104203825
0.9578243494033813	1787666.2067112436
0.9615156054496765	1947619.4381689404
0.9652225375175476	2417542.891170624
0.9689450263977051	3068009.694986338
0.9726828336715698	3576436.1068959823
0.9764357805252075	3966351.529685366
0.9802037477493286	4387756.433162527
0.983986496925354	4828405.754536612
0.9877838492393494	5363033.4736229675
0.9915955662727356	6044574.952214504
0.9954215884208679	6774679.570563556
0.9992615580558777	7504013.975202769
1.0031154155731201	8324628.334645591
1.0069829225540161	9147086.670120342
1.0108637809753418	9787880.286969293
1.0147579908370972	10242801.980068406
1.018665075302124	10621387.856501501
1.022585153579712	11160291.19927604
1.0265177488327026	11913394.648627125
1.0304628610610962	12539834.949074952
1.0344202518463135	12957254.934355633
1.0383895635604858	13518401.981371269
1.0423706769943237	14213989.481011083
1.0463634729385376	14799693.571480487
1.0503677129745483	15314750.601025455
1.0543830394744873	15839464.077752287
1.058409333229065	16275822.736621356
1.0624464750289917	16564222.450456487
1.0664942264556885	16709727.199354446
1.0705522298812866	16747539.531149648
1.0746204853057861	16817348.574132152
1.0786986351013184	16877694.733768504
1.0827864408493042	16665230.36742934
1.086883783340454	15644245.496948369
1.0909905433654785	13368902.34258313
1.0951062440872192	10297721.350681733
1.0992310047149658	7301356.490380076
1.10336434841156	4772265.828986512
1.1075061559677124	2886863.4503250704
1.1116561889648438	1673940.1475933525
1.115814208984375	1094898.1383950706
1.1199802160263062	1067492.623462974
1.124153733253479	1388459.5307372606
1.1283347606658936	1651996.584558217
1.1325229406356812	1533236.8207959868
1.1367181539535522	1777660.8888572222
1.1409201622009277	2385981.547692503
1.145128846168518	2420546.7221371466
1.1493438482284546	2116689.173680287
1.1535650491714478	1782150.9109449815
1.1577922105789185	1563403.5157475914
1.1620250940322876	1638575.7683913694
1.1662636995315552	1925548.9982486623
1.170507550239563	2531788.7140916563
1.174756646156311	3391969.3039717427
1.1790107488632202	4525567.842918472
1.1832695007324219	5960976.4081245
1.1875330209732056	7372420.187435443
1.191800832748413	8752987.646861957
1.1960728168487549	10232667.358174883
1.2003488540649414	11660747.18955587
1.2046287059783936	12997117.107400397
1.2089121341705322	14110895.119855072
1.2131990194320679	15041059.361708097
1.2174891233444214	16030864.588395264
1.2217823266983032	17026740.32911099
1.2260783910751343	18156177.054701507
1.230377197265625	19458182.2233627
1.2346785068511963	20649939.226054445
1.238982081413269	21499178.006644085
1.2432878017425537	22079146.18687745
1.2475954294204712	22438577.18097741
1.2519049644470215	22739891.444240373
1.256216049194336	24431902.454832055
1.2605286836624146	27008982.747434787
1.2648425102233887	28380157.756504416
1.2691574096679688	28417014.14971627
1.2734732627868652	27534673.261425264
1.2777899503707886	26042341.56758432
1.2821072340011597	24015529.015124414
1.2864248752593994	21775736.83470385
1.2907428741455078	20099833.904784236
1.2950609922409058	19129537.190356817
1.2993791103363037	18293525.749659177
1.303696870803833	17331727.845561355
1.3080145120620728	16302846.923359336
1.3123314380645752	14710258.33357725
1.3166478872299194	13052061.622181738
1.3209635019302368	11700200.1955699
1.3252781629562378	9378731.234122448
1.3295916318893433	5835941.426605233
1.3339040279388428	2578629.496194474
1.3382149934768677	838169.717460865
1.3425244092941284	263662.26811428653
1.3468321561813354	102872.49894001886
1.3511382341384888	55257.00501040828
1.3554422855377197	31576.541884329792
1.3597444295883179	27250.703653481836
1.3640443086624146	40386.1088696847
1.3683418035507202	56224.03362285583
1.3726370334625244	86248.55944953894
1.3769296407699585	127306.88415460735
1.381219506263733	115834.88990462861
1.3855066299438477	74255.16660589064
1.3897908926010132	63830.85529226814
1.3940720558166504	67141.18246025471
1.3983501195907593	74196.45353281734
1.4026249647140503	87571.36432574548
1.4068963527679443	92408.24102743217
1.4111642837524414	91213.8121803338
1.4154287576675415	95319.80702227363
1.419689416885376	98731.18196925925
1.4239463806152344	119111.64422897692
1.4281994104385376	178179.04226902325
1.4324485063552856	226745.73031243615
1.436693549156189	246001.0780809173
1.440934419631958	290584.97135240154
1.4451709985733032	389942.84732115874
1.449403166770935	554447.2838762181
1.453631043434143	740240.261496084
1.4578542709350586	905531.7311047204
1.4620729684829712	940395.8784357033
1.4662868976593018	815469.7038598907
1.4704961776733398	671308.4408439402
1.4747005701065063	626686.8182925706
1.4788999557495117	679386.9135122349
1.4830944538116455	739511.0504433473
1.4872838258743286	794465.2368355854
1.491468071937561	881610.1296262628
1.4956470727920532	1042736.7950632958
1.4998208284378052	1295336.645865115
1.5039892196655273	1488211.2145265904
1.5081522464752197	1455098.5425318438
1.5123097896575928	1316262.9361415254
1.5164618492126465	1414307.6556732832
1.5206083059310913	1847582.926440201
1.5247491598129272	2300744.326422434
1.5288842916488647	2673524.501573055
1.5330137014389038	3054526.1673504156
1.5371372699737549	3407920.7858808655
1.541254997253418	3770966.7653664276
1.545366883277893	4191123.3474569763
1.5494728088378906	4633899.43396245
1.5535727739334106	5147531.927524058
1.5576666593551636	5847163.820373977
1.561754584312439	6809660.603538233
1.5658363103866577	7877677.782519068
1.5699119567871094	8641975.57941815
1.5739814043045044	9062804.396010976
1.5780447721481323	9459881.039820403
1.582101821899414	9852813.31373051
1.5861525535583496	10039699.54819319
1.5901970863342285	9932219.130967554
1.5942351818084717	9630387.585309595
1.5982669591903687	9174797.29368403
1.6022924184799194	8440055.476023883
1.606311559677124	7491101.511713529
1.6103241443634033	6482094.059220986
1.6143304109573364	5409104.538523465
1.6183301210403442	4403238.698083061
1.6223233938217163	3697725.0369588486
1.6263102293014526	3259693.994864194
1.6302905082702637	3040155.6693050493
1.634264349937439	3177732.132416797
1.638231635093689	3586637.21797227
1.6421923637390137	3825520.3303388753
1.646146535873413	3714633.589775191
1.6500942707061768	3716380.4353208817
1.6540353298187256	3771767.9998299535
1.6579699516296387	3851275.11722459
1.661897897720337	3753880.990568338
1.6658192873001099	2401828.3112318376
1.6697341203689575	1250726.8869371857
1.6736423969268799	1760514.9116180616
1.677544116973877	2421026.510164265
1.6814392805099487	2388229.7264916124
1.6853278875350952	2132906.3389395196
1.6892099380493164	1876330.3066210558
1.6930854320526123	1586575.5861352803
1.696954369544983	1334997.64206076
1.7008168697357178	1171015.3120668177
1.7046726942062378	1172989.2726170544
1.708522081375122	1433918.5833949742
1.712364912033081	1768711.315299545
1.7162011861801147	2089706.1839354397
1.7200311422348022	2322866.397301593
1.723854422569275	2242662.4954803167
1.7276713848114014	2106648.33302273
1.731481909751892	2092502.2417927529
1.7352858781814575	2107021.264756584
1.7390835285186768	2178107.8438501973
1.7428747415542603	2257293.8917968106
1.7466596364974976	2237208.1097478983
1.7504380941390991	2091408.9863555084
1.7542102336883545	1801872.816267949
1.7579760551452637	1517074.6524725482
1.7617355585098267	1353557.943204332
1.7654887437820435	1182314.7303475258
1.7692357301712036	1009184.8243854414
1.7729763984680176	873372.554283764
1.776710867881775	779395.4964847105
1.7804391384124756	734875.0826010876
1.7841613292694092	637202.5708128342
1.7878772020339966	526014.7314508687
1.7915871143341064	437736.84320008254
1.7952908277511597	380567.06900540716
1.7989884614944458	375909.0026717732
1.8026801347732544	296885.29512279236
1.806365728378296	231954.9454045925
1.8100452423095703	245449.48140795104
1.8137187957763672	248874.00723477977
1.817386507987976	223070.4074807803
1.8210482597351074	245634.0137765659
1.8247040510177612	304586.1893170517
1.828354001045227	250724.54740935593
1.8319982290267944	168453.16442716925
1.8356364965438843	141821.99096078912
1.8392690420150757	143415.51267679883
1.8428958654403687	206649.03266193467
1.8465168476104736	246713.63864912506
1.8501322269439697	240196.50004970917
1.8537418842315674	228046.71441598926
1.8573459386825562	187605.00517689454
1.860944390296936	148701.1039636506
1.864537239074707	120505.36810389854
1.8681244850158691	89952.51053999887
1.871706247329712	91623.0430221371
1.8752825260162354	177142.9958414217
1.8788533210754395	337980.1216113057
1.8824186325073242	443063.7202668713
1.8859784603118896	428405.0193518598
1.8895330429077148	394338.31025231
1.8930821418762207	447282.9125541352
1.8966259956359863	481944.0024684665
1.9001644849777222	359637.65417378384
1.9036977291107178	250588.03301159144
1.9072256088256836	255973.21343981713
1.9107483625411987	245753.187254991
1.9142658710479736	207071.86731459782
1.9177782535552979	207182.70227374934
1.9212853908538818	200226.3471382965
1.9247875213623047	168116.40497713778
1.9282845258712769	141488.54486790174
1.9317764043807983	126080.12159338806
1.9352631568908691	116987.97402807388
1.9387450218200684	105731.7646129317
1.942221760749817	117671.85801076694
1.9456936120986938	143061.1715496285
1.9491604566574097	157023.59955081771
1.952622413635254	158653.5971471713
1.956079363822937	168736.36078060203
1.959531545639038	202155.19984861245
1.962978720664978	232537.46953476535
1.966421127319336	262162.50468599703
1.9698586463928223	270827.050009551
1.9732913970947266	274181.94241867296
1.9767193794250488	322303.7881727708
1.9801424741744995	346467.00029174803
1.9835609197616577	368633.46883932996
1.9869745969772339	428660.13511042605
1.990383505821228	458632.84552737605
1.9937876462936401	526358.2759689408
1.9971871376037598	625587.6786070449
2.000581979751587	667133.7603546608
2.003972291946411	677336.9144488223
2.007357597351074	692486.8467692531
2.0107386112213135	735871.110292643
2.0141148567199707	748171.3910345676
2.017486572265625	685560.2801118998
2.0208535194396973	683456.5678515421
2.0242159366607666	774047.790114974
2.027573823928833	827773.4924586394
2.0309269428253174	871770.2553817184
2.034275770187378	949230.1359874245
2.0376198291778564	1001726.2533074192
2.040959596633911	1043367.9568480767
2.044294595718384	1143658.6958517297
2.0476250648498535	1257724.312376213
2.0509510040283203	1318342.6413004072
2.054272413253784	1375006.9364448534
2.057589530944824	1462516.1679052245
2.0609018802642822	1539898.915765689
2.0642096996307373	1593444.1952516818
2.0675129890441895	1644232.242887756
2.0708119869232178	1692209.3125513499
2.074106216430664	1732553.8132266616
2.0773961544036865	1762006.7274990277
2.080681324005127	1787270.9143512265
2.0839622020721436	1816718.315493841
2.087238311767578	1840924.3677701754
2.090510129928589	1859054.172777267
2.0937774181365967	1862879.313149212
2.0970399379730225	1851942.3027117215
2.1002981662750244	1835831.8490272474
2.1035518646240234	1823958.0335755763
2.1068007946014404	1811056.6242437747
2.1100454330444336	1790315.0231756915
2.1132853031158447	1779805.9644971658
2.116520881652832	1754971.111877682
2.1197516918182373	1719648.8096665319
2.1229779720306396	1697917.357519911
2.12619948387146	1674205.345746017
2.1294167041778564	1644451.0872228679
2.132629156112671	1614802.1034778205
2.1358368396759033	1578859.3736239644
2.139039993286133	1528183.1572122371
2.1422386169433594	1443539.66004619
2.145432472229004	1353515.4323273797
2.1486217975616455	1300422.6798855963
2.151806354522705	1259660.4849619146
2.1549863815307617	1215760.5043282125
2.1581614017486572	1163242.2463497198
2.16133189201355	1083282.1336242543
2.1644976139068604	1010262.6969248329
2.167658567428589	955961.8747703512
2.1708147525787354	907763.5666579664
2.173966407775879	865753.8509046547
2.1771130561828613	805377.9734386377
2.1802549362182617	744326.404053227
2.183391809463501	698002.8552576569
2.1865241527557373	655433.6775848883
2.1896514892578125	579585.0008798916
2.1927738189697266	456266.61672891997
2.1958916187286377	318273.72537198296
2.1990041732788086	193726.38782229475
2.2021119594573975	127657.51191143943
2.2052149772644043	141864.54251132085
2.208312749862671	201694.3521210217
2.2114057540893555	247453.82703975934
2.214493751525879	261365.1688924974
2.217576742172241	267757.56658633775
2.2206547260284424	259068.40313948545
2.2237277030944824	240355.40194731377
2.2267956733703613	215847.7555119528
2.2298583984375	183382.54758455275
2.2329163551330566	174802.71544164437
2.235969066619873	177393.40010434034
2.2390167713165283	157147.16527213866
2.2420592308044434	136552.76642664327
2.2450966835021973	125317.07507822334
2.248128890991211	109859.10647534573
2.2511560916900635	99297.73194833734
2.254178285598755	91755.86185576636
2.257194995880127	85321.29169949537
2.260206699371338	84776.16197401065
2.2632133960723877	87219.13197377375
2.266214609146118	92813.03188685406
2.2692108154296875	100391.46758466573
2.2722020149230957	107333.28892211028
2.2751877307891846	106615.25102465691
2.278168201446533	105813.1082013014
2.2811436653137207	104067.13419990148
2.284113883972168	91609.38972484425
2.287078857421875	84355.72010648379
2.290038824081421	80427.7484236929
2.2929933071136475	74373.04054031886
2.295942783355713	74117.09253951532
2.298887014389038	82526.13212312087
2.301826238632202	96335.56372772872
2.304760217666626	120341.19222491521
2.3076889514923096	179503.7927107252
2.310612440109253	261589.15196108873
2.3135311603546143	267117.87117280735
2.3164443969726562	154949.52129479244
2.319352865219116	58757.55254163784
2.322256088256836	52417.76491121646
2.3251543045043945	68716.22258800254
2.328047275543213	71970.3783002204
2.330935478210449	70789.36425083196
2.3338186740875244	72270.88558866511
2.3366971015930176	72489.57623763102
2.3395702838897705	70128.71032586871
2.3424389362335205	69911.20423501043
2.3453025817871094	67964.06885631851
2.348161458969116	69090.00565465208
2.351015567779541	80209.8148163149
2.353865146636963	94281.46370464592
2.3567099571228027	112249.99617510093
2.3595502376556396	143976.34499684646
2.3623859882354736	174854.71670905707
2.3652172088623047	174880.80045327797
2.368043899536133	132961.4963020409
2.370866537094116	74626.10985879567
2.3736846446990967	55405.56724895294
2.3764986991882324	79772.07063122369
2.3793084621429443	104939.20323005103
2.3821144104003906	111305.30364029497
2.384916305541992	121049.08529929792
2.387714147567749	147988.81911838704
2.3905084133148193	161929.06245211765
2.393299102783203	154713.28483738625
2.3960859775543213	156010.90347827386
2.398869514465332	185421.0817038169
2.4016497135162354	216838.27244846028
2.4044265747070312	222641.339625789
2.407200336456299	218876.01367458524
2.409970998764038	256120.6257971733
2.4127390384674072	313926.0065235091
2.415503978729248	294615.8450863481
2.418266534805298	248497.20308470994
2.4210267066955566	259698.25018178488
2.4237842559814453	259757.08489177693
2.426539897918701	248232.93265232973
2.429293394088745	300958.28443672135
2.4320452213287354	352801.3316065686
2.4347951412200928	329876.2154128601
2.4375438690185547	348369.93905549234
2.440291166305542	428095.8419422599
2.443037271499634	438031.3848760557
2.445782423019409	393626.8220030824
2.4485268592834473	376881.0360824762
2.451270818710327	382606.5775875216
2.454014539718628	412223.61792592617
2.4567582607269287	466685.4922351395
2.4595019817352295	487022.0759123594
2.4622461795806885	510008.48576303915
2.4649908542633057	555985.0755346691
2.4677364826202393	519758.32914739556
2.4704833030700684	443094.87037825404
2.473231554031372	404361.80117244646
2.4759814739227295	404870.68329367443
2.4787333011627197	417320.70209895907
