#wavelength	surface flux
0.6450077295303345	402.55382449220264
0.6472567915916443	641.927108621886
0.6494921445846558	861.3418646245193
0.6517150402069092	1020.8868229153261
0.6539263725280762	1190.8073208837577
0.6561272740364075	1373.9675949595198
0.6583186388015747	1575.2612888043357
0.6605015397071838	1804.0100156059104
0.6626768708229065	2053.2788320412756
0.6648455858230591	2315.766331808281
0.6670085787773132	2545.5114057608885
0.6691668033599854	2618.1393962934153
0.6713210344314575	2740.052788073625
0.6734722256660461	3188.4538668196487
0.6756211519241333	3646.0244526648376
0.6777685880661011	3912.664559220052
0.6799154281616211	4120.300002836736
0.6820623278617859	4292.515364681924
0.6842101216316223	4426.145346905055
0.6863595843315125	4513.544772741455
0.688511312007904	4521.3051720006315
0.6906660795211792	4339.33470696214
0.6928245425224304	4037.7455402361293
0.6949873566627502	3958.924549177846
0.6971551775932312	4052.0663396349546
0.6993286609649658	3975.334653434012
0.7015084028244019	3760.892732764783
0.7036949396133423	3582.311722751854
0.7058889269828796	3448.0260521671967
0.7080909013748169	3315.2278778717714
0.710301399230957	3165.372713233433
0.712520956993103	2978.7052924978175
0.7147500514984131	2666.2507662506046
0.7169892191886902	2219.9082999800016
0.7192389369010925	1912.855937394444
0.7214996814727783	1802.650963030916
0.723771870136261	1662.264747682356
0.7260559797286987	1499.324911401486
0.7283523678779602	1401.640278473718
0.7306615710258484	1358.706642353585
0.7329838871955872	1388.569890243924
0.7353196740150452	1435.7512981768862
0.7376693487167358	1433.4274495743412
0.7400332689285278	1424.6308246174797
0.7424117922782898	1425.7020539816706
0.7448052167892456	1422.794303878104
0.7472138404846191	1401.927630551018
0.7496379613876343	1352.7011425313492
0.7520779371261597	1270.2245886123367
0.7545340061187744	1150.2679429225132
0.7570064663887024	994.0676836070623
0.7594954967498779	803.942155928233
0.7620013952255249	577.3337355666691
0.7645244002342224	333.5035945712954
0.7670646905899048	170.67094772655653
0.7696225643157959	189.709723932364
0.7721980810165405	422.9105394062081
0.7747915983200073	788.5381014693834
0.7774031162261963	1090.5705315854361
0.7800329327583313	1345.8241491676579
0.7826811671257019	1799.1740905404772
0.7853479981422424	2348.1610847446345
0.7880334854125977	2795.16406748104
0.7907378077507019	3099.648484081618
0.7934610247612	3184.514958558169
0.7962033748626709	3539.0564221739646
0.7989648580551147	4389.7894307877
0.801745593547821	5205.462866015976
0.8045456409454346	5884.394220062149
0.8073651194572449	6441.33019564607
0.8102040886878967	6649.022338161273
0.8130625486373901	6752.5564595646365
0.8159406185150146	7587.968864237151
0.8188382983207703	9253.769409561195
0.8217556476593018	10763.126632858675
0.8246926665306091	12487.460750063034
0.8276493549346924	14840.178055737046
0.8306257724761963	17107.62874615666
0.8336219191551208	19590.232424823444
0.8366377949714661	22745.6624567912
0.8396733403205872	26647.74479488642
0.8427285552024841	31468.519044920322
0.8458034992218018	37189.58906873996
0.8488980531692505	42060.28022493113
0.8520121574401855	46439.621275972466
0.8551458716392517	55058.14716981726
0.8582990765571594	65090.8077975522
0.8614717125892639	71931.03808730804
0.8646637797355652	79534.18782984861
0.8678751587867737	91069.79698826137
0.8711057901382446	104715.11693242006
0.8743556141853333	116585.21680717693
0.87762451171875	119814.99425933394
0.8809124231338501	104930.34547284053
0.8842192888259888	81091.75670926366
0.8875449895858765	66300.1705505607
0.8908893465995789	57491.66234101018
0.894252359867096	51765.795727138626
0.8976338505744934	69174.62975383873
0.9010337591171265	124775.56900435516
0.9044519662857056	195288.15449313095
0.9078882932662964	233576.73181076848
0.9113426208496094	234014.05815200417
0.914814829826355	223921.59475574244
0.9183048605918884	232977.16172391095
0.9218124747276306	246045.785814532
0.925337553024292	187081.9160535328
0.9288799166679382	80579.32067431202
0.9324395060539246	25922.56722974761
0.9360161423683167	31738.12316569128
0.9396095871925354	55655.30286516832
0.943219780921936	65689.34010348204
0.9468464851379395	58753.79853229178
0.9504896402359009	52472.52847604214
0.9541489481925964	48390.07919422192
0.9578243494033813	45811.33116111108
0.9615156054496765	54013.67922647742
0.9652225375175476	88271.94787464345
0.9689450263977051	136700.63658875413
0.9726828336715698	161977.86728087586
0.9764357805252075	173988.88023201405
0.9802037477493286	192132.537644898
0.983986496925354	206972.99174335785
0.9877838492393494	231918.98893651224
0.9915955662727356	293059.41217329033
0.9954215884208679	401679.15341169474
0.9992615580558777	566070.4848207363
1.0031154155731201	770104.1385781413
1.0069829225540161	933811.504505056
1.0108637809753418	999124.7258928439
1.0147579908370972	983495.3139492699
1.018665075302124	936907.4686075625
1.022585153579712	965391.2471200995
1.0265177488327026	1104159.0813587306
1.0304628610610962	1189884.7838506773
1.0344202518463135	1192261.208826423
1.0383895635604858	1314234.8024986736
1.0423706769943237	1544304.0757616642
1.0463634729385376	1731021.2741390592
1.0503677129745483	1894381.6938800318
1.0543830394744873	2083951.6254532451
1.058409333229065	2231370.1611131015
1.0624464750289917	2291386.787938345
1.0664942264556885	2267904.1433282155
1.0705522298812866	2188525.2749273735
1.0746204853057861	2144302.6232089642
1.0786986351013184	2115185.286263132
1.0827864408493042	2006506.1902066877
1.086883783340454	1712749.8315418505
1.0909905433654785	1216083.4978027334
1.0951062440872192	720794.5740458799
1.0992310047149658	392238.3863338646
1.10336434841156	201906.9608338086
1.1075061559677124	96267.63346094696
1.1116561889648438	44012.70528850111
1.115814208984375	19910.974241113036
1.1199802160263062	13993.294327742722
1.124153733253479	14764.300472548366
1.1283347606658936	16903.52126687727
1.1325229406356812	16831.80257585218
1.1367181539535522	24549.032247712745
1.1409201622009277	37541.196279454714
1.145128846168518	35368.253623088625
1.1493438482284546	23609.157334949203
1.1535650491714478	14736.836243156915
1.1577922105789185	10934.649937032462
1.1620250940322876	10980.515137487215
1.1662636995315552	15532.410109902941
1.170507550239563	32278.258955270896
1.174756646156311	62587.15078099029
1.1790107488632202	107020.60987757593
1.1832695007324219	161323.53396640014
1.1875330209732056	211442.5453613863
1.191800832748413	271483.1365471898
1.1960728168487549	353350.7838845277
1.2003488540649414	441005.6896460253
1.2046287059783936	537459.830533878
1.2089121341705322	618543.4873426637
1.2131990194320679	679473.0414521715
1.2174891233444214	756720.782924845
1.2217823266983032	871053.2357698099
1.2260783910751343	1062934.8645961476
1.230377197265625	1319184.822753418
1.2346785068511963	1586681.1623104
1.238982081413269	1881129.0119163843
1.2432878017425537	2217821.2387864627
1.2475954294204712	2528166.0314423568
1.2519049644470215	2745613.6999269193
1.256216049194336	3015329.9641706822
1.2605286836624146	3367851.4906135094
1.2648425102233887	3533363.1153322235
1.2691574096679688	3366103.4427985162
1.2734732627868652	2916129.608601228
1.2777899503707886	2365566.304771224
1.2821072340011597	1829247.369571413
1.2864248752593994	1358963.8222902894
1.2907428741455078	1069303.6058724765
1.2950609922409058	960523.3297247819
1.2993791103363037	889136.7935266811
1.303696870803833	762722.5183956473
1.3080145120620728	629502.1989838004
1.3123314380645752	491920.5121204244
1.3166478872299194	397945.55369912984
1.3209635019302368	386821.7507443162
1.3252781629562378	335845.39717106835
1.3295916318893433	200082.74894242125
1.3339040279388428	73251.97759361885
1.3382149934768677	19245.337065043677
1.3425244092941284	6278.346847738862
1.3468321561813354	1792.8914927205167
1.3511382341384888	675.088559158075
1.3554422855377197	259.25346012237003
1.3597444295883179	131.39078944172013
1.3640443086624146	180.03140596481214
1.3683418035507202	261.098709072577
1.3726370334625244	500.9987270919904
1.3769296407699585	821.1859068364919
1.381219506263733	712.0805776002559
1.3855066299438477	440.17657730263886
1.3897908926010132	458.74659457020965
1.3940720558166504	542.4712832429717
1.3983501195907593	593.9486654069275
1.4026249647140503	662.2126006401118
1.4068963527679443	721.260543343843
1.4111642837524414	874.3414325292374
1.4154287576675415	1086.4721559949828
1.419689416885376	1171.9863457152599
1.4239463806152344	1709.4929179467417
1.4281994104385376	3412.6292226154437
1.4324485063552856	4641.376687858268
1.436693549156189	4670.601141072967
1.440934419631958	5667.273679053889
1.4451709985733032	8720.198644798233
1.449403166770935	13856.856902803278
1.453631043434143	18916.324707243588
1.4578542709350586	21479.223668738163
1.4620729684829712	19042.984504641157
1.4662868976593018	12785.966771656713
1.4704961776733398	7110.439006814054
1.4747005701065063	4082.8618519286997
1.4788999557495117	4023.8920309987852
1.4830944538116455	4858.063484419803
1.4872838258743286	5045.058580312943
1.491468071937561	4778.652026800724
1.4956470727920532	5634.973797223702
1.4998208284378052	8108.642823832747
1.5039892196655273	9406.320158234566
1.5081522464752197	7628.334745630424
1.5123097896575928	4682.091915173553
1.5164618492126465	4753.388612300909
1.5206083059310913	9360.125203416044
1.5247491598129272	14812.970185902293
1.5288842916488647	20023.835499809436
1.5330137014389038	25878.206238329793
1.5371372699737549	30459.41492155938
1.541254997253418	36019.7765773418
1.545366883277893	43616.4671382254
1.5494728088378906	54352.312252383264
1.5535727739334106	78490.39072864263
1.5576666593551636	121485.70189661186
1.561754584312439	191194.84339016842
1.5658363103866577	288256.41975258786
1.5699119567871094	369056.7035977095
1.5739814043045044	421474.2709616794
1.5780447721481323	489575.15958907077
1.582101821899414	568791.7152722451
1.5861525535583496	619079.8832535986
1.5901970863342285	623229.1303894981
1.5942351818084717	591762.13337773
1.5982669591903687	532311.8038334701
1.6022924184799194	439989.48542348057
1.606311559677124	339496.9381427907
1.6103241443634033	255920.11367969666
1.6143304109573364	173640.68836291175
1.6183301210403442	101553.14593698937
1.6223233938217163	67932.15178272592
1.6263102293014526	59822.79151630494
1.6302905082702637	60619.46549257778
1.634264349937439	71600.24210464535
1.638231635093689	90046.50220283016
1.6421923637390137	94873.23120126764
1.646146535873413	76460.57984916182
1.6500942707061768	71899.14903171072
1.6540353298187256	81094.65254227968
1.6579699516296387	85872.59997230163
1.661897897720337	89045.93361957686
1.6658192873001099	56642.48539381276
1.6697341203689575	19017.63448985362
1.6736423969268799	19044.968697422537
1.677544116973877	24995.578623163812
1.6814392805099487	21957.78381882386
1.6853278875350952	18981.61144543429
1.6892099380493164	15780.668402216248
1.6930854320526123	10745.875030453226
1.696954369544983	7077.790822815957
1.7008168697357178	5054.703763333467
1.7046726942062378	5205.916705051528
1.708522081375122	9338.140120784135
1.712364912033081	16391.36284351419
1.7162011861801147	26902.062204814716
1.7200311422348022	34729.7405939873
1.723854422569275	30807.179408708205
1.7276713848114014	25904.14778888512
1.731481909751892	27235.97117040555
1.7352858781814575	32376.1934425931
1.7390835285186768	43876.68574679598
1.7428747415542603	57860.83061211893
1.7466596364974976	67331.42528408764
1.7504380941390991	68190.87464854452
1.7542102336883545	56221.915133334536
1.7579760551452637	40870.05953367238
1.7617355585098267	33849.81600656705
1.7654887437820435	32118.47266427133
1.7692357301712036	29363.463328937916
1.7729763984680176	24869.963631334056
1.776710867881775	26203.389882817413
1.7804391384124756	31115.97058557002
1.7841613292694092	27902.203531450188
1.7878772020339966	20932.88815412533
1.7915871143341064	15080.88136950896
1.7952908277511597	12714.522108052279
1.7989884614944458	14658.105189015489
1.8026801347732544	11489.297415321947
1.806365728378296	7743.7270985890655
1.8100452423095703	7641.911518387439
1.8137187957763672	6836.869820242619
1.817386507987976	5753.242299419856
1.8210482597351074	7755.491420020446
1.8247040510177612	10455.50450427853
1.828354001045227	7200.874565193997
1.8319982290267944	3010.7464774547793
1.8356364965438843	1987.745393597708
1.8392690420150757	2374.0915408243645
1.8428958654403687	5306.1067968431
1.8465168476104736	7268.1848184514565
1.8501322269439697	6975.335260688185
1.8537418842315674	6565.246622012589
1.8573459386825562	5250.598904784073
1.860944390296936	3868.3473108246353
1.864537239074707	2850.795733138056
1.8681244850158691	1675.8572478669655
1.871706247329712	1200.011910404162
1.8752825260162354	3382.9190162144246
1.8788533210754395	9008.866710590373
1.8824186325073242	12907.524965558936
1.8859784603118896	11983.047347779677
1.8895330429077148	10211.531540894182
1.8930821418762207	11652.363335657448
1.8966259956359863	12754.398874705497
1.9001644849777222	8137.441352668526
1.9036977291107178	3977.0276998699383
1.9072256088256836	3945.687590737785
1.9107483625411987	3663.7311260134397
1.9142658710479736	2712.931802119359
1.9177782535552979	2695.3381738264065
1.9212853908538818	2831.157460572002
1.9247875213623047	2434.0343167402702
1.9282845258712769	1877.568976407454
1.9317764043807983	1528.638099925261
1.9352631568908691	1400.1683084355795
1.9387450218200684	1286.1644216222735
1.942221760749817	1540.2554396092653
1.9456936120986938	2031.1753209785704
1.9491604566574097	2101.3156426333803
1.952622413635254	2017.2370870044506
1.956079363822937	2777.735413969386
1.959531545639038	4196.52907316468
1.962978720664978	4875.062842628369
1.966421127319336	5037.824497979604
1.9698586463928223	4851.817157529102
1.9732913970947266	4999.322117691577
1.9767193794250488	6548.865626054169
1.9801424741744995	6550.19706175072
1.9835609197616577	5797.30220271512
1.9869745969772339	7249.818556007366
1.990383505821228	9199.8875578129
1.9937876462936401	12568.9809701259
1.9971871376037598	17536.568783249026
2.000581979751587	19429.253168285617
2.003972291946411	17808.03507364918
2.007357597351074	17967.858891572036
2.0107386112213135	18706.841174603454
2.0141148567199707	16574.330356445895
2.017486572265625	13303.232786051598
2.0208535194396973	12613.18449881025
2.0242159366607666	15931.075643242482
2.027573823928833	19277.479636350232
2.0309269428253174	22452.010484908253
2.034275770187378	26142.74184343455
2.0376198291778564	27590.92809707628
2.040959596633911	28891.187979169783
2.044294595718384	34209.948120313944
2.0476250648498535	40284.449991837675
2.0509510040283203	44687.40731609591
2.054272413253784	49836.684638228864
2.057589530944824	56234.728514904535
2.0609018802642822	62837.24140420437
2.0642096996307373	69078.10009770385
2.0675129890441895	75028.81945714698
2.0708119869232178	80885.46905017288
2.074106216430664	87352.07130129072
2.0773961544036865	92661.12714858992
2.080681324005127	96463.64200488101
2.0839622020721436	101562.50861299573
2.087238311767578	106459.87606145126
2.090510129928589	110913.31154306176
2.0937774181365967	113040.8601146855
2.0970399379730225	111947.28497860864
2.1002981662750244	110595.89126916017
2.1035518646240234	111151.88202960652
2.1068007946014404	111300.83106474375
2.1100454330444336	108516.51589757462
2.1132853031158447	106732.6550774515
2.116520881652832	103458.82917118377
2.1197516918182373	98605.88643843553
2.1229779720306396	95118.00810266801
2.12619948387146	91872.22123525331
2.1294167041778564	89302.27686269615
2.132629156112671	87582.04923744815
2.1358368396759033	85620.21977042602
2.139039993286133	81156.61472987135
2.1422386169433594	71127.96953599516
2.145432472229004	60870.90057834705
2.1486217975616455	56288.2182933526
2.151806354522705	52907.47916985024
2.1549863815307617	47962.420889386914
2.1581614017486572	43166.64831916475
2.16133189201355	37221.766084265335
2.1644976139068604	31822.686088985633
2.167658567428589	28169.13700463604
2.1708147525787354	25972.381229316616
2.173966407775879	25926.162519232268
2.1771130561828613	24411.465286922037
2.1802549362182617	21632.724345289535
2.183391809463501	19660.98076005551
2.1865241527557373	18419.25287175521
2.1896514892578125	15380.238356263806
2.1927738189697266	9793.508544327999
2.1958916187286377	4906.534912446861
2.1990041732788086	2036.78120421878
2.2021119594573975	878.8527793732972
2.2052149772644043	1270.36314206081
2.208312749862671	2541.452122256688
2.2114057540893555	3499.678867001242
2.214493751525879	3694.8873840460033
2.217576742172241	3669.7881971951747
2.2206547260284424	3315.3668075025275
2.2237277030944824	2783.20825667387
2.2267956733703613	2302.408856150489
2.2298583984375	1741.1052874429092
2.2329163551330566	1579.4976535995881
2.235969066619873	1589.7765641035544
2.2390167713165283	1256.5889778810686
2.2420592308044434	1004.5694925561035
2.2450966835021973	877.4623736061445
2.248128890991211	651.5359841130605
2.2511560916900635	520.7245980413271
2.254178285598755	462.964786373031
2.257194995880127	408.9402532699319
2.260206699371338	421.5414574440386
2.2632133960723877	449.70207269530863
2.266214609146118	499.87335753144464
2.2692108154296875	612.6960750677607
2.2722020149230957	766.5918330905617
2.2751877307891846	786.1392454621931
2.278168201446533	744.5326816715746
2.2811436653137207	717.5301351501214
2.284113883972168	558.0066071069555
2.287078857421875	443.6222964374766
2.290038824081421	408.2868801203666
2.2929933071136475	357.34704770358945
2.295942783355713	350.2476709046717
2.298887014389038	400.2318145524295
2.301826238632202	482.7976876771767
2.304760217666626	719.9610142183702
2.3076889514923096	1661.7840589781067
2.310612440109253	3390.7176736031247
2.3135311603546143	3842.3977326658446
2.3164443969726562	2035.1205166069751
2.319352865219116	469.29918033616167
2.322256088256836	286.1618763692041
2.3251543045043945	425.47449485320965
2.328047275543213	449.3114111585001
2.330935478210449	454.36953944834306
2.3338186740875244	510.5693183157766
2.3366971015930176	534.5386185380817
2.3395702838897705	528.8582149812677
2.3424389362335205	561.6889257292536
2.3453025817871094	518.2134644267096
2.348161458969116	469.5968988419964
2.351015567779541	571.6019369749941
2.353865146636963	723.7193729032581
2.3567099571228027	976.4316548018212
2.3595502376556396	1512.6531912400967
2.3623859882354736	1992.7179068763455
2.3652172088623047	1899.841333737464
2.368043899536133	1301.3123590220953
2.370866537094116	642.465772122526
2.3736846446990967	435.23037092887864
2.3764986991882324	779.2520301906619
2.3793084621429443	1126.221141389914
2.3821144104003906	1102.221747584087
2.384916305541992	1184.6593637623068
2.387714147567749	1619.3668280792424
2.3905084133148193	1828.1571185401626
2.393299102783203	1678.7706012297854
2.3960859775543213	1647.6538901011193
2.398869514465332	2079.5635420387202
2.4016497135162354	2743.194317898264
2.4044265747070312	3202.7412940810004
2.407200336456299	3507.88848113323
2.409970998764038	4916.252098455303
2.4127390384674072	6631.469381083826
2.415503978729248	5883.921658326463
2.418266534805298	4166.402188111541
2.4210267066955566	3660.3503796007913
2.4237842559814453	3177.586526778793
2.426539897918701	3102.185903528
2.429293394088745	4670.355260676978
2.4320452213287354	5953.806012936244
2.4347951412200928	5969.299664823915
2.4375438690185547	7703.986795474426
2.440291166305542	10626.087989268433
2.443037271499634	11086.88867256475
2.445782423019409	9754.451143326429
2.4485268592834473	9141.470910919263
2.451270818710327	9664.860882353101
2.454014539718628	11223.850253548118
2.4567582607269287	13535.292653632388
2.4595019817352295	15615.44812858475
2.4622461795806885	18077.297898121884
2.4649908542633057	21329.111448176987
2.4677364826202393	21195.961978559048
2.4704833030700684	18357.264094207
2.473231554031372	17258.28398941493
2.4759814739227295	18540.35613496193
2.4787333011627197	19126.075405184652
2.481487512588501	18924.803030114297
