#wavelength	surface flux
0.6450077295303345	19278.181717268973
0.6472567915916443	31101.808568379183
0.6494921445846558	42336.30415897044
0.6517150402069092	51030.00310200735
0.6539263725280762	60633.54398958412
0.6561272740364075	71392.19726284705
0.6583186388015747	83354.6331368058
0.6605015397071838	96518.9422990652
0.6626768708229065	110639.38497312224
0.6648455858230591	124790.85445091865
0.6670085787773132	132577.31534219015
0.6691668033599854	122657.43821772956
0.6713210344314575	120926.18119606574
0.6734722256660461	159649.27207947194
0.6756211519241333	206218.58902842403
0.6777685880661011	234590.92575147166
0.6799154281616211	256064.50634254803
0.6820623278617859	275258.59693854314
0.6842101216316223	292517.1311484151
0.6863595843315125	307452.47341860755
0.688511312007904	318974.60340630624
0.6906660795211792	324796.9466328143
0.6928245425224304	326281.4755383325
0.6949873566627502	329842.61332182086
0.6971551775932312	334170.5473671271
0.6993286609649658	332352.5489555955
0.7015084028244019	324809.0231312509
0.7036949396133423	314771.1563451342
0.7058889269828796	302793.90929495037
0.7080909013748169	288636.4896159303
0.710301399230957	272363.486343225
0.712520956993103	254097.3004414364
0.7147500514984131	232439.6549063763
0.7169892191886902	208164.77377589588
0.7192389369010925	187266.95278076502
0.7214996814727783	169824.60536471108
0.723771870136261	151314.76561080717
0.7260559797286987	132630.72265740304
0.7283523678779602	115778.93060011086
0.7306615710258484	100475.81026106593
0.7329838871955872	86647.91330267793
0.7353196740150452	73999.81509647849
0.7376693487167358	61901.87344814406
0.7400332689285278	50801.25791756391
0.7424117922782898	40997.30100624225
0.7448052167892456	32527.214973719467
0.7472138404846191	25338.287238238197
0.7496379613876343	19350.199088712718
0.7520779371261597	14519.205345116361
0.7545340061187744	10740.759460476485
0.7570064663887024	7841.585241935543
0.7594954967498779	5586.997212934562
0.7620013952255249	3689.6166986856933
0.7645244002342224	2027.4621364069808
0.7670646905899048	1008.5895443358243
0.7696225643157959	1115.3178137850732
0.7721980810165405	2549.2620174096473
0.7747915983200073	5015.89162896888
0.7774031162261963	7668.251410714625
0.7800329327583313	11058.17933975772
0.7826811671257019	17306.21692250509
0.7853479981422424	26447.531168253998
0.7880334854125977	37739.380439386216
0.7907378077507019	49020.31658083627
0.7934610247612	57666.863707551354
0.7962033748626709	78166.03512135053
0.7989648580551147	117905.5581768237
0.801745593547821	161829.30609221585
0.8045456409454346	206728.8775155504
0.8073651194572449	256625.9087479806
0.8102040886878967	310541.07104771584
0.8130625486373901	371783.3931362178
0.8159406185150146	448062.57052474795
0.8188382983207703	539976.0647478781
0.8217556476593018	643623.3576220227
0.8246926665306091	765905.4918970981
0.8276493549346924	905950.639621158
0.8306257724761963	1054803.7139283651
0.8336219191551208	1218504.802776527
0.8366377949714661	1402656.50968189
0.8396733403205872	1609395.1780462665
0.8427285552024841	1842615.2234940364
0.8458034992218018	2082250.5245223972
0.8488980531692505	2196016.3131571095
0.8520121574401855	2265797.1193869775
0.8551458716392517	2703680.0880574626
0.8582990765571594	3238573.524087737
0.8614717125892639	3366632.9835726228
0.8646637797355652	3430908.704519715
0.8678751587867737	3750999.348146053
0.8711057901382446	4135861.842580794
0.8743556141853333	4537851.237268302
0.87762451171875	4960130.753188487
0.8809124231338501	5230062.89124496
0.8842192888259888	5412209.596248657
0.8875449895858765	5603543.4591983585
0.8908893465995789	5443945.158957288
0.894252359867096	5202544.825199558
0.8976338505744934	6181113.080493233
0.9010337591171265	8146231.286607962
0.9044519662857056	9906457.523539957
0.9078882932662964	11098228.330908736
0.9113426208496094	11809528.351294156
0.914814829826355	12360989.647265317
0.9183048605918884	13148788.525834352
0.9218124747276306	13739682.294902967
0.925337553024292	12101227.24658307
0.9288799166679382	8695380.112438945
0.9324395060539246	7195420.81087149
0.9360161423683167	8446684.089125387
0.9396095871925354	10551786.499818858
0.943219780921936	11831361.979974158
0.9468464851379395	12063073.462991582
0.9504896402359009	12163062.824288154
0.9541489481925964	12157788.801488997
0.9578243494033813	11930269.989768313
0.9615156054496765	12290831.13860908
0.9652225375175476	13851459.311313456
0.9689450263977051	15932125.107022451
0.9726828336715698	17515788.981569603
0.9764357805252075	18924499.011746928
0.9802037477493286	20495671.990214396
0.983986496925354	21988160.58525935
0.9877838492393494	23493068.99808867
0.9915955662727356	24702403.651446387
0.9954215884208679	24672750.29825219
0.9992615580558777	22901699.639648672
1.0031154155731201	22182967.52261747
1.0069829225540161	24186395.048666056
1.0108637809753418	27385364.358080182
1.0147579908370972	31187416.164983075
1.018665075302124	35231486.50579639
1.022585153579712	38820912.24226334
1.0265177488327026	41784663.84408108
1.0304628610610962	45080528.16516682
1.0344202518463135	49177824.97377683
1.0383895635604858	53201508.69995836
1.0423706769943237	56436649.193898454
1.0463634729385376	58910411.84940192
1.0503677129745483	60650461.06675665
1.0543830394744873	62220547.76374762
1.058409333229065	64199720.33604147
1.0624464750289917	66685339.57305379
1.0664942264556885	69414153.8157346
1.0705522298812866	72145085.95699431
1.0746204853057861	75246411.92683183
1.0786986351013184	78100780.52118646
1.0827864408493042	78945164.57302463
1.086883783340454	73981486.0849974
1.0909905433654785	60987586.445062116
1.0951062440872192	45293455.805993475
1.0992310047149658	33171070.247316193
1.10336434841156	24506174.55551965
1.1075061559677124	17864595.63244764
1.1116561889648438	13205431.374048896
1.115814208984375	10942414.636934621
1.1199802160263062	10881830.398512933
1.124153733253479	12154789.741539111
1.1283347606658936	12781442.462256657
1.1325229406356812	10818276.832562882
1.1367181539535522	9952987.7770003
1.1409201622009277	12009290.993747612
1.145128846168518	13930856.214263525
1.1493438482284546	14528194.306883158
1.1535650491714478	13635882.616504112
1.1577922105789185	12665114.590389429
1.1620250940322876	12263511.068267897
1.1662636995315552	11899465.242512273
1.170507550239563	12657169.259096012
1.174756646156311	14188990.509723738
1.1790107488632202	16856250.45908201
1.1832695007324219	21911687.99023251
1.1875330209732056	27587514.431066472
1.191800832748413	33477129.544644177
1.1960728168487549	40010421.85768748
1.2003488540649414	46140013.57979988
1.2046287059783936	52429252.762154244
1.2089121341705322	58522556.05685555
1.2131990194320679	64112204.605914965
1.2174891233444214	69952669.06800856
1.2217823266983032	75556917.14478715
1.2260783910751343	81420240.79530881
1.230377197265625	87253258.75574282
1.2346785068511963	91161460.00960636
1.238982081413269	89644913.02148151
1.2432878017425537	84768405.06413078
1.2475954294204712	81888679.85194293
1.2519049644470215	79763313.76322237
1.256216049194336	89146630.89735022
1.2605286836624146	105576901.00012508
1.2648425102233887	111406446.2411901
1.2691574096679688	110722666.08331457
1.2734732627868652	108526684.93542613
1.2777899503707886	105785421.86084849
1.2821072340011597	101125425.87946232
1.2864248752593994	93600044.82773441
1.2907428741455078	87579668.43531312
1.2950609922409058	85210975.18814427
1.2993791103363037	82950071.44402102
1.303696870803833	79595377.00498036
1.3080145120620728	75334001.1971062
1.3123314380645752	68549754.281121
1.3166478872299194	61714621.76563881
1.3209635019302368	55669964.87408809
1.3252781629562378	45113994.48534061
1.3295916318893433	28576692.875597816
1.3339040279388428	13043925.39969894
1.3382149934768677	4953434.48434795
1.3425244092941284	2481492.321044266
1.3468321561813354	1619907.3067842342
1.3511382341384888	1138425.4097394054
1.3554422855377197	845352.1567607543
1.3597444295883179	804751.5208866613
1.3640443086624146	1025646.8385642923
1.3683418035507202	1213443.144790846
1.3726370334625244	1375685.7758378366
1.3769296407699585	1683057.8881485693
1.381219506263733	1727925.6466086349
1.3855066299438477	1544014.8847410972
1.3897908926010132	1482528.5427644001
1.3940720558166504	1417405.9567792919
1.3983501195907593	1358793.0842125174
1.4026249647140503	1400321.5247496332
1.4068963527679443	1379130.5086272198
1.4111642837524414	1324480.892832012
1.4154287576675415	1366044.0504932618
1.419689416885376	1364740.1142296263
1.4239463806152344	1398081.5533277455
1.4281994104385376	1682072.0859437648
1.4324485063552856	2000550.043299688
1.436693549156189	2171005.7129257717
1.440934419631958	2357189.9379062233
1.4451709985733032	2720334.8007672676
1.449403166770935	3506749.312014041
1.453631043434143	4439690.811224505
1.4578542709350586	5056524.061633411
1.4620729684829712	5290228.522209883
1.4662868976593018	5250562.3553015785
1.4704961776733398	5185496.137349831
1.4747005701065063	5477180.466153757
1.4788999557495117	6040934.435297409
1.4830944538116455	6436424.003806471
1.4872838258743286	6823031.8499514805
1.491468071937561	7387939.6147964345
1.4956470727920532	8104711.45421404
1.4998208284378052	8972293.854427297
1.5039892196655273	9877896.089930452
1.5081522464752197	10893057.069353973
1.5123097896575928	12031447.30317667
1.5164618492126465	13024339.127014736
1.5206083059310913	14297129.904767102
1.5247491598129272	15937172.83897731
1.5288842916488647	17554654.24224195
1.5330137014389038	19311586.67837948
1.5371372699737549	20879534.401946824
1.541254997253418	22232083.622847658
1.545366883277893	24160113.3953711
1.5494728088378906	25976581.52293906
1.5535727739334106	26914331.228984058
1.5576666593551636	28242995.896756925
1.561754584312439	31261939.880523838
1.5658363103866577	34858344.82280467
1.5699119567871094	36858443.12344272
1.5739814043045044	37657036.62522117
1.5780447721481323	38712767.80212902
1.582101821899414	39805411.749794036
1.5861525535583496	40107704.294736296
1.5901970863342285	39322518.51529615
1.5942351818084717	38096514.816573024
1.5982669591903687	36580500.61209259
1.6022924184799194	33967433.616980255
1.606311559677124	30841029.894222293
1.6103241443634033	28144437.127277546
1.6143304109573364	25208950.542933628
1.6183301210403442	22414343.28295704
1.6223233938217163	21415264.178734317
1.6263102293014526	21826689.78878777
1.6302905082702637	22607085.543503437
1.634264349937439	24466504.291392427
1.638231635093689	27523491.711869795
1.6421923637390137	28748824.335090324
1.646146535873413	26891173.332789432
1.6500942707061768	26125721.620677046
1.6540353298187256	25386971.221180517
1.6579699516296387	23695194.208803013
1.661897897720337	22680205.647311468
1.6658192873001099	15455352.733533422
1.6697341203689575	8013679.352208427
1.6736423969268799	10678042.143677754
1.677544116973877	15403182.416387228
1.6814392805099487	15783445.273742437
1.6853278875350952	14274381.082139978
1.6892099380493164	12529674.009313097
1.6930854320526123	10616787.459606986
1.696954369544983	8935110.845121607
1.7008168697357178	7957737.116962473
1.7046726942062378	8125102.301441747
1.708522081375122	9464581.510706885
1.712364912033081	10655064.829900766
1.7162011861801147	11350145.937342392
1.7200311422348022	11863090.446677681
1.723854422569275	11328267.779722696
1.7276713848114014	10437588.675063718
1.731481909751892	9863611.639621433
1.7352858781814575	9507716.8803663
1.7390835285186768	9715673.357918441
1.7428747415542603	10128047.069678873
1.7466596364974976	10234683.581193315
1.7504380941390991	9890698.077154608
1.7542102336883545	8844968.87846034
1.7579760551452637	7782712.41547011
1.7617355585098267	7328472.804640319
1.7654887437820435	6832680.155753079
1.7692357301712036	6043965.123969371
1.7729763984680176	5365954.601237437
1.776710867881775	5117864.364040747
1.7804391384124756	5109495.558224325
1.7841613292694092	4670569.204260577
1.7878772020339966	4133850.612145539
1.7915871143341064	3619405.3916870025
1.7952908277511597	3333790.314077062
1.7989884614944458	3426352.5730354767
1.8026801347732544	3034134.428578656
1.806365728378296	2735143.182890416
1.8100452423095703	2947191.7566795414
1.8137187957763672	3181383.832127248
1.817386507987976	2981979.367052394
1.8210482597351074	2978240.1002714536
1.8247040510177612	3455376.6125789145
1.828354001045227	3187267.49288593
1.8319982290267944	2568566.106421016
1.8356364965438843	2271479.823114188
1.8392690420150757	2261306.2724757316
1.8428958654403687	2575038.097958345
1.8465168476104736	2622628.9411120513
1.8501322269439697	2518239.239856877
1.8537418842315674	2465165.1420091502
1.8573459386825562	2077396.2879412165
1.860944390296936	1672075.121367627
1.864537239074707	1524826.8196737252
1.8681244850158691	1478807.972775474
1.871706247329712	1653526.5065952623
1.8752825260162354	2252188.448776024
1.8788533210754395	3218477.855850605
1.8824186325073242	3980920.7429974764
1.8859784603118896	4139888.602661166
1.8895330429077148	4117424.1669312622
1.8930821418762207	4591567.297645942
1.8966259956359863	5001005.128429508
1.9001644849777222	4478465.056057515
1.9036977291107178	4016142.1128442045
1.9072256088256836	4313473.844820428
1.9107483625411987	4288314.685619524
1.9142658710479736	3956924.2470136858
1.9177782535552979	4093451.128545781
1.9212853908538818	3973556.4600425265
1.9247875213623047	3492287.3473904086
1.9282845258712769	3039550.749652063
1.9317764043807983	2636522.7892542654
1.9352631568908691	2358339.8205132894
1.9387450218200684	2113587.0925167273
1.942221760749817	2270109.1333122193
1.9456936120986938	2636140.978331191
1.9491604566574097	2811847.824395897
1.952622413635254	2809994.2804992865
1.956079363822937	2694409.5061890204
1.959531545639038	2804272.876592723
1.962978720664978	3055217.1918688635
1.966421127319336	3405354.985790924
1.9698586463928223	3684928.2081475286
1.9732913970947266	3686363.262313975
1.9767193794250488	3863052.557268809
1.9801424741744995	4098551.6490984526
1.9835609197616577	4389966.604836159
1.9869745969772339	4753922.065563236
1.990383505821228	4932420.719188901
1.9937876462936401	5545169.099382447
1.9971871376037598	6172956.081518587
2.000581979751587	6517753.664211674
2.003972291946411	6865630.189636925
2.007357597351074	6889332.138544507
2.0107386112213135	7246258.388708566
2.0141148567199707	7796849.550304671
2.017486572265625	7849785.287523786
2.0208535194396973	8642613.448851947
2.0242159366607666	9767814.380179264
2.027573823928833	9756161.096451081
2.0309269428253174	9942997.678705884
2.034275770187378	10983454.83910476
2.0376198291778564	11595416.851229066
2.040959596633911	11667408.155952858
2.044294595718384	12370937.114218926
2.0476250648498535	13505715.304232057
2.0509510040283203	13713192.594906293
2.054272413253784	13786455.628254233
2.057589530944824	14893642.336480359
2.0609018802642822	15479935.273250893
2.0642096996307373	15444213.938004456
2.0675129890441895	15871363.068708945
2.0708119869232178	16149720.3572493
2.074106216430664	16169132.24812845
2.0773961544036865	16239517.892930279
2.080681324005127	16423176.258728052
2.0839622020721436	16570517.313638827
2.087238311767578	16687512.742888995
2.090510129928589	16888518.69550336
2.0937774181365967	16870201.7684217
2.0970399379730225	16641877.297385138
2.1002981662750244	16267566.928620463
2.1035518646240234	15856706.392034734
2.1068007946014404	15499421.503024714
2.1100454330444336	15179301.633940127
2.1132853031158447	15100589.886518458
2.116520881652832	14764138.378801718
2.1197516918182373	14290355.562153654
2.1229779720306396	14190908.488650318
2.12619948387146	14034842.065706922
2.1294167041778564	13677700.968143886
2.132629156112671	13469439.226819359
2.1358368396759033	13204403.127602972
2.139039993286133	12441782.848541543
2.1422386169433594	11220739.251319714
2.145432472229004	10131562.619074682
2.1486217975616455	9779851.088778254
2.151806354522705	9741235.093353149
2.1549863815307617	9528318.897363361
2.1581614017486572	9097798.87997051
2.16133189201355	8499637.235820403
2.1644976139068604	7983213.950556415
2.167658567428589	7514114.103922833
2.1708147525787354	7184366.640986608
2.173966407775879	6888907.455321988
2.1771130561828613	6430608.395783292
2.1802549362182617	6023297.003260768
2.183391809463501	5547624.776867766
2.1865241527557373	4961546.927157414
2.1896514892578125	4285155.695912341
2.1927738189697266	3438208.785127465
2.1958916187286377	2464475.4683685815
2.1990041732788086	1548084.6820339775
2.2021119594573975	1015520.1567560032
2.2052149772644043	910952.3946134199
2.208312749862671	1070461.5169880511
2.2114057540893555	1378606.1121406278
2.214493751525879	1704366.922205774
2.217576742172241	1921592.169464355
2.2206547260284424	1981620.7553889628
2.2237277030944824	1897099.2492687085
2.2267956733703613	1714196.7161104989
2.2298583984375	1539543.964715576
2.2329163551330566	1436572.9060707241
2.235969066619873	1362020.952299415
2.2390167713165283	1237923.9956243737
2.2420592308044434	1096450.4763292854
2.2450966835021973	984658.1230631717
2.248128890991211	904338.9249257166
2.2511560916900635	863264.0477945871
2.254178285598755	843321.3327045316
2.257194995880127	836949.4914099715
2.260206699371338	840773.7981186577
2.2632133960723877	860703.8514841438
2.266214609146118	877572.576508553
2.2692108154296875	872499.706323633
2.2722020149230957	863717.7233697515
2.2751877307891846	842250.6081122564
2.278168201446533	821934.718588212
2.2811436653137207	777129.2264153288
2.284113883972168	681447.9520524468
2.287078857421875	605183.2518086545
2.290038824081421	549989.6499100041
2.2929933071136475	508725.09211931296
2.295942783355713	523180.60044074676
2.298887014389038	603476.0737651276
2.301826238632202	701563.9950711251
2.304760217666626	850758.585812582
2.3076889514923096	1177740.329004204
2.310612440109253	1597538.731525147
2.3135311603546143	1686338.549208153
2.3164443969726562	1150056.5701502308
2.319352865219116	567906.9023681316
2.322256088256836	422828.3488735567
2.3251543045043945	424686.21302695776
2.328047275543213	428757.92634291534
2.330935478210449	471689.3778541621
2.3338186740875244	521983.0344790016
2.3366971015930176	562913.1996264089
2.3395702838897705	594370.2517099567
2.3424389362335205	598172.7610994839
2.3453025817871094	564008.1927610168
2.348161458969116	551495.7822808281
2.351015567779541	594124.3527004974
2.353865146636963	653755.6141321013
2.3567099571228027	722726.1592800339
2.3595502376556396	836069.7104193129
2.3623859882354736	969715.3630334818
2.3652172088623047	1047814.0411822789
2.368043899536133	951351.4797416999
2.370866537094116	656286.9630497596
2.3736846446990967	487501.02662805025
2.3764986991882324	526640.5778619243
2.3793084621429443	536316.9679510791
2.3821144104003906	511407.55162006244
2.384916305541992	594480.7361612301
2.387714147567749	777141.12492878
2.3905084133148193	864137.3231866877
2.393299102783203	855914.0019065363
2.3960859775543213	902824.3803356881
2.398869514465332	1023801.8435644618
2.4016497135162354	1158746.016690259
2.4044265747070312	1273115.3732888855
2.407200336456299	1313775.6952120608
2.409970998764038	1374975.6376792411
2.4127390384674072	1500146.5944388527
2.415503978729248	1472096.2780608428
2.418266534805298	1373406.4500892018
2.4210267066955566	1359354.1191823836
2.4237842559814453	1267836.004474937
2.426539897918701	1196491.5320559086
2.429293394088745	1348104.7235487592
2.4320452213287354	1517356.5665211517
2.4347951412200928	1487427.6026299687
2.4375438690185547	1562060.419218859
2.440291166305542	1777025.6143710308
2.443037271499634	1783290.2689712741
2.445782423019409	1693438.6887816433
2.4485268592834473	1689878.7315341786
2.451270818710327	1698416.661626426
2.454014539718628	1758113.032961599
2.4567582607269287	1960377.3627771905
2.4595019817352295	2072724.542640661
2.4622461795806885	2195896.651147929
2.4649908542633057	2380955.813320907
2.4677364826202393	2204103.7615278987
2.4704833030700684	1922614.8519344619
2.473231554031372	1845741.0745678598
2.4759814739227295	1935365.1666269526
2.4787333011627197	2044432.325377475
