#wavelength	surface flux
0.6450077295303345	15790.934703271685
0.6472567915916443	25326.98573318124
0.6494921445846558	34129.942077270396
0.6517150402069092	40699.62778132668
0.6539263725280762	47911.88308349329
0.6561272740364075	55972.24193738821
0.6583186388015747	64919.37911955699
0.6605015397071838	74775.14077589878
0.6626768708229065	85416.51698773504
0.6648455858230591	96341.47182746895
0.6670085787773132	103451.10181900367
0.6691668033599854	98565.85254612044
0.6713210344314575	98934.1139076503
0.6734722256660461	126540.59359616302
0.6756211519241333	158650.5886277071
0.6777685880661011	178091.34611126408
0.6799154281616211	193231.8153158802
0.6820623278617859	206890.8661745294
0.6842101216316223	219145.550255012
0.6863595843315125	229694.34661053258
0.688511312007904	237913.34796136475
0.6906660795211792	242555.42787083777
0.6928245425224304	244213.3480150225
0.6949873566627502	246007.49765056395
0.6971551775932312	247185.84713457472
0.6993286609649658	244435.02730819496
0.7015084028244019	238086.4126356962
0.7036949396133423	229802.01034798153
0.7058889269828796	219992.45394238975
0.7080909013748169	208640.0366700518
0.710301399230957	195892.52860674943
0.712520956993103	181907.26070717972
0.7147500514984131	166073.14172563775
0.7169892191886902	148857.70569490167
0.7192389369010925	133479.68901482955
0.7214996814727783	120173.31410605778
0.723771870136261	106644.15215646818
0.7260559797286987	93329.46616325073
0.7283523678779602	81200.18737006439
0.7306615710258484	70169.46026341875
0.7329838871955872	60297.6973146097
0.7353196740150452	51365.63032117681
0.7376693487167358	43016.53311885112
0.7400332689285278	35484.90901760537
0.7424117922782898	28891.984895298177
0.7448052167892456	23219.770038559494
0.7472138404846191	18422.513582787607
0.7496379613876343	14440.51343195067
0.7520779371261597	11213.025940145464
0.7545340061187744	8642.72799496344
0.7570064663887024	6604.334244018462
0.7594954967498779	4939.599797116112
0.7620013952255249	3432.9870600581175
0.7645244002342224	1990.0846837198324
0.7670646905899048	1048.6829872230442
0.7696225643157959	1152.4755247202622
0.7721980810165405	2478.91628335571
0.7747915983200073	4634.246734761706
0.7774031162261963	6785.063544231266
0.7800329327583313	9342.2457309652
0.7826811671257019	13953.724991732848
0.7853479981422424	20542.179637891073
0.7880334854125977	28460.925585880457
0.7907378077507019	36298.159415916576
0.7934610247612	42311.20877269525
0.7962033748626709	56599.734127312324
0.7989648580551147	84337.52968901584
0.801745593547821	115171.09441447197
0.8045456409454346	147103.72426232795
0.8073651194572449	183415.1567212604
0.8102040886878967	223821.20515272804
0.8130625486373901	270190.09885433066
0.8159406185150146	327484.438769929
0.8188382983207703	396653.3173997615
0.8217556476593018	474658.5935280568
0.8246926665306091	566293.4052306974
0.8276493549346924	672559.6605435055
0.8306257724761963	787931.7328712099
0.8336219191551208	916460.1595554285
0.8366377949714661	1062390.823077525
0.8396733403205872	1226901.0313494946
0.8427285552024841	1412082.7561476596
0.8458034992218018	1602959.06801915
0.8488980531692505	1700690.4278222942
0.8520121574401855	1768203.7632313652
0.8551458716392517	2118145.1121301115
0.8582990765571594	2563803.0436440255
0.8614717125892639	2756288.09781471
0.8646637797355652	2915093.3420578847
0.8678751587867737	3233036.657953164
0.8711057901382446	3599165.840048201
0.8743556141853333	3980542.1277283514
0.87762451171875	4371546.869645245
0.8809124231338501	4654159.553056928
0.8842192888259888	4863326.7543536825
0.8875449895858765	5068028.617091635
0.8908893465995789	4960682.9877800485
0.894252359867096	4763447.524664025
0.8976338505744934	5622870.830850715
0.9010337591171265	7311718.714219809
0.9044519662857056	8780169.968551733
0.9078882932662964	9788152.007077906
0.9113426208496094	10447234.050700895
0.914814829826355	11007877.317723695
0.9183048605918884	11753762.949988807
0.9218124747276306	12332239.982083708
0.925337553024292	10998235.652513105
0.9288799166679382	7984080.593404009
0.9324395060539246	6645450.639909155
0.9360161423683167	8061621.992752038
0.9396095871925354	10314211.18475021
0.943219780921936	11439990.457445968
0.9468464851379395	11426535.23225867
0.9504896402359009	11499526.875382496
0.9541489481925964	11574217.908197062
0.9578243494033813	11464985.400288688
0.9615156054496765	11970773.423646152
0.9652225375175476	13704770.194358094
0.9689450263977051	16020822.855429638
0.9726828336715698	17845694.66486569
0.9764357805252075	19440496.50486126
0.9802037477493286	21182128.2491369
0.983986496925354	22866619.82356634
0.9877838492393494	24515483.490882717
0.9915955662727356	25889054.36335914
0.9954215884208679	26168521.996126544
0.9992615580558777	25026516.22851916
1.0031154155731201	25058813.914391614
1.0069829225540161	27568560.8387246
1.0108637809753418	30949581.296325557
1.0147579908370972	34516561.14675446
1.018665075302124	38024590.39512934
1.022585153579712	41189814.35035342
1.0265177488327026	44002487.60103173
1.0304628610610962	47029164.837164976
1.0344202518463135	50538220.1345237
1.0383895635604858	54017839.68261469
1.0423706769943237	57029006.127532646
1.0463634729385376	59514141.165655315
1.0503677129745483	61428231.76311019
1.0543830394744873	63132557.524798766
1.058409333229065	65058771.1507297
1.0624464750289917	67350795.24203841
1.0664942264556885	69825337.45296532
1.0705522298812866	72281531.49558327
1.0746204853057861	74936109.91596866
1.0786986351013184	77322240.78696756
1.0827864408493042	78060742.04385081
1.086883783340454	73964533.76947367
1.0909905433654785	62679975.94805958
1.0951062440872192	47880133.13026446
1.0992310047149658	35011113.823360816
1.10336434841156	25077689.98604723
1.1075061559677124	17574251.451670326
1.1116561889648438	12438738.030651394
1.115814208984375	10059036.535796676
1.1199802160263062	10276576.257486738
1.124153733253479	12057869.717895353
1.1283347606658936	13008209.057420658
1.1325229406356812	11103368.59942464
1.1367181539535522	10537664.8163294
1.1409201622009277	12909986.17336364
1.145128846168518	14751316.885858595
1.1493438482284546	15238398.090633597
1.1535650491714478	14131531.052412443
1.1577922105789185	12831055.456367528
1.1620250940322876	12447963.453205567
1.1662636995315552	12279378.665668277
1.170507550239563	13158846.71654918
1.174756646156311	14910094.95455266
1.1790107488632202	18091023.47882258
1.1832695007324219	23978097.293415595
1.1875330209732056	30519378.75253757
1.191800832748413	36996343.30016425
1.1960728168487549	44012390.9742081
1.2003488540649414	50630710.3595993
1.2046287059783936	57072006.31784856
1.2089121341705322	63063304.83817482
1.2131990194320679	68500778.17534527
1.2174891233444214	74107728.80390334
1.2217823266983032	79301329.5916689
1.2260783910751343	84442487.28392695
1.230377197265625	89492242.50007945
1.2346785068511963	92643317.82463433
1.238982081413269	90346054.4683122
1.2432878017425537	84598898.70474276
1.2475954294204712	80496871.29261577
1.2519049644470215	77690847.77949837
1.256216049194336	87177294.6029706
1.2605286836624146	104667661.58313249
1.2648425102233887	112457756.41438572
1.2691574096679688	113097856.10334492
1.2734732627868652	111406006.66408505
1.2777899503707886	108692052.12923837
1.2821072340011597	103961411.09814395
1.2864248752593994	96905182.41123928
1.2907428741455078	91170680.21198
1.2950609922409058	88222872.08585237
1.2993791103363037	85532564.74462324
1.303696870803833	82439819.27120598
1.3080145120620728	78762294.39890549
1.3123314380645752	72264233.9421576
1.3166478872299194	65182514.403659955
1.3209635019302368	58281934.16077556
1.3252781629562378	46183024.38047958
1.3295916318893433	28679029.557310347
1.3339040279388428	12945931.196765509
1.3382149934768677	4616195.023014941
1.3425244092941284	2041211.7594380395
1.3468321561813354	1270220.39607205
1.3511382341384888	881383.547591469
1.3554422855377197	632131.1115946296
1.3597444295883179	596204.2528504471
1.3640443086624146	784974.2861493723
1.3683418035507202	965624.2221415029
1.3726370334625244	1178360.8743138185
1.3769296407699585	1523051.2997009077
1.381219506263733	1533294.0359805573
1.3855066299438477	1269933.6180056895
1.3897908926010132	1158326.7015063632
1.3940720558166504	1101557.9939038542
1.3983501195907593	1081256.195136596
1.4026249647140503	1164241.8634259086
1.4068963527679443	1185890.0451613544
1.4111642837524414	1131535.4779506575
1.4154287576675415	1135297.8658232957
1.419689416885376	1138762.312164749
1.4239463806152344	1217203.4226787982
1.4281994104385376	1532721.0448065258
1.4324485063552856	1832590.894087614
1.436693549156189	1960591.1290351234
1.440934419631958	2149033.001157937
1.4451709985733032	2547730.483795683
1.449403166770935	3316400.042290505
1.453631043434143	4181029.579469313
1.4578542709350586	4815329.232118866
1.4620729684829712	5097370.0834849775
1.4662868976593018	5023245.669201619
1.4704961776733398	4928902.100891273
1.4747005701065063	5220995.896177759
1.4788999557495117	5778348.332254694
1.4830944538116455	6178301.479733127
1.4872838258743286	6549294.00857977
1.491468071937561	7146229.77553783
1.4956470727920532	7975256.758123355
1.4998208284378052	8971234.62466202
1.5039892196655273	9951857.433257448
1.5081522464752197	10837205.395963766
1.5123097896575928	11783442.383515203
1.5164618492126465	12916628.630729312
1.5206083059310913	14599459.429750213
1.5247491598129272	16544580.243252872
1.5288842916488647	18316239.72697716
1.5330137014389038	20237567.50175493
1.5371372699737549	22064127.71612834
1.541254997253418	23666327.926779974
1.545366883277893	25703474.692072935
1.5494728088378906	27626101.157797188
1.5535727739334106	28905175.67448251
1.5576666593551636	30622799.77662678
1.561754584312439	33665282.56695845
1.5658363103866577	37025939.66584744
1.5699119567871094	38955623.89271956
1.5739814043045044	39789182.31654999
1.5780447721481323	40812373.33677805
1.582101821899414	41832727.312817656
1.5861525535583496	42039301.69246842
1.5901970863342285	41208246.70803083
1.5942351818084717	39912684.1670094
1.5982669591903687	38312195.18473334
1.6022924184799194	35741045.33125352
1.606311559677124	32591490.526782434
1.6103241443634033	29556254.580527633
1.6143304109573364	26279689.363920026
1.6183301210403442	23236831.75653337
1.6223233938217163	21671309.043938566
1.6263102293014526	21316089.338753957
1.6302905082702637	21548622.06651963
1.634264349937439	23006888.482092164
1.638231635093689	25649937.811287228
1.6421923637390137	26957615.966676727
1.646146535873413	25857076.45467602
1.6500942707061768	25397611.482261337
1.6540353298187256	24753009.176759157
1.6579699516296387	23613830.040738218
1.661897897720337	22546733.92535133
1.6658192873001099	15158791.920805765
1.6697341203689575	8273074.289722471
1.6736423969268799	11362597.087152105
1.677544116973877	16105954.29404103
1.6814392805099487	16516379.831264697
1.6853278875350952	15066585.916371115
1.6892099380493164	13391250.977723772
1.6930854320526123	11595319.507814202
1.696954369544983	9989253.494129524
1.7008168697357178	8988672.598118093
1.7046726942062378	9063672.350657491
1.708522081375122	10314615.027573884
1.712364912033081	11494179.942013122
1.7162011861801147	12243062.383008279
1.7200311422348022	12784548.001783649
1.723854422569275	12257773.85809
1.7276713848114014	11430860.090432163
1.731481909751892	10936246.137185184
1.7352858781814575	10483698.778886804
1.7390835285186768	10358594.101062471
1.7428747415542603	10415374.03692221
1.7466596364974976	10262761.099443156
1.7504380941390991	9742705.767335564
1.7542102336883545	8604187.457417563
1.7579760551452637	7511393.0819082605
1.7617355585098267	7025152.715875162
1.7654887437820435	6456029.708377377
1.7692357301712036	5661462.17111843
1.7729763984680176	4988618.80715548
1.776710867881775	4599479.43174036
1.7804391384124756	4430270.050966917
1.7841613292694092	3989997.1731980313
1.7878772020339966	3539655.4974566093
1.7915871143341064	3141552.475792887
1.7952908277511597	2868148.846740057
1.7989884614944458	2872160.091541732
1.8026801347732544	2466185.723237808
1.806365728378296	2170861.0896866876
1.8100452423095703	2351456.2183640315
1.8137187957763672	2534533.4017364886
1.817386507987976	2368210.2891884935
1.8210482597351074	2409253.3065450285
1.8247040510177612	2822690.3797105905
1.828354001045227	2530137.109608538
1.8319982290267944	1977411.864024432
1.8356364965438843	1756118.4294580459
1.8392690420150757	1751580.209881649
1.8428958654403687	2057090.2631671778
1.8465168476104736	2151999.384520415
1.8501322269439697	2062041.5579404435
1.8537418842315674	1998348.5895902822
1.8573459386825562	1685489.4265459809
1.860944390296936	1361380.110726195
1.864537239074707	1211697.0886493009
1.8681244850158691	1131912.4175141454
1.871706247329712	1263050.4704542332
1.8752825260162354	1822661.5383684817
1.8788533210754395	2728745.759951577
1.8824186325073242	3375906.4049953027
1.8859784603118896	3428157.1207274534
1.8895330429077148	3372004.6848334367
1.8930821418762207	3845375.3896521353
1.8966259956359863	4212971.468870027
1.9001644849777222	3636925.630340688
1.9036977291107178	3135203.901008429
1.9072256088256836	3338298.8556163367
1.9107483625411987	3277042.6039367695
1.9142658710479736	2968494.5424028863
1.9177782535552979	3057432.6575305783
1.9212853908538818	2941861.409595766
1.9247875213623047	2534216.412673123
1.9282845258712769	2191856.0767109757
1.9317764043807983	1922945.0401044
1.9352631568908691	1749948.902678543
1.9387450218200684	1584879.7436861503
1.942221760749817	1712419.557825876
1.9456936120986938	1989130.8433570692
1.9491604566574097	2118956.811026879
1.952622413635254	2126136.85010548
1.956079363822937	2062899.2951322072
1.959531545639038	2174234.587772678
1.962978720664978	2397350.4041325105
1.966421127319336	2705964.165023888
1.9698586463928223	2903040.372432693
1.9732913970947266	2884107.374708558
1.9767193794250488	3085965.105307904
1.9801424741744995	3338372.5225631194
1.9835609197616577	3655790.716047618
1.9869745969772339	4005584.494253868
1.990383505821228	4084121.269743923
1.9937876462936401	4564307.558015634
1.9971871376037598	5166768.468278231
2.000581979751587	5496195.3115980895
2.003972291946411	5817936.101099482
2.007357597351074	5861157.694491647
2.0107386112213135	6155412.456917043
2.0141148567199707	6598627.462940268
2.017486572265625	6572034.897512638
2.0208535194396973	7145209.022013726
2.0242159366607666	8066088.387893659
2.027573823928833	8128885.102170673
2.0309269428253174	8330824.790006481
2.034275770187378	9153079.771250159
2.0376198291778564	9619179.543304145
2.040959596633911	9692576.062390972
2.044294595718384	10280360.34875265
2.0476250648498535	11167431.177689662
2.0509510040283203	11344430.386039732
2.054272413253784	11458451.74183792
2.057589530944824	12286467.37282328
2.0609018802642822	12751135.139740858
2.0642096996307373	12778572.83424919
2.0675129890441895	13082374.442674315
2.0708119869232178	13314471.249542417
2.074106216430664	13368838.451212652
2.0773961544036865	13436781.87533889
2.080681324005127	13611731.481390111
2.0839622020721436	13775829.163242875
2.087238311767578	13873431.74841174
2.090510129928589	13984373.96804387
2.0937774181365967	13957990.30631882
2.0970399379730225	13813750.761494165
2.1002981662750244	13571740.987274347
2.1035518646240234	13295474.780065756
2.1068007946014404	13068220.18635101
2.1100454330444336	12874965.783558834
2.1132853031158447	12819380.68163128
2.116520881652832	12581523.0121504
2.1197516918182373	12248878.482313968
2.1229779720306396	12149176.496483807
2.12619948387146	12012565.980730409
2.1294167041778564	11749910.975441692
2.132629156112671	11568820.027368255
2.1358368396759033	11348166.271766525
2.139039993286133	10849522.882849855
2.1422386169433594	10049983.798216801
2.145432472229004	9299229.857672198
2.1486217975616455	9005159.492071128
2.151806354522705	8914174.752136149
2.1549863815307617	8743122.33569282
2.1581614017486572	8417792.127089547
2.16133189201355	7937480.976874812
2.1644976139068604	7538099.845158015
2.167658567428589	7195671.080270185
2.1708147525787354	6909319.788569697
2.173966407775879	6633611.363090886
2.1771130561828613	6256106.998919915
2.1802549362182617	5913611.598349903
2.183391809463501	5515243.67976497
2.1865241527557373	5034263.405180363
2.1896514892578125	4441766.2661658125
2.1927738189697266	3639112.3902961547
2.1958916187286377	2678033.2698529214
2.1990041732788086	1744505.4520100367
2.2021119594573975	1196559.0437930855
2.2052149772644043	1136152.9418836578
2.208312749862671	1371837.4154785569
2.2114057540893555	1702070.9213172114
2.214493751525879	1986202.102255611
2.217576742172241	2160186.626821614
2.2206547260284424	2195842.9542912226
2.2237277030944824	2101888.9229163774
2.2267956733703613	1901487.6655583715
2.2298583984375	1702666.3795279125
2.2329163551330566	1601152.149128331
2.235969066619873	1539715.8284334205
2.2390167713165283	1409929.3448609982
2.2420592308044434	1255106.7472382004
2.2450966835021973	1141182.4526865887
2.248128890991211	1055817.8022616021
2.2511560916900635	1008169.0532820047
2.254178285598755	982122.3914666529
2.257194995880127	970525.7964383187
2.260206699371338	972481.4959588087
2.2632133960723877	991262.4156533163
2.266214609146118	1016612.2226222185
2.2692108154296875	1022344.5974362325
2.2722020149230957	1020252.4959117178
2.2751877307891846	996653.5839569938
2.278168201446533	975480.159549455
2.2811436653137207	932277.4057271781
2.284113883972168	829149.3635353422
2.287078857421875	753569.6252544677
2.290038824081421	696901.1742004345
2.2929933071136475	648138.9229315666
2.295942783355713	663397.6353947903
2.298887014389038	754407.38736033
2.301826238632202	870359.2643598084
2.304760217666626	1046080.3718334258
2.3076889514923096	1423992.901950899
2.310612440109253	1903242.8491840938
2.3135311603546143	1969911.6384663912
2.3164443969726562	1307415.177717035
2.319352865219116	637552.4062045185
2.322256088256836	505903.0847887879
2.3251543045043945	539756.7092037301
2.328047275543213	551683.1598426817
2.330935478210449	589583.518740339
2.3338186740875244	632491.0339737973
2.3366971015930176	663231.0771220733
2.3395702838897705	684932.8878691358
2.3424389362335205	688254.2182065124
2.3453025817871094	659548.3335387429
2.348161458969116	655349.548931058
2.351015567779541	708975.6861613267
2.353865146636963	778784.9456235013
2.3567099571228027	862843.0870922054
2.3595502376556396	1013684.5068240456
2.3623859882354736	1182899.4844327935
2.3652172088623047	1245276.9656975935
2.368043899536133	1078799.9074378049
2.370866537094116	718357.3279466348
2.3736846446990967	546614.8809085644
2.3764986991882324	620674.3522573736
2.3793084621429443	661423.939593475
2.3821144104003906	648962.6855452383
2.384916305541992	739215.19823898
2.387714147567749	935706.4358797822
2.3905084133148193	1030478.0716771221
2.393299102783203	1018363.2066230386
2.3960859775543213	1062817.7665555533
2.398869514465332	1207374.9752526036
2.4016497135162354	1361796.9812841727
2.4044265747070312	1447963.8228717565
2.407200336456299	1454296.0850206849
2.409970998764038	1545872.1079906677
2.4127390384674072	1724666.9217561716
2.415503978729248	1667299.6944770846
2.418266534805298	1526363.2484864213
2.4210267066955566	1553377.084226682
2.4237842559814453	1497076.4511264877
2.426539897918701	1415787.0808822643
2.429293394088745	1593034.302014915
2.4320452213287354	1798384.9942740998
2.4347951412200928	1736290.3435936216
2.4375438690185547	1797446.608318006
2.440291166305542	2044626.3282903414
2.443037271499634	2029948.5573069872
2.445782423019409	1893177.8303819466
2.4485268592834473	1878727.6056818755
2.451270818710327	1867521.6176463468
2.454014539718628	1908607.1965686097
2.4567582607269287	2128443.262082854
2.4595019817352295	2221681.6960252267
2.4622461795806885	2324342.7966701565
2.4649908542633057	2513711.0430227504
2.4677364826202393	2297767.0541686187
2.4704833030700684	1972900.711517472
2.473231554031372	1868266.9443926269
2.4759814739227295	1926598.5318718934
2.4787333011627197	2024819.8014832034
2.481487512588501	2078225.584260296
