#wavelength	surface flux
0.6450077295303345	42596.445173832115
0.6472567915916443	68475.25516521529
0.6494921445846558	92616.15304804925
0.6517150402069092	110837.50858433668
0.6539263725280762	130805.99029581946
0.6561272740364075	153034.8112356621
0.6583186388015747	177551.3963100587
0.6605015397071838	204203.1041433569
0.6626768708229065	232210.351179323
0.6648455858230591	258705.47535386067
0.6670085787773132	268115.52313835395
0.6691668033599854	237196.30709850634
0.6713210344314575	226355.5476113181
0.6734722256660461	308104.05850871856
0.6756211519241333	411009.1374396272
0.6777685880661011	473851.2277473969
0.6799154281616211	518967.5486649694
0.6820623278617859	558214.6198623256
0.6842101216316223	593126.6086712339
0.6863595843315125	623153.4612475908
0.688511312007904	646225.4026119953
0.6906660795211792	658095.543549204
0.6928245425224304	661482.6056412961
0.6949873566627502	669092.5748065342
0.6971551775932312	678819.8179116169
0.6993286609649658	676769.8531726636
0.7015084028244019	663425.4083082634
0.7036949396133423	644756.6602531405
0.7058889269828796	621584.7031795316
0.7080909013748169	594096.8940504234
0.710301399230957	562804.864382411
0.712520956993103	527801.5604111217
0.7147500514984131	486731.5575161223
0.7169892191886902	441146.67756908986
0.7192389369010925	401101.0527404743
0.7214996814727783	366354.51777006435
0.723771870136261	329394.0214005477
0.7260559797286987	291969.2840994303
0.7283523678779602	257546.76937752988
0.7306615710258484	225687.3643923289
0.7329838871955872	196318.78388421173
0.7353196740150452	169052.05664181046
0.7376693487167358	142841.62357954032
0.7400332689285278	118466.05919717487
0.7424117922782898	96486.86130770383
0.7448052167892456	77034.60577662675
0.7472138404846191	60061.31989639203
0.7496379613876343	45479.746898506266
0.7520779371261597	33319.62112700034
0.7545340061187744	23531.283349096862
0.7570064663887024	15948.436761490919
0.7594954967498779	10292.772532297686
0.7620013952255249	6141.854455595325
0.7645244002342224	3142.810333791035
0.7670646905899048	1525.459776850874
0.7696225643157959	1689.8451198385048
0.7721980810165405	3978.4831722457848
0.7747915983200073	8369.967832090237
0.7774031162261963	13834.377265710555
0.7800329327583313	21809.066809967888
0.7826811671257019	36865.50548223176
0.7853479981422424	58703.24679654901
0.7880334854125977	85117.9511121624
0.7907378077507019	110772.2480657774
0.7934610247612	129369.92230301048
0.7962033748626709	173060.57468898827
0.7989648580551147	257661.0788645416
0.801745593547821	348742.11337299243
0.8045456409454346	438976.15393175
0.8073651194572449	537966.4266513113
0.8102040886878967	644741.3499631956
0.8130625486373901	764784.3851783018
0.8159406185150146	906597.4910208364
0.8188382983207703	1071618.83879093
0.8217556476593018	1267030.562673847
0.8246926665306091	1500204.3280466187
0.8276493549346924	1757752.029071685
0.8306257724761963	2029055.3187646375
0.8336219191551208	2326029.94147543
0.8366377949714661	2656693.9459387725
0.8396733403205872	3023912.8954106686
0.8427285552024841	3432395.0490342155
0.8458034992218018	3842684.4868401997
0.8488980531692505	4010740.141116995
0.8520121574401855	4093960.952165703
0.8551458716392517	4857868.145910558
0.8582990765571594	5743850.03793992
0.8614717125892639	5719206.858472591
0.8646637797355652	5546095.043839539
0.8678751587867737	5964692.427179847
0.8711057901382446	6518384.386527605
0.8743556141853333	7116737.239400757
0.87762451171875	7846955.586022888
0.8809124231338501	8453009.662225801
0.8842192888259888	9026427.434346981
0.8875449895858765	9584847.273964923
0.8908893465995789	9446080.626202382
0.894252359867096	9103575.55774794
0.8976338505744934	10736669.666854829
0.9010337591171265	13842298.060040025
0.9044519662857056	16493018.89232229
0.9078882932662964	18379233.811803862
0.9113426208496094	19734563.96833211
0.914814829826355	20923500.93611294
0.9183048605918884	22353865.544274412
0.9218124747276306	23310134.799147863
0.925337553024292	20932920.452881943
0.9288799166679382	16015247.31570028
0.9324395060539246	14049211.934795134
0.9360161423683167	16234311.575562313
0.9396095871925354	19635068.924663506
0.943219780921936	21808406.011690836
0.9468464851379395	22401178.614624217
0.9504896402359009	22679344.010010183
0.9541489481925964	22705347.585079238
0.9578243494033813	22355850.20156589
0.9615156054496765	22852365.66476627
0.9652225375175476	25125018.969380174
0.9689450263977051	28220520.3305176
0.9726828336715698	30715340.01102027
0.9764357805252075	33068946.295385934
0.9802037477493286	35723344.1131898
0.983986496925354	38258101.62565613
0.9877838492393494	40057434.957663156
0.9915955662727356	40163467.02653095
0.9954215884208679	38228673.26845206
0.9992615580558777	33766995.22410225
1.0031154155731201	31012126.10412792
1.0069829225540161	33096419.409460913
1.0108637809753418	37446238.26335896
1.0147579908370972	42813718.2228441
1.018665075302124	48623577.282310165
1.022585153579712	53669634.206647016
1.0265177488327026	57465329.56700015
1.0304628610610962	61846070.22734884
1.0344202518463135	67761041.39035688
1.0383895635604858	73511197.95457035
1.0423706769943237	77784637.20643404
1.0463634729385376	80636599.68559872
1.0503677129745483	82125273.90291707
1.0543830394744873	83369070.27647485
1.058409333229065	85687016.60892831
1.0624464750289917	89257639.68274423
1.0664942264556885	93600067.4639097
1.0705522298812866	98276224.02439266
1.0746204853057861	103562531.92006125
1.0786986351013184	108598639.23980252
1.0827864408493042	111204624.30689569
1.086883783340454	106592459.16040024
1.0909905433654785	91459006.50777301
1.0951062440872192	71803751.80077758
1.0992310047149658	55637785.072068445
1.10336434841156	43277193.65822513
1.1075061559677124	33185141.015042827
1.1116561889648438	25836241.0005126
1.115814208984375	22377378.600340724
1.1199802160263062	22531415.120360292
1.124153733253479	25026256.52615583
1.1283347606658936	26172390.92662085
1.1325229406356812	22121849.819312677
1.1367181539535522	19465603.44727679
1.1409201622009277	22490792.627434622
1.145128846168518	26756548.829197638
1.1493438482284546	29106282.156656064
1.1535650491714478	28234312.29545842
1.1577922105789185	26770864.132117737
1.1620250940322876	25851371.985778905
1.1662636995315552	24179241.46860458
1.170507550239563	23843701.815102607
1.174756646156311	24787952.398240846
1.1790107488632202	27852329.84470215
1.1832695007324219	35663056.626448706
1.1875330209732056	44944905.70632122
1.191800832748413	53723480.79294041
1.1960728168487549	62544010.30989528
1.2003488540649414	70608188.06272404
1.2046287059783936	79074257.64380766
1.2089121341705322	87459073.97707935
1.2131990194320679	95271954.13352868
1.2174891233444214	103316970.2096344
1.2217823266983032	110882319.38610874
1.2260783910751343	118851281.96615681
1.230377197265625	126474355.25140779
1.2346785068511963	130819666.93425332
1.238982081413269	126738799.62545645
1.2432878017425537	117823231.83466505
1.2475954294204712	112767490.40386768
1.2519049644470215	109317727.16345955
1.256216049194336	122806164.52856213
1.2605286836624146	147009092.29652676
1.2648425102233887	156547958.60381234
1.2691574096679688	157422006.94561407
1.2734732627868652	156147481.07533732
1.2777899503707886	153938137.89335766
1.2821072340011597	149269318.08567438
1.2864248752593994	140453785.1250888
1.2907428741455078	133277788.02312495
1.2950609922409058	130853338.96138996
1.2993791103363037	128516144.04055943
1.303696870803833	124610682.19041646
1.3080145120620728	119073009.55099227
1.3123314380645752	110070354.88706799
1.3166478872299194	100627922.24658702
1.3209635019302368	91225544.02267405
1.3252781629562378	74814670.8679746
1.3295916318893433	48874028.19007865
1.3339040279388428	23440134.27457152
1.3382149934768677	9551069.89482752
1.3425244092941284	5212322.826357817
1.3468321561813354	3694538.6734864796
1.3511382341384888	2765284.268957764
1.3554422855377197	2185504.758098172
1.3597444295883179	2142157.1322325035
1.3640443086624146	2643634.900769681
1.3683418035507202	3039792.164559048
1.3726370334625244	3316444.7718232567
1.3769296407699585	3894371.44559664
1.381219506263733	4029259.404213854
1.3855066299438477	3725732.9549418353
1.3897908926010132	3596534.4082008377
1.3940720558166504	3409955.131617971
1.3983501195907593	3255204.147134418
1.4026249647140503	3326251.0941150812
1.4068963527679443	3241116.3058641157
1.4111642837524414	3065477.0135944546
1.4154287576675415	3118551.0514798504
1.419689416885376	3106135.6608735183
1.4239463806152344	3114382.1012007757
1.4281994104385376	3556503.3825630224
1.4324485063552856	4111493.4052349622
1.436693549156189	4449348.755148199
1.440934419631958	4767930.757912242
1.4451709985733032	5335833.590843534
1.449403166770935	6620217.938553343
1.453631043434143	8174537.575436739
1.4578542709350586	9202214.777862042
1.4620729684829712	9601814.558835734
1.4662868976593018	9606762.196438808
1.4704961776733398	9648539.4040016
1.4747005701065063	10246087.49705072
1.4788999557495117	11191622.14118121
1.4830944538116455	11856554.534541346
1.4872838258743286	12527123.767748993
1.491468071937561	13428286.870635975
1.4956470727920532	14463370.82189841
1.4998208284378052	15695744.436223574
1.5039892196655273	17136111.08082762
1.5081522464752197	18924925.223348495
1.5123097896575928	20968620.35743282
1.5164618492126465	22552287.557722546
1.5206083059310913	24201836.53078054
1.5247491598129272	26334573.332695942
1.5288842916488647	28518021.110777806
1.5330137014389038	30998324.608134862
1.5371372699737549	33230661.29196446
1.541254997253418	35112950.707849264
1.545366883277893	37784719.206167616
1.5494728088378906	40285656.9771695
1.5535727739334106	41429865.26156575
1.5576666593551636	42836243.610492446
1.561754584312439	46559925.37690526
1.5658363103866577	51370830.42727177
1.5699119567871094	54267098.53588691
1.5739814043045044	55575322.343247406
1.5780447721481323	56971602.34926019
1.582101821899414	58475856.51850253
1.5861525535583496	59333717.07438117
1.5901970863342285	58930096.1274391
1.5942351818084717	57984965.99394369
1.5982669591903687	56650007.70626216
1.6022924184799194	53777781.474119306
1.606311559677124	50148670.741750605
1.6103241443634033	47102627.06677883
1.6143304109573364	43764216.24760668
1.6183301210403442	40463749.303399876
1.6223233938217163	39424420.337427005
1.6263102293014526	40193361.7920752
1.6302905082702637	41337854.83274709
1.634264349937439	43882174.05140186
1.638231635093689	48022555.3009353
1.6421923637390137	49760952.93028726
1.646146535873413	47595296.83559745
1.6500942707061768	46631548.472599156
1.6540353298187256	45143287.17494572
1.6579699516296387	42592546.69004697
1.661897897720337	40519893.06281747
1.6658192873001099	28128292.451083574
1.6697341203689575	16433049.872025855
1.6736423969268799	22041522.910444055
1.677544116973877	30766054.594291925
1.6814392805099487	31745454.187998712
1.6853278875350952	29182173.461571727
1.6892099380493164	26058290.1082649
1.6930854320526123	22739957.04763094
1.696954369544983	19748306.006028187
1.7008168697357178	17987495.669050064
1.7046726942062378	18128361.103028942
1.708522081375122	19952123.747087892
1.712364912033081	21330395.74793815
1.7162011861801147	21838312.65419554
1.7200311422348022	22282313.285633855
1.723854422569275	21370985.859426215
1.7276713848114014	19807292.462034762
1.731481909751892	18618982.405355375
1.7352858781814575	17805391.127849493
1.7390835285186768	17851539.21025254
1.7428747415542603	18199295.246887606
1.7466596364974976	18074563.122573055
1.7504380941390991	17374053.638147753
1.7542102336883545	15769685.659856144
1.7579760551452637	14187531.789086906
1.7617355585098267	13492536.449936986
1.7654887437820435	12622518.86123292
1.7692357301712036	11249899.893412089
1.7729763984680176	10105762.633266022
1.776710867881775	9624036.412496677
1.7804391384124756	9504098.358927438
1.7841613292694092	8742873.086308172
1.7878772020339966	7876766.0609471
1.7915871143341064	7063657.602076502
1.7952908277511597	6601012.398969221
1.7989884614944458	6686072.925886485
1.8026801347732544	6010155.95766252
1.806365728378296	5550263.200907142
1.8100452423095703	5917910.2097750725
1.8137187957763672	6364565.759296628
1.817386507987976	6010871.8671480995
1.8210482597351074	5857318.876913267
1.8247040510177612	6633854.768823101
1.828354001045227	6351860.151479197
1.8319982290267944	5422374.095755808
1.8356364965438843	4926425.418151084
1.8392690420150757	4889261.498620042
1.8428958654403687	5267983.566289384
1.8465168476104736	5197158.356109774
1.8501322269439697	5010382.426365925
1.8537418842315674	4893187.539159652
1.8573459386825562	4144174.5290647107
1.860944390296936	3423596.0991667584
1.864537239074707	3250564.5097856256
1.8681244850158691	3293467.2569313846
1.871706247329712	3667698.3103261525
1.8752825260162354	4632803.1858253805
1.8788533210754395	6121626.6828064965
1.8824186325073242	7388315.253355829
1.8859784603118896	7781090.771842345
1.8895330429077148	7796467.852510589
1.8930821418762207	8485344.934744522
1.8966259956359863	9185667.469240572
1.9001644849777222	8627099.106464842
1.9036977291107178	8045345.310061449
1.9072256088256836	8541017.60543742
1.9107483625411987	8582651.835587388
1.9142658710479736	8127062.627749277
1.9177782535552979	8331014.046644652
1.9212853908538818	8069509.935336776
1.9247875213623047	7299756.808925032
1.9282845258712769	6584343.87050862
1.9317764043807983	5845468.089028045
1.9352631568908691	5246649.554633658
1.9387450218200684	4666326.503413535
1.942221760749817	4866551.925722049
1.9456936120986938	5578789.979449087
1.9491604566574097	5975368.305125029
1.952622413635254	5970000.017722281
1.956079363822937	5669908.516446201
1.959531545639038	5792031.779349872
1.962978720664978	6209641.947358563
1.966421127319336	6827986.061125783
1.9698586463928223	7371535.812503628
1.9732913970947266	7330428.775675656
1.9767193794250488	7486037.555450302
1.9801424741744995	7821665.997005199
1.9835609197616577	8290913.981525562
1.9869745969772339	8836494.458738204
1.990383505821228	9016857.48381008
1.9937876462936401	9888334.926349698
1.9971871376037598	10772841.097261399
2.000581979751587	11257937.986827383
2.003972291946411	11880239.623551242
2.007357597351074	11912166.487077504
2.0107386112213135	12402991.176242875
2.0141148567199707	13380745.733669128
2.017486572265625	13611599.512186436
2.0208535194396973	14823892.377797266
2.0242159366607666	16437187.449951913
2.027573823928833	16285430.090600992
2.0309269428253174	16495712.175708266
2.034275770187378	18053635.052933894
2.0376198291778564	18990749.48724633
2.040959596633911	19103388.317435265
2.044294595718384	20005703.019034106
2.0476250648498535	21507172.635301027
2.0509510040283203	21783856.544015627
2.054272413253784	21878175.94400317
2.057589530944824	23480557.86737046
2.0609018802642822	24280118.92877922
2.0642096996307373	24139250.658229798
2.0675129890441895	24779264.79678258
2.0708119869232178	25161030.4432826
2.074106216430664	25103340.645999864
2.0773961544036865	25219156.63954672
2.080681324005127	25506788.433021232
2.0839622020721436	25701222.473646127
2.087238311767578	25887346.4304645
2.090510129928589	26220791.555383172
2.0937774181365967	26254122.294062532
2.0970399379730225	26008559.05174847
2.1002981662750244	25575307.601524577
2.1035518646240234	25063123.46995593
2.1068007946014404	24592789.8706032
2.1100454330444336	24205753.553730965
2.1132853031158447	24194746.420324963
2.116520881652832	23784409.815403435
2.1197516918182373	23174496.896617133
2.1229779720306396	23135264.59342474
2.12619948387146	22967280.542945422
2.1294167041778564	22443285.08521299
2.132629156112671	22169249.313633192
2.1358368396759033	21822353.715499092
2.139039993286133	20705530.44127792
2.1422386169433594	18985501.244289882
2.145432472229004	17498661.847028263
2.1486217975616455	17002385.82140471
2.151806354522705	16939912.580194954
2.1549863815307617	16676876.689849662
2.1581614017486572	16094184.940130562
2.16133189201355	15258047.080638366
2.1644976139068604	14517294.177431053
2.167658567428589	13781876.052332945
2.1708147525787354	13219213.801780954
2.173966407775879	12664152.091508636
2.1771130561828613	11848974.98260114
2.1802549362182617	11139837.540716372
2.183391809463501	10318174.96465783
2.1865241527557373	9292509.822131068
2.1896514892578125	8147967.671809527
2.1927738189697266	6768707.087950962
2.1958916187286377	5086371.418669105
2.1990041732788086	3384490.6489793793
2.2021119594573975	2315670.5517447554
2.2052149772644043	1992519.2812380393
2.208312749862671	2197140.2423698246
2.2114057540893555	2776683.7761940006
2.214493751525879	3456757.895098608
2.217576742172241	3922048.8980714474
2.2206547260284424	4076079.8477350967
2.2237277030944824	3962195.9191895793
2.2267956733703613	3633553.995589494
2.2298583984375	3309330.7009511497
2.2329163551330566	3112751.175781632
2.235969066619873	2957103.586456044
2.2390167713165283	2734383.3339865063
2.2420592308044434	2460699.499212367
2.2450966835021973	2221457.9608782134
2.248128890991211	2076638.042391258
2.2511560916900635	2007861.3170704888
2.254178285598755	1972354.070152121
2.257194995880127	1958032.3594260523
2.260206699371338	1946983.663828478
2.2632133960723877	1971293.7584428925
2.266214609146118	1982415.8042936358
2.2692108154296875	1947345.5808220292
2.2722020149230957	1922486.1512625054
2.2751877307891846	1890004.9148887915
2.278168201446533	1837506.4134903927
2.2811436653137207	1715517.4499099806
2.284113883972168	1518131.3988329591
2.287078857421875	1364549.7403072882
2.290038824081421	1238139.431884435
2.2929933071136475	1144115.3306160618
2.295942783355713	1178925.93328467
2.298887014389038	1355486.8532578072
2.301826238632202	1565387.2799024605
2.304760217666626	1869936.0788806274
2.3076889514923096	2497797.074481753
2.310612440109253	3243041.430846088
2.3135311603546143	3363067.4598683044
2.3164443969726562	2373290.344684152
2.319352865219116	1291922.3753625203
2.322256088256836	987365.8832742118
2.3251543045043945	952194.5361204967
2.328047275543213	944649.723464013
2.330935478210449	1030466.6111362736
2.3338186740875244	1132267.7673241515
2.3366971015930176	1216252.8986303997
2.3395702838897705	1283702.1111054642
2.3424389362335205	1296576.784701622
2.3453025817871094	1239975.3998596722
2.348161458969116	1222043.0608886809
2.351015567779541	1304948.0659509269
2.353865146636963	1427759.9922600363
2.3567099571228027	1562582.104079895
2.3595502376556396	1764779.669464009
2.3623859882354736	2010439.503639079
2.3652172088623047	2181129.7536281943
2.368043899536133	2025564.717126703
2.370866537094116	1451150.3550534872
2.3736846446990967	1104658.2407291222
2.3764986991882324	1157154.021794695
2.3793084621429443	1139894.516489738
2.3821144104003906	1069376.4139835928
2.384916305541992	1225185.6177111464
2.387714147567749	1581562.1384986811
2.3905084133148193	1758034.2164426441
2.393299102783203	1756735.1645975618
2.3960859775543213	1863781.0397491
2.398869514465332	2086671.4347987399
2.4016497135162354	2314270.2345877
2.4044265747070312	2522819.009365678
2.407200336456299	2605139.413942178
2.409970998764038	2687128.128803094
2.4127390384674072	2880822.336176129
2.415503978729248	2856659.8451612983
2.418266534805298	2724369.832601679
2.4210267066955566	2706901.906750052
2.4237842559814453	2533434.1700690384
2.426539897918701	2386132.106555867
2.429293394088745	2614368.163719337
2.4320452213287354	2888405.3357226164
2.4347951412200928	2827249.07757366
2.4375438690185547	2932547.5171521795
2.440291166305542	3276142.124463845
2.443037271499634	3268946.3885528496
2.445782423019409	3118429.589632818
2.4485268592834473	3119626.409910865
2.451270818710327	3119993.6629327345
2.454014539718628	3197137.908217821
2.4567582607269287	3541856.914759863
2.4595019817352295	3720791.865347935
2.4622461795806885	3903731.3729583514
2.4649908542633057	4192700.8108558655
2.4677364826202393	3864456.5461514657
2.4704833030700684	3388114.8054468036
2.473231554031372	3265572.6317614415
2.4759814739227295	3425696.055420203
2.4787333011627197	3616637.4105223883
2.481487512588501	3665660.9593152
