#wavelength	surface flux
0.6450077295303345	92162.73408688705
0.6472567915916443	147563.55522540509
0.6494921445846558	198200.4667460196
0.6517150402069092	235362.2248858319
0.6539263725280762	275702.01781207474
0.6561272740364075	320255.37277165096
0.6583186388015747	368926.16199722356
0.6605015397071838	421036.82915364037
0.6626768708229065	474283.99641264364
0.6648455858230591	520668.56324405863
0.6670085787773132	524801.4617987564
0.6691668033599854	442519.0207286371
0.6713210344314575	407098.3658982397
0.6734722256660461	572073.1819536738
0.6756211519241333	788762.9791192736
0.6777685880661011	921648.5169366058
0.6799154281616211	1012221.0356476827
0.6820623278617859	1089071.6993496348
0.6842101216316223	1156730.4031378804
0.6863595843315125	1214245.797733753
0.688511312007904	1258115.8002235272
0.6906660795211792	1280182.8175200627
0.6928245425224304	1285588.5874021873
0.6949873566627502	1300246.3050019473
0.6971551775932312	1320965.2267391481
0.6993286609649658	1319080.7371502414
0.7015084028244019	1295071.9161370364
0.7036949396133423	1259539.026652798
0.7058889269828796	1212579.1920082038
0.7080909013748169	1157732.3635085924
0.710301399230957	1098321.625666446
0.712520956993103	1033147.4054100025
0.7147500514984131	958051.1583687471
0.7169892191886902	876176.6125446182
0.7192389369010925	802796.9817236578
0.7214996814727783	736561.2893589264
0.723771870136261	666162.936434491
0.7260559797286987	594878.8235248543
0.7283523678779602	528228.2994833892
0.7306615710258484	465699.74216830684
0.7329838871955872	407345.97404748754
0.7353196740150452	352780.34353036596
0.7376693487167358	300501.50242015475
0.7400332689285278	251733.95784568266
0.7424117922782898	207325.45681224696
0.7448052167892456	167480.5348305
0.7472138404846191	132100.73164582544
0.7496379613876343	101025.32769487672
0.7520779371261597	74373.95431812135
0.7545340061187744	52242.557979424186
0.7570064663887024	34613.77344548604
0.7594954967498779	21326.569214388426
0.7620013952255249	11883.395624902245
0.7645244002342224	5621.745750811601
0.7670646905899048	2513.9172753940716
0.7696225643157959	2797.854640690879
0.7721980810165405	7156.015072941992
0.7747915983200073	16139.554066018782
0.7774031162261963	28053.167629670726
0.7800329327583313	45925.737005509756
0.7826811671257019	79279.83179590545
0.7853479981422424	126486.03633189888
0.7880334854125977	181712.0029461023
0.7907378077507019	233790.36074657508
0.7934610247612	269674.85567794385
0.7962033748626709	353773.6723654985
0.7989648580551147	517090.794926092
0.801745593547821	689830.5004895392
0.8045456409454346	857529.8181200259
0.8073651194572449	1040519.816858804
0.8102040886878967	1238574.5478096942
0.8130625486373901	1459657.2096053776
0.8159406185150146	1706451.79322753
0.8188382983207703	1983801.3732708108
0.8217556476593018	2337260.413732991
0.8246926665306091	2768200.122120239
0.8276493549346924	3225993.2622334072
0.8306257724761963	3704014.767167651
0.8336219191551208	4226689.889981505
0.8366377949714661	4804732.047018844
0.8396733403205872	5440213.959870106
0.8427285552024841	6129855.48399577
0.8458034992218018	6797734.43241579
0.8488980531692505	7025756.122648093
0.8520121574401855	7106012.716931538
0.8551458716392517	8393018.351835392
0.8582990765571594	9809033.589742476
0.8614717125892639	9381995.68895371
0.8646637797355652	8651879.47396287
0.8678751587867737	9144783.550560484
0.8711057901382446	9907774.691094693
0.8743556141853333	10769368.523628004
0.87762451171875	11981280.365547001
0.8809124231338501	13158705.122792166
0.8842192888259888	14415243.760024175
0.8875449895858765	15586292.60416099
0.8908893465995789	15534489.971733807
0.894252359867096	15112901.723545436
0.8976338505744934	17744482.1088261
0.9010337591171265	22485196.298642416
0.9044519662857056	26364506.246487476
0.9078882932662964	29290055.25082509
0.9113426208496094	31760722.864105597
0.914814829826355	34098914.20052681
0.9183048605918884	36499536.35622549
0.9218124747276306	37717924.27789778
0.925337553024292	34184223.2932847
0.9288799166679382	27407655.866520785
0.9324395060539246	24997006.66757404
0.9360161423683167	28437948.673274983
0.9396095871925354	33470010.97538492
0.943219780921936	36815313.2881757
0.9468464851379395	37964595.822411515
0.9504896402359009	38469550.66133832
0.9541489481925964	38433823.034837455
0.9578243494033813	37818883.14820073
0.9615156054496765	38353125.37409053
0.9652225375175476	41372515.42989181
0.9689450263977051	45645134.933186226
0.9726828336715698	49247901.95540442
0.9764357805252075	52815952.40701589
0.9802037477493286	56934437.14662413
0.983986496925354	60871563.234842435
0.9877838492393494	62574533.43503651
0.9915955662727356	60054014.645439535
0.9954215884208679	54937269.38488391
0.9992615580558777	47095375.95674232
1.0031154155731201	41747319.71612537
1.0069829225540161	43844605.34650049
1.0108637809753418	49582873.72507544
1.0147579908370972	56756791.78663851
1.018665075302124	64555480.26289197
1.022585153579712	71195935.51981787
1.0265177488327026	75737406.55893031
1.0304628610610962	81220351.3944869
1.0344202518463135	89310929.13630825
1.0383895635604858	97169216.73521888
1.0423706769943237	102509962.24861628
1.0463634729385376	105275002.20123683
1.0503677129745483	105747177.2293209
1.0543830394744873	106006681.6308035
1.058409333229065	108363705.8145033
1.0624464750289917	113093541.49835183
1.0664942264556885	119417882.05296476
1.0705522298812866	126628396.93983607
1.0746204853057861	134860706.37206873
1.0786986351013184	142935887.88760948
1.0827864408493042	148177191.87989852
1.086883783340454	144855566.1788483
1.0909905433654785	128629462.76901719
1.0951062440872192	105823858.0771646
1.0992310047149658	85868674.63548873
1.10336434841156	69612936.37503764
1.1075061559677124	55695676.568862684
1.1116561889648438	45449661.16436866
1.115814208984375	40884095.94984495
1.1199802160263062	41534573.33350898
1.124153733253479	45841275.984759964
1.1283347606658936	47753148.303408235
1.1325229406356812	40577900.19779618
1.1367181539535522	34722229.88566947
1.1409201622009277	38579173.80414747
1.145128846168518	46625221.87891382
1.1493438482284546	52277057.75566556
1.1535650491714478	51997723.90351058
1.1577922105789185	50101693.62712046
1.1620250940322876	48304310.71749167
1.1662636995315552	44003159.69493123
1.170507550239563	40926258.7614085
1.174756646156311	39971805.217075884
1.1790107488632202	42730689.49254745
1.1832695007324219	53835679.18691294
1.1875330209732056	67762156.49132821
1.191800832748413	79823461.49458408
1.1960728168487549	90731199.3646441
1.2003488540649414	100549761.54190387
1.2046287059783936	111335201.61390738
1.2089121341705322	122277380.50360572
1.2131990194320679	132628608.23540416
1.2174891233444214	143189406.15252626
1.2217823266983032	152948025.3854811
1.2260783910751343	163397506.05605933
1.230377197265625	173035361.037494
1.2346785068511963	177569281.49952492
1.238982081413269	170082411.69475147
1.2432878017425537	156148289.9410424
1.2475954294204712	148570270.1751744
1.2519049644470215	143725470.71168923
1.256216049194336	161757814.3829053
1.2605286836624146	194599895.53924614
1.2648425102233887	208536184.0346304
1.2691574096679688	211703170.71782663
1.2734732627868652	211873881.23714086
1.2777899503707886	210586918.9398068
1.2821072340011597	206399020.2118425
1.2864248752593994	196522895.36609665
1.2907428741455078	188340103.06110957
1.2950609922409058	186253774.80026555
1.2993791103363037	184380352.99910298
1.303696870803833	180365568.90755588
1.3080145120620728	173736329.20423308
1.3123314380645752	162789479.80293936
1.3166478872299194	150837883.251853
1.3209635019302368	137564502.3291503
1.3252781629562378	114387877.86688772
1.3295916318893433	77263850.38515225
1.3339040279388428	39077857.85672803
1.3382149934768677	17091138.150149632
1.3425244092941284	10043618.39867964
1.3468321561813354	7607888.666655253
1.3511382341384888	5998967.906435422
1.3554422855377197	4973524.222766877
1.3597444295883179	4966937.017967287
1.3640443086624146	5952929.968511069
1.3683418035507202	6680411.359192534
1.3726370334625244	7110320.226460515
1.3769296407699585	8108283.797847656
1.381219506263733	8432549.167183397
1.3855066299438477	7983454.28629408
1.3897908926010132	7719672.373395754
1.3940720558166504	7278950.846356396
1.3983501195907593	6941212.744090792
1.4026249647140503	7056105.070940338
1.4068963527679443	6836333.515469026
1.4111642837524414	6396138.970635697
1.4154287576675415	6415831.07079444
1.419689416885376	6369101.039661522
1.4239463806152344	6298564.205354517
1.4281994104385376	6915781.854596346
1.4324485063552856	7793908.048692478
1.436693549156189	8382786.941574621
1.440934419631958	8887537.731255997
1.4451709985733032	9720219.90629553
1.449403166770935	11660375.7443729
1.453631043434143	14039404.536661455
1.4578542709350586	15607111.18787857
1.4620729684829712	16196566.585746141
1.4662868976593018	16222698.330652129
1.4704961776733398	16389128.713842807
1.4747005701065063	17371609.982051343
1.4788999557495117	18806240.624883037
1.4830944538116455	19839770.713722248
1.4872838258743286	20870614.755128648
1.491468071937561	22123604.84109053
1.4956470727920532	23479932.39537603
1.4998208284378052	25143977.340175528
1.5039892196655273	27214737.738565613
1.5081522464752197	29856227.14271229
1.5123097896575928	32892326.095903073
1.5164618492126465	35152091.17946214
1.5206083059310913	37276375.324889
1.5247491598129272	39962399.19220483
1.5288842916488647	42737507.342194825
1.5330137014389038	46031284.42701
1.5371372699737549	49022369.171732165
1.541254997253418	51512653.819713034
1.545366883277893	55040947.69354861
1.5494728088378906	58356197.09153461
1.5535727739334106	59774640.969753176
1.5576666593551636	61216774.0663297
1.561754584312439	65731376.04007863
1.5658363103866577	72093540.32399894
1.5699119567871094	76243178.24372445
1.5739814043045044	78310152.09380941
1.5780447721481323	80158602.35753092
1.582101821899414	82251667.69594577
1.5861525535583496	84058335.15815642
1.5901970863342285	84483462.87190399
1.5942351818084717	84261896.47520967
1.5982669591903687	83545959.71020707
1.6022924184799194	80868906.18702035
1.606311559677124	77235973.54809114
1.6103241443634033	74363792.89464207
1.6143304109573364	71172649.2769522
1.6183301210403442	67836922.47208765
1.6223233938217163	67061753.617911525
1.6263102293014526	68354981.5070933
1.6302905082702637	69960297.75945103
1.634264349937439	73205649.41730607
1.638231635093689	78229802.30731218
1.6421923637390137	80367597.39719419
1.646146535873413	78329421.96537182
1.6500942707061768	77457601.60092087
1.6540353298187256	75228695.4860671
1.6579699516296387	71956685.84673162
1.661897897720337	68263124.37294455
1.6658192873001099	49263331.85245318
1.6697341203689575	32950009.871476658
1.6736423969268799	42973363.00885754
1.677544116973877	56926135.10216789
1.6814392805099487	58753305.71614016
1.6853278875350952	54873248.90777182
1.6892099380493164	49827911.76328114
1.6930854320526123	44595199.07701677
1.696954369544983	39813826.64820621
1.7008168697357178	36980301.44981105
1.7046726942062378	36861947.41773222
1.708522081375122	38657472.36733047
1.712364912033081	39500148.67539697
1.7162011861801147	39109553.90222482
1.7200311422348022	39049416.05888178
1.723854422569275	37541844.16827244
1.7276713848114014	34972571.37158884
1.731481909751892	32771475.26557213
1.7352858781814575	31155693.87849366
1.7390835285186768	30724312.323657013
1.7428747415542603	30680970.81248396
1.7466596364974976	29968228.142763987
1.7504380941390991	28645733.855010837
1.7542102336883545	26310883.243787993
1.7579760551452637	24082615.5704308
1.7617355585098267	23064129.18509874
1.7654887437820435	21645790.401775774
1.7692357301712036	19440627.301470745
1.7729763984680176	17642158.12787811
1.776710867881775	16769344.745781956
1.7804391384124756	16407169.828878973
1.7841613292694092	15195317.391393961
1.7878772020339966	13916962.582801608
1.7915871143341064	12772634.918907056
1.7952908277511597	12101269.050057115
1.7989884614944458	12097607.893176269
1.8026801347732544	11000189.722593147
1.806365728378296	10324889.521009035
1.8100452423095703	10866915.082052095
1.8137187957763672	11600570.473910082
1.817386507987976	11040401.646080872
1.8210482597351074	10602372.454954565
1.8247040510177612	11747193.122762227
1.828354001045227	11567470.498941159
1.8319982290267944	10331205.898898724
1.8356364965438843	9606131.719918853
1.8392690420150757	9509761.507458016
1.8428958654403687	9831118.782063166
1.8465168476104736	9490445.179497514
1.8501322269439697	9189433.868466545
1.8537418842315674	8956658.451014724
1.8573459386825562	7664820.060434817
1.860944390296936	6520449.513246225
1.864537239074707	6397805.047661062
1.8681244850158691	6674372.873393572
1.871706247329712	7344306.2234567255
1.8752825260162354	8693458.478891442
1.8788533210754395	10728496.343856089
1.8824186325073242	12615846.390406715
1.8859784603118896	13359362.796657348
1.8895330429077148	13421100.06714063
1.8930821418762207	14284213.908717118
1.8966259956359863	15346079.782188624
1.9001644849777222	14926399.570876054
1.9036977291107178	14273961.866386736
1.9072256088256836	14935659.231419438
1.9107483625411987	15083084.543842873
1.9142658710479736	14553507.349698042
1.9177782535552979	14786682.470520735
1.9212853908538818	14309145.35786262
1.9247875213623047	13261511.243442578
1.9282845258712769	12328234.501999933
1.9317764043807983	11218630.506553922
1.9352631568908691	10173855.380668668
1.9387450218200684	9070045.553671388
1.942221760749817	9258293.886479478
1.9456936120986938	10429300.431346668
1.9491604566574097	11109819.609406557
1.952622413635254	11055261.378398547
1.956079363822937	10493290.994575497
1.959531545639038	10612209.887069283
1.962978720664978	11184553.819161823
1.966421127319336	12072721.074691305
1.9698586463928223	12910484.880463552
1.9732913970947266	12767534.480288992
1.9767193794250488	12818414.314099165
1.9801424741744995	13237130.888232049
1.9835609197616577	13886967.002117474
1.9869745969772339	14616568.558592496
1.990383505821228	14773702.46202458
1.9937876462936401	15879048.780854305
1.9971871376037598	16989958.884443514
2.000581979751587	17600164.975615334
2.003972291946411	18526234.132872257
2.007357597351074	18561755.97032817
2.0107386112213135	19133658.33838887
2.0141148567199707	20540749.95010974
2.017486572265625	20991373.381078456
2.0208535194396973	22595965.56246732
2.0242159366607666	24642018.464071747
2.027573823928833	24329046.346063294
2.0309269428253174	24569561.20130209
2.034275770187378	26622855.983845882
2.0376198291778564	27872430.430046998
2.040959596633911	28055553.31767287
2.044294595718384	29114084.638941992
2.0476250648498535	30919130.813249644
2.0509510040283203	31297100.23136675
2.054272413253784	31449934.0965088
2.057589530944824	33549043.698091425
2.0609018802642822	34564031.998431526
2.0642096996307373	34337794.60836429
2.0675129890441895	35262785.84641663
2.0708119869232178	35795682.38617489
2.074106216430664	35666373.16084416
2.0773961544036865	35877706.15679055
2.080681324005127	36318216.951619685
2.0839622020721436	36601776.054345295
2.087238311767578	36916634.71889011
2.090510129928589	37441938.194183804
2.0937774181365967	37592960.88923128
2.0970399379730225	37408459.49031089
2.1002981662750244	37015278.693752825
2.1035518646240234	36492727.039948456
2.1068007946014404	35979266.97644822
2.1100454330444336	35604840.77517338
2.1132853031158447	35748926.99286382
2.116520881652832	35331917.25324292
2.1197516918182373	34655625.97685339
2.1229779720306396	34757874.747751795
2.12619948387146	34612823.32328804
2.1294167041778564	33925642.00742424
2.132629156112671	33635777.712498136
2.1358368396759033	33269206.045019176
2.139039993286133	31843845.481762704
2.1422386169433594	29755281.79225741
2.145432472229004	28037236.453590855
2.1486217975616455	27413432.700683996
2.151806354522705	27270951.06560661
2.1549863815307617	26971314.03685186
2.1581614017486572	26284227.15352373
2.16133189201355	25253942.900996435
2.1644976139068604	24322592.4992967
2.167658567428589	23330333.02204555
2.1708147525787354	22482196.185811255
2.173966407775879	21574276.139711842
2.1771130561828613	20314867.07649941
2.1802549362182617	19249570.677843753
2.183391809463501	18015102.23557209
2.1865241527557373	16418122.47891502
2.1896514892578125	14683497.147352263
2.1927738189697266	12648843.277857628
2.1958916187286377	9989229.729976857
2.1990041732788086	7095696.4150481755
2.2021119594573975	5095664.3802689025
2.2052149772644043	4274588.3992564315
2.208312749862671	4471275.959249719
2.2114057540893555	5502664.794315393
2.214493751525879	6819768.737042958
2.217576742172241	7742694.314867964
2.2206547260284424	8069055.291123319
2.2237277030944824	7931321.325538318
2.2267956733703613	7385728.312749046
2.2298583984375	6825258.322826094
2.2329163551330566	6474004.879098312
2.235969066619873	6173090.819163527
2.2390167713165283	5784247.971479059
2.2420592308044434	5278283.79823774
2.2450966835021973	4806031.6282281475
2.248128890991211	4551300.085948887
2.2511560916900635	4437651.323229428
2.254178285598755	4374155.589626135
2.257194995880127	4341829.770690621
2.260206699371338	4297003.9792486895
2.2632133960723877	4317319.120726313
2.266214609146118	4296325.633740942
2.2692108154296875	4186864.84282345
2.2722020149230957	4120787.2594585405
2.2751877307891846	4066507.992824227
2.278168201446533	3940353.9545440185
2.2811436653137207	3652019.1205950473
2.284113883972168	3263110.8040694227
2.287078857421875	2969732.3034649114
2.290038824081421	2701561.8903919104
2.2929933071136475	2489868.155480213
2.295942783355713	2550734.179568042
2.298887014389038	2902666.795312193
2.301826238632202	3321351.936696922
2.304760217666626	3901458.765325849
2.3076889514923096	5016998.621405548
2.310612440109253	6225955.54593514
2.3135311603546143	6324583.286503589
2.3164443969726562	4624301.499679296
2.319352865219116	2775357.049916535
2.322256088256836	2184597.214207333
2.3251543045043945	2041599.0923011503
2.328047275543213	1989033.8962329102
2.330935478210449	2140041.9448171305
2.3338186740875244	2330582.487265435
2.3366971015930176	2496716.583170652
2.3395702838897705	2643773.1083695614
2.3424389362335205	2694243.042051076
2.3453025817871094	2616795.733123195
2.348161458969116	2595571.423576618
2.351015567779541	2747616.442686065
2.353865146636963	2994821.761375728
2.3567099571228027	3259751.5983303064
2.3595502376556396	3598453.625157468
2.3623859882354736	4008890.0209438475
2.3652172088623047	4336503.931746463
2.368043899536133	4091252.5524175013
2.370866537094116	3041457.1556817396
2.3736846446990967	2392066.7031787625
2.3764986991882324	2460413.19253626
2.3793084621429443	2367787.045384624
2.3821144104003906	2186299.019122189
2.384916305541992	2450967.609657975
2.387714147567749	3111792.595737182
2.3905084133148193	3458232.1846791934
2.393299102783203	3482538.8889401713
2.3960859775543213	3703192.49006901
2.398869514465332	4099444.210043874
2.4016497135162354	4465252.118341041
2.4044265747070312	4822112.501564687
2.407200336456299	4975232.6367282
2.409970998764038	5072786.780284165
2.4127390384674072	5359018.298436758
2.415503978729248	5353186.970577517
2.418266534805298	5179179.062547188
2.4210267066955566	5150163.551557107
2.4237842559814453	4854883.539000175
2.426539897918701	4587597.154904983
2.429293394088745	4908699.579492067
2.4320452213287354	5323954.867263187
2.4347951412200928	5203764.780563902
2.4375438690185547	5347567.725714465
2.440291166305542	5877778.25071444
2.443037271499634	5828202.206676294
2.445782423019409	5569446.277991102
2.4485268592834473	5571931.801763564
2.451270818710327	5542198.456539354
2.454014539718628	5620650.571921901
2.4567582607269287	6182637.2951251045
2.4595019817352295	6459915.253926671
2.4622461795806885	6712843.251759455
2.4649908542633057	7141574.749998415
2.4677364826202393	6573024.5593711035
2.4704833030700684	5807868.213684352
2.473231554031372	5618276.411385078
2.4759814739227295	5882822.682381132
2.4787333011627197	6189484.066666114
2.481487512588501	6243218.742505867
2.4842441082000732	6814898.026477947
