#wavelength	surface flux
0.676892	1569186.2887046617
0.678297	1529272.8827020798
0.679702	1643751.373167225
0.681109	1677204.5894860565
0.682517	1716980.452698672
0.683926	1758027.8513541648
0.685337	1797053.147962542
0.686749	1829161.4238716343
0.688164	1860128.5158831477
0.689581	1885505.7117463336
0.691	1921829.5532555152
0.692422	1952075.1238991804
0.693847	1985766.241929782
0.695274	2019950.4716759087
0.696705	2055657.0269183868
0.698139	2092514.3117720669
0.699576	2132779.4544946873
0.701017	2174658.1532516144
0.702461	2218250.2327130465
0.70391	2261496.783229356
0.705362	2302725.3468224294
0.706819	2344056.6600141493
0.70828	2386626.006778732
0.709745	2425023.631784818
0.711216	2452632.44751914
0.71269	2472275.882838472
0.71417	2552843.721089022
0.715655	2574391.4218689543
0.717145	2637556.768308914
0.71864	2693560.672502332
0.72014	2735857.5059531247
0.721647	2777443.66585513
0.723158	2794439.9210729394
0.724676	2861534.147353403
0.726199	2912113.1527408017
0.727728	2956113.0782515313
0.729264	2937932.223289728
0.730805	2983882.908749945
0.732353	3082299.857545901
0.733907	3097695.384599921
0.735468	3099880.2325207195
0.737035	3191356.732889351
0.738609	3218617.505825176
0.74019	3241514.00818967
0.741777	3258978.6013378
0.743372	3315204.7391774063
0.744973	3317017.8765558633
0.746582	3356828.258688142
0.748197	3401407.926614515
0.74982	3399195.3066810877
0.751451	3421404.603081974
0.753088	3413227.41338688
0.754734	3431173.4884579014
0.756386	3246459.207055694
0.758047	3317666.0282538426
0.759715	3219006.0623953966
0.76139	3058238.1473514303
0.763074	2511182.295235628
0.764765	1072409.6784362688
0.766464	106219.84088133865
0.768172	211695.11162397903
0.769887	152581.49491285364
0.77161	708114.4375776623
0.773341	1927374.8658499117
0.775081	3250227.1122608045
0.776829	3907117.138810874
0.778585	4120630.8786369087
0.780349	3456917.9338506665
0.782121	4627756.667134936
0.783902	4903998.103580379
0.785691	5083095.979363936
0.787489	5247700.277598489
0.789295	5404329.343988594
0.79111	5540024.001368944
0.792933	5650220.146024132
0.794764	4983322.280234184
0.796604	5854204.894900385
0.798453	6118633.443259473
0.80031	6262220.285901953
0.802176	6388878.195126555
0.804051	6531325.278643146
0.805934	6658856.544495583
0.807826	6779995.7294135215
0.809727	6916582.135515812
0.811636	7050726.680540093
0.813554	7176808.842344501
0.81548	7316883.138686692
0.817416	7464222.377630747
0.81936	7595078.133483186
0.821313	7696274.976893614
0.823274	7862880.846090589
0.825244	7952375.5715915
0.827223	8105137.354570045
0.829211	8267642.957796529
0.831208	8403845.912796672
0.833213	8580904.330661442
0.835227	8686832.23003265
0.837249	8784492.08754726
0.83928	9022011.111620553
0.841321	9143707.592750447
0.843369	9276744.448145954
0.845427	9430320.731733147
0.847493	9623347.685669366
0.849567	9755672.798919935
0.851651	9868299.292621268
0.853742	10092382.054888021
0.855843	10284247.9515369
0.857952	10453928.358644469
0.86007	10614970.841378143
0.862196	10720726.470910572
0.864331	10684364.61518092
0.866474	11117122.513264144
0.868626	11195998.533289881
0.870786	11231230.965452004
0.872955	11121424.83948296
0.875132	11272740.953020187
0.877317	11816026.815034889
0.879511	12189962.442476233
0.881713	12372612.297888856
0.883923	12543565.836602032
0.886142	12726937.99884325
0.888369	12899563.864205861
0.890604	13075177.263578404
0.892847	12984371.706713215
0.895099	11609231.213042391
0.897358	13527281.691513611
0.899626	13683038.361353163
0.901901	13947234.585932108
0.904185	14174006.535149135
0.906476	14314492.038272582
0.908776	14187130.612631675
0.911083	14743793.738294296
0.913398	14768010.059375145
0.915721	15198409.825593546
0.918051	15384073.008161034
0.92039	15650179.374714362
0.922736	15613128.508347161
0.925089	15807357.346167197
0.927451	15459091.002151733
0.929819	16122846.531408096
0.932195	15993723.484751016
0.934579	14438425.84282486
0.93697	16755795.781596914
0.939369	17114986.291351855
0.941774	17148773.458618924
0.944187	16135226.548472598
0.946607	17638811.879268568
0.949035	17120043.455268316
0.951469	17135851.77613929
0.953911	18639041.374821424
0.956359	18860178.751641445
0.958814	18951936.0051843
0.961277	18665444.1803362
0.963746	18552699.726270296
0.966222	18884746.498818
0.968705	19921040.07978294
0.971194	20173523.13193071
0.97369	20282708.514016204
0.976193	20949029.102845028
0.978702	21182039.208987247
0.981217	21399765.75148945
0.983739	21699485.940008342
0.986268	22058702.08228663
0.988802	22378684.39190329
0.991343	22406347.07210111
0.99389	22858706.73052286
0.996444	23007446.30317604
0.999003	23224200.897096682
1.00157	23669480.95021737
1.00414	23860155.827066947
1.00672	24221808.728096493
1.0093	24453188.64814767
1.01189	24864951.153408017
1.01448	25185955.02676379
1.01708	25448955.15471287
1.01969	25738627.42989562
1.0223	26024231.919276074
1.02492	26369026.881996542
1.02754	26638045.83397111
1.03017	26999638.483818874
1.0328	27272007.190179247
1.03544	27603355.816295594
1.03808	27910335.271793094
1.04073	28202685.000460695
1.04339	28527548.964524463
1.04604	28801629.910140645
1.04871	29157478.24032223
1.05138	29451679.65711504
1.05405	29714333.85797966
1.05673	30051826.89391865
1.05941	30360377.898976568
1.0621	30682746.82813046
1.06479	30986837.14633243
1.06749	31191328.702706352
1.07019	31519779.270815402
1.07289	31874295.204523765
1.0756	32200118.29101075
1.07832	32528332.133817945
1.08104	32845518.60015752
1.08376	33197636.277514186
1.08649	33404748.95109101
1.08922	33732246.78532848
1.09195	33753043.300269574
1.09469	34192457.00583749
1.09743	33161344.58121218
1.10018	34422486.9215507
1.10293	35137698.19364282
1.10568	33685220.92880938
1.10844	34222305.56061692
1.1112	36097381.97425158
1.11396	32957958.4565386
1.11673	33348864.003815994
1.1195	34335074.6825371
1.12228	35872074.13508961
1.12505	37203386.522579
1.12783	37037638.491371915
1.13062	37203760.17763621
1.13341	34338533.07393002
1.1362	35941970.364533514
1.13899	38824840.754522584
1.14178	39157694.32305474
1.14458	37918191.72362479
1.14738	39992823.29402301
1.15019	40473421.645947695
1.153	41022357.09327235
1.1558	40730985.33859535
1.15862	40911951.740152314
1.16143	35489295.05087975
1.16425	39035618.91607513
1.16707	41753209.00177294
1.16989	41593559.0177968
1.17271	43065690.94284934
1.17554	42326611.13716853
1.17837	42151720.88138955
1.1812	44104944.64042388
1.18403	44562410.898689725
1.18686	42313961.5863275
1.1897	44550723.23417616
1.19253	45250315.9524268
1.19537	45839364.66591434
1.19822	45916443.79369903
1.20106	46829560.92757644
1.2039	47161621.390905075
1.20675	47574916.201700166
1.2096	47362238.56885788
1.21245	48173980.918029666
1.2153	48427684.21170001
1.21815	48784815.72857159
1.221	49205104.62688033
1.22385	49274561.32873294
1.22671	50022384.931360304
1.22957	50173468.282727
1.23242	50607560.80197575
1.23528	50953218.51524232
1.23814	51040048.11348574
1.241	51716715.93983315
1.24387	52112062.577497974
1.24673	52311461.367918015
1.24959	52695779.467321515
1.25245	53097423.44882232
1.25532	53437533.48822803
1.25818	53804110.63949134
1.26105	54098805.782326356
1.26392	54308010.43017466
1.26678	54622962.20753415
1.26965	55066235.47123422
1.27252	55370499.12370339
1.27538	55616996.578428395
1.27825	55511232.2492478
1.28112	55683427.29365867
1.28399	56292344.748170376
1.28686	56794408.63834314
1.28973	57159400.58504356
1.2926	57311609.414537035
1.29546	56104679.757624835
1.29833	56617223.13148001
1.3012	58043326.7683709
1.30407	53981278.76067408
1.30694	53961299.938571595
1.30981	58602104.28835204
1.31267	58243467.92647944
1.31554	57124302.83445456
1.31841	58216052.67728577
1.32128	59026524.16266823
1.32414	58658008.894410394
1.32701	60326041.16818336
1.32987	58759409.92017575
1.33274	49580967.195324846
1.3356	53014377.72732216
1.33847	45043174.35862806
1.34133	42230532.000989586
1.34419	46486156.14523684
1.34705	45371133.109658465
1.34991	53841037.273898944
1.35277	60734583.15764573
1.35563	51314929.08121897
1.35849	49817856.06186069
1.36135	44520487.08475161
1.3642	47928307.44767332
1.36706	51377398.21729019
1.36991	55484896.004444346
1.37277	51959633.283095255
1.37562	53518776.59632389
1.37847	45813590.64220483
1.38132	44675952.080971025
1.38417	27611716.04431645
1.38701	27861488.235901196
1.38986	55177863.33556369
1.39271	56316386.939832
1.39555	56778082.44307602
1.39839	60698362.83848947
1.40123	59060971.42747938
1.40407	52414100.24571573
1.40691	48849790.98438644
1.40974	34779836.0285387
1.41258	52529295.56479016
1.41541	54513523.74963676
1.41824	44014198.51666094
1.42107	38644501.49194299
1.4239	41982936.36655996
1.42673	44612989.95023309
1.42955	50899416.406302236
1.43237	53875418.064419724
1.43519	51774697.33666069
1.43801	59069178.34078577
1.44083	63092117.03080737
1.44365	60973493.48268604
1.44646	60755851.87759878
1.44927	63740678.097940415
1.45208	60848723.55574973
1.45489	57564659.36433966
1.45769	65606349.03822586
1.4605	64449642.36926091
1.4633	50242431.87638055
1.4661	54725820.44399118
1.4689	51316873.00833467
1.47169	59362566.03843947
1.47449	55840650.56749135
1.47728	59747287.12178743
1.48007	57975656.6515253
1.48286	60499798.582151264
1.48564	57210401.72752267
1.48842	62161628.6006137
1.4912	65515827.077362955
1.49398	69364888.16766909
1.49676	67096210.419354595
1.49953	64088207.03246602
1.5023	62481405.550587416
1.50507	70218739.08489366
1.50784	72268456.29359512
1.51061	72830915.84322886
1.51337	69136229.35584503
1.51613	70304049.27342471
1.51888	68278636.91727199
1.52164	67763235.0091906
1.52439	71937746.27790523
1.52714	65203371.407328986
1.52989	66107910.688529715
1.53263	75240571.71222071
1.53538	74949585.00930086
1.53812	71706888.0127525
1.54086	69980390.42107126
1.54359	74354403.7978158
1.54632	76092553.35170189
1.54905	76257261.46996278
1.55178	77023599.99077876
1.5545	77225617.47488226
1.55723	75457867.32908562
1.55995	74568583.09137115
1.56266	77665872.52578999
1.56538	78367452.16231985
1.56809	78582747.74943769
1.5708	78689374.33567633
1.57351	78612737.56150939
1.57621	79346069.94667219
1.57891	79561292.45053643
1.58161	79558620.83150047
1.5843	79692212.85367396
1.587	79616122.19356976
1.58969	80207929.61309291
1.59238	80401969.07041556
1.59506	80413528.19318706
1.59774	79989564.19788507
1.60042	80246278.74059021
1.6031	80944597.79078394
1.60577	80981877.78503446
1.60844	80983905.03472404
1.61111	81418298.44334395
1.61378	81564047.83555174
1.61644	81587822.98373334
1.6191	81679300.28611955
1.62176	81845119.85860568
1.62441	81957135.74277028
1.62707	81894169.21126543
1.62971	81776420.33448222
1.63236	82008533.06897245
1.635	81814586.73753066
1.63764	81839154.36646631
1.64028	82281484.40474686
1.64292	82425259.6961338
1.64555	82597700.36503178
1.64818	81909351.17229785
1.65081	80609304.70315146
1.65343	82345967.67062956
1.65605	82550617.8722596
1.65867	79799202.93685359
1.66128	80650614.20205306
1.6639	82762075.4460068
1.66651	82870021.2734358
1.66911	83181043.01970533
1.67172	83313732.57223994
1.67432	83225970.93682823
1.67692	82650690.66225252
1.67951	83245587.2880449
1.68211	83551797.04365246
1.6847	83690296.52700923
1.68728	83151506.1874203
1.68987	82541928.52875258
1.69245	83688127.63257203
1.69503	81229641.59987347
1.6976	78709251.90116996
1.70018	83233826.46628548
1.70275	84354079.28127891
1.70531	84507693.3600671
1.70788	84308745.07742478
1.71044	83725942.92005989
1.713	84352943.60597076
1.71556	84873903.59509054
1.71811	84631657.49805148
1.72066	84116079.16647047
1.72321	83736835.1688791
1.72575	84606266.90588425
1.7283	84449911.85553613
1.73084	82311810.24774039
1.73337	83734557.47935425
1.73591	85454690.94936995
1.73844	84796241.06564872
1.74097	83539857.39204453
1.74349	83372845.41842543
1.74602	84637727.05798838
1.74854	85466784.09684104
1.75105	83470602.76807764
1.75357	71954933.32775952
1.75608	68704315.99054259
1.75859	66835673.29603923
1.7611	71642716.38571845
1.7636	78668278.3515434
1.7661	75628217.93472931
1.7686	78903762.63550134
1.7711	84831961.8118435
1.77359	79641200.7078946
1.77608	61975274.688251026
1.77857	54847879.82086373
1.78105	52482614.2108774
1.78354	57057790.40301283
1.78602	56756506.974392034
1.78849	63152566.49830074
1.79097	66561806.08168046
1.79344	65725221.48316819
1.79591	69438456.87778482
1.79837	72374431.10338813
1.80084	64649866.08224128
1.8033	69538459.35606577
1.80576	74195143.5864426
1.80821	69602830.86352137
1.81067	64687749.608700275
1.81312	67456288.44594751
1.81557	72122597.29799868
1.81801	61123580.96773703
1.82046	62423767.03786138
1.8229	66425327.62908365
1.82533	75954119.91228531
1.82777	72082967.1670795
1.8302	68390662.58271314
1.83263	59682689.87138453
1.83506	46262380.83059575
1.83749	57855496.15455099
1.83991	72706078.40339307
1.84233	80805402.1873235
1.84475	79383329.85733683
1.84716	74041422.51519805
1.84957	76498578.10496105
1.85198	83283372.7582242
1.85439	81505707.13392554
1.8568	75650937.46430242
1.8592	70457894.72446777
1.8616	52383226.4356181
1.864	38178707.42987814
1.86639	36390632.66443919
1.86878	43496194.33726899
1.87118	59621035.02546435
1.87356	65157962.77484646
1.87595	66548830.44714534
1.87833	70061384.22060971
1.88071	72735345.01940362
1.88309	67007611.094499625
1.88547	65342460.63110579
1.88784	73505177.29220285
1.89021	79723810.21843565
1.89258	71926134.47121619
1.89494	66772625.28137877
1.89731	67651304.16518213
1.89967	69972599.44129607
1.90203	73534993.7770374
1.90439	74132241.54954427
1.90674	79075067.09826277
1.90909	83597175.58422281
1.91144	83602953.93789743
1.91379	84265275.49731
1.91613	85625011.64033157
1.91848	85782522.0611421
1.92082	84348227.77211264
1.92315	80173136.1921696
1.92549	76703823.99118276
1.92782	81839796.9398627
1.93015	85298778.80798572
1.93248	78587316.30175945
1.93481	64135679.25000853
1.93713	57809398.9560706
1.93945	64869858.74883558
1.94177	72675682.23256893
1.94409	70442959.53811713
1.94641	73388991.68456608
1.94872	82052101.39980231
1.95103	83718739.64062887
1.95334	79555126.50310062
1.95564	71031437.92895262
1.95795	68664416.63212942
1.96025	69770393.59018892
1.96255	70823740.36782123
1.96484	69503893.85518461
1.96714	68661917.31580837
1.96943	72863097.26866281
1.97172	79169239.47566341
1.97401	78880716.75350736
1.97629	75020933.57055846
1.97858	73965635.72949737
1.98086	71009232.27238217
1.98314	68818545.7411812
1.98541	71194554.80914544
1.98769	77806423.30068193
1.98996	83185956.56664246
1.99223	82571766.09561849
1.9945	83787870.93446115
1.99677	84553125.5108161
1.99903	79014153.61377603
2.00129	74946587.79274853
2.00355	80206094.66634734
2.00581	83218844.78979987
2.00806	79534473.51264
2.01031	75327322.28044859
2.01256	76642002.96603486
2.01481	80431173.8882424
2.01706	81278214.53340289
2.0193	80189948.04973496
2.02154	80957674.33124478
2.02378	81590260.80854423
2.02602	79256320.96899489
2.02825	78837563.54997306
2.03049	82899357.39587852
2.03272	84314662.21659143
2.03494	78954143.1040655
2.03717	71592074.41447143
2.03939	72269717.53269747
2.04162	80656408.22976486
2.04384	85270044.89047152
2.04605	82949495.61433852
2.04827	79903911.85773848
2.05048	80996988.52828762
2.05269	83386409.00671196
2.0549	85245867.98047768
2.05711	85938391.94731371
2.05931	83963926.16374923
2.06151	79009841.13259591
2.06371	78576543.5495895
2.06591	83310496.48155765
2.06811	85948033.5233628
2.0703	85646946.52953231
2.07249	85244460.72501957
2.07468	85407207.5515297
2.07686	85881483.7938454
2.07905	86278079.52285099
2.08123	86421610.36636262
2.08341	86124801.33751984
2.08559	85875072.42514941
2.08776	86121707.4567424
2.08994	85956229.02611096
2.09211	85195145.39627354
2.09428	84813874.15749231
2.09645	85455569.96193822
2.09861	86124433.18887112
2.10077	86164833.21425827
2.10293	86080759.44632152
2.10509	85949411.05049412
2.10725	85693465.99120875
2.1094	85427954.23902905
2.11155	85235371.08671218
2.1137	84811121.86758892
2.11585	84439811.46478498
2.11799	84608804.66709372
2.12013	85183279.92668957
2.12227	85561244.99533594
2.12441	85297236.57977891
2.12655	85208982.30100003
2.12868	85488385.13863483
2.13081	85461081.78342026
2.13294	85045591.12026839
2.13507	84759573.7905615
2.13719	84748601.79893722
2.13931	84644697.3191566
2.14143	84308083.81967418
2.14355	84206082.50488393
2.14567	84364563.34992139
2.14778	84352180.9448013
2.14989	83842430.3622868
2.152	82709396.23185945
2.1541	82310895.23021246
2.15621	83180040.90207544
2.15831	83988428.95020927
2.16041	84366694.7726912
2.16251	84399113.54901455
2.1646	84249318.17985713
2.1667	84011663.85574499
2.16879	83719405.66603683
2.17087	83523763.37659627
2.17296	83484658.99044374
2.17504	83538868.17301589
2.17713	83474886.67199637
2.1792	83320374.22593762
2.18128	83182394.38801204
2.18336	83006674.72149988
2.18543	82912104.14318071
2.1875	82973817.10205631
2.18957	83031524.15563999
2.19163	82985333.03965193
2.1937	82767360.54508105
2.19576	82564183.59684087
2.19782	82637374.55362839
2.19987	82802168.07899001
2.20193	82834423.25110354
2.20398	82693207.50872342
2.20603	82417208.12658034
2.20808	82179279.15274383
2.21012	82041636.31008583
2.21217	81709603.52085197
2.21421	81005026.0877741
2.21625	80804513.8821258
2.21828	81451057.27762291
2.22032	81979048.89641401
2.22235	82021614.3441903
2.22438	82064931.76727274
2.22641	82140941.5787729
2.22843	82121404.04181285
2.23046	81982756.79435804
2.23248	81782879.91736124
2.2345	81591231.35759565
2.23651	81472761.19741221
2.23853	81544225.62573747
2.24054	81373136.46953706
2.24255	80635498.70679562
2.24456	79997767.68285337
2.24657	80107240.2808994
2.24857	80753577.51314206
2.25057	81140756.83782983
2.25257	81097269.98096825
2.25457	80923693.65357096
2.25656	80772663.96335633
2.25856	80612089.83341725
2.26055	80527043.36091717
2.26254	80635642.34880705
2.26453	80703160.27673747
2.26651	80543892.46716978
2.2685	80345042.69613005
2.27048	80359092.32136266
2.27246	80513201.07267375
2.27443	80674642.17957525
2.27641	80762303.44749199
2.27838	80570764.08082108
2.28036	78835898.9399617
2.28233	74578584.30514258
2.28429	71958672.22480264
2.28626	73963135.74547125
2.28823	77902021.50385931
2.29019	79468645.2225758
2.29215	79873411.82589705
2.29411	80257564.21169834
2.29607	80503912.29109108
2.29802	80411594.60130747
2.29998	80443348.45569429
2.30193	80426378.72914852
2.30388	80136347.87693551
2.30583	79675799.41033138
2.30778	79004803.37977795
2.30972	77327356.78260542
2.31167	74688302.35946274
2.31361	73655320.18896978
2.31555	75341332.84382373
2.31749	77713146.284918
2.31943	78487067.00947507
2.32137	77642212.79558192
2.32331	75772285.46354961
2.32524	72211297.43951666
2.32718	68498077.97220117
2.32911	69134167.03518577
2.33104	73659399.6999369
2.33297	77072971.29289675
2.3349	78298391.03625613
2.33683	78045399.03919372
2.33876	76604217.84368552
2.34068	75366048.90034091
2.34261	75821202.71772937
2.34453	77161871.95780827
2.34646	77538476.85545784
2.34838	76607519.06236485
2.3503	74752113.2180235
2.35223	72098837.58177562
2.35415	70517457.38530926
2.35607	72119185.71130876
2.35799	75948488.58465976
2.35991	78642192.91206215
2.36183	79400859.91538674
2.36375	77280963.78530422
2.36566	71254166.68195765
2.36758	67097478.8901383
2.3695	69072225.40420854
2.37142	74740345.59008096
2.37334	77139797.34344593
2.37526	75295298.98421799
2.37718	69823916.16200392
2.3791	66448691.397172935
2.38101	68881351.87984231
2.38293	74430428.33540298
2.38485	76632104.45250562
2.38677	75524915.2074922
2.3887	72756500.17683704
2.39062	68407484.73659685
2.39254	65338031.277949475
2.39446	66783623.91704223
2.39639	71477331.831708
2.39831	75250513.90799771
2.40024	76761683.66392307
2.40216	77061218.90149562
2.40409	75543667.95964542
2.40602	69653551.89913335
2.40795	60471190.03091705
2.40989	55881057.66212831
2.41182	58329723.886900194
2.41376	63209475.84175831
2.4157	67049067.69465077
2.41764	70663699.62329221
2.41958	71704053.26690097
2.42152	67822092.21714973
2.42347	63694322.32608542
2.42542	62105975.451213285
2.42737	61946494.04902133
2.42932	61683197.48306252
2.43128	63331044.49490211
2.43324	66725327.51849522
2.4352	70166673.87559286
2.43717	71058349.3460343
2.43913	66067341.731483236
2.44111	60601705.53466499
2.44308	58807361.91324693
