#wavelength	surface flux
0.676892	839447.8948044723
0.678297	829437.1636438073
0.679702	879345.6789264525
0.681109	898355.4109434265
0.682517	921380.8848873503
0.683926	941841.8165660283
0.685337	962487.9375815713
0.686749	982421.2957846763
0.688164	1002820.2663746533
0.689581	1023846.627914052
0.691	1044582.8169725392
0.692422	1065638.32515888
0.693847	1087846.5208152276
0.695274	1110153.2563538656
0.696705	1132658.4766580253
0.698139	1155202.396957024
0.699576	1178343.7589454765
0.701017	1201921.9931668
0.702461	1226116.138005509
0.70391	1250547.8247675106
0.705362	1275264.3193035272
0.706819	1300497.5080844911
0.70828	1326285.249015228
0.709745	1352783.6124815878
0.711216	1376073.0248697032
0.71269	1392034.5197227278
0.71417	1430833.1551653377
0.715655	1453364.0656884601
0.717145	1486556.1950923875
0.71864	1518632.9501222267
0.72014	1548177.1465657013
0.721647	1578933.6142042836
0.723158	1601111.6577297477
0.724676	1638938.4476806168
0.726199	1672597.702355175
0.727728	1704836.619544976
0.729264	1720727.4094407738
0.730805	1753962.5365857168
0.732353	1806332.0242310772
0.733907	1835375.237727173
0.735468	1856120.457676777
0.737035	1907153.217830123
0.738609	1943969.1373825085
0.74019	1980144.9097678945
0.741777	2020005.0369439984
0.743372	2058132.5213257954
0.744973	2096962.1043921283
0.746582	2136669.241391544
0.748197	2174088.393378624
0.74982	2217863.068669581
0.751451	2256494.484354595
0.753088	2302205.922927087
0.754734	2337924.155348603
0.756386	2309195.424298445
0.758047	2420407.884577107
0.759715	2473351.1692160494
0.76139	2508524.9785135793
0.763074	2488313.6118333065
0.764765	1852420.9461077
0.766464	418532.25784890045
0.768172	955750.2843975764
0.769887	679599.8222891168
0.77161	1772347.550228853
0.773341	2585900.8534626267
0.775081	2892742.833803487
0.776829	2995967.131516046
0.778585	2995805.285882942
0.780349	2564480.108063938
0.782121	3149178.1007740395
0.783902	3242068.9738097293
0.785691	3301135.1243985035
0.787489	3361854.998166798
0.789295	3424068.3724805405
0.79111	3487239.038528727
0.792933	3544182.963944484
0.794764	3526433.807382889
0.796604	3668946.1747153727
0.798453	3743284.975681857
0.80031	3810350.845225483
0.802176	3879567.5619069324
0.804051	3950425.985606055
0.805934	4020155.4752421104
0.807826	4094349.200957374
0.809727	4169144.7833387195
0.811636	4241503.368259849
0.813554	4316687.072705407
0.81548	4398203.921189757
0.817416	4482965.415359239
0.81936	4562638.6178118065
0.821313	4635034.16929028
0.823274	4726424.647691424
0.825244	4798960.25749549
0.827223	4885344.775940103
0.829211	4979410.00017125
0.831208	5063261.691761762
0.833213	5160008.893321761
0.835227	5238498.94090937
0.837249	5314373.720227591
0.83928	5432630.237827356
0.841321	5520658.018699525
0.843369	5611881.515532354
0.845427	5710191.35975939
0.847493	5817814.2646292895
0.849567	5916873.73446509
0.851651	6031791.597956458
0.853742	6126004.055244227
0.855843	6226424.666645916
0.857952	6333476.508856086
0.86007	6438235.127316824
0.862196	6562023.277603922
0.864331	6735158.610377749
0.866474	6772510.738332727
0.868626	6915269.142964275
0.870786	7079215.008648723
0.872955	7243150.925627405
0.875132	7404962.344180374
0.877317	7418822.622339613
0.879511	7485495.71656169
0.881713	7607610.250481493
0.883923	7738698.329571321
0.886142	7854808.946560435
0.888369	7993638.178163551
0.890604	8124003.5991088245
0.892847	8178591.450390058
0.895099	7936121.2177393325
0.897358	8549036.229619766
0.899626	8661014.532070851
0.901901	8768604.21024725
0.904185	8920120.162699055
0.906476	9119044.002223613
0.908776	9053538.79494467
0.911083	9323686.398560416
0.913398	9580795.310416708
0.915721	9669812.816791132
0.918051	9796841.643919956
0.92039	9943816.731362984
0.922736	9998573.344915135
0.925089	10161885.420198176
0.927451	10170324.680183388
0.929819	10488652.702529222
0.932195	10494954.800220547
0.934579	9717453.208585043
0.93697	10907276.097055426
0.939369	11123768.749235604
0.941774	11244257.704057567
0.944187	10768626.62492601
0.946607	11543794.258085081
0.949035	11319526.40823097
0.951469	11393419.472095558
0.953911	12203487.174803404
0.956359	12386503.7105398
0.958814	12486837.503436858
0.961277	12503711.869191604
0.963746	12545223.640981177
0.966222	12684002.203997547
0.968705	13211510.385383321
0.971194	13414385.08481766
0.97369	13550586.62787048
0.976193	13849793.10671428
0.978702	14031437.478491707
0.981217	14232225.402764093
0.983739	14464331.76003376
0.986268	14659346.686204541
0.988802	14863125.2722548
0.991343	15001904.021436185
0.99389	15257036.4235619
0.996444	15454248.920911612
0.999003	15657276.142012373
1.00157	15899477.229287332
1.00414	16127218.402539218
1.00672	16430183.813671393
1.0093	16608761.245179929
1.01189	16841643.859638937
1.01448	17001215.732871387
1.01708	17188553.19718229
1.01969	17415751.504008256
1.0223	17653000.3771842
1.02492	17842816.251809683
1.02754	18138587.512234565
1.03017	18271378.168373488
1.0328	18505889.966026433
1.03544	18732634.74601385
1.03808	18955989.68598401
1.04073	19189437.932988647
1.04339	19416751.541732177
1.04604	19725852.41582187
1.04871	19895357.19611345
1.05138	20117755.89684396
1.05405	20365984.920088824
1.05673	20586687.16861928
1.05941	20823518.360034235
1.0621	21067013.406630117
1.06479	21309982.273062382
1.06749	21526343.37090289
1.07019	21795524.331797004
1.07289	22047834.236439932
1.0756	22292377.685996458
1.07832	22541287.91053025
1.08104	22791567.824616294
1.08376	23050577.1894039
1.08649	23291140.50500014
1.08922	23567809.58959898
1.09195	23767690.748187203
1.09469	24086984.684918065
1.09743	23723966.574004468
1.10018	24418560.435752764
1.10293	24843487.654129412
1.10568	24431305.405744925
1.10844	24863935.280576978
1.1112	25606317.061491847
1.11396	23585820.62049299
1.11673	24255326.226557605
1.1195	25170424.333117347
1.12228	26202331.191607133
1.12505	26766242.280225478
1.12783	26779161.261084903
1.13062	27048088.962449513
1.13341	25755594.65491452
1.1362	26712133.457587313
1.13899	28158715.405771654
1.14178	28424002.44937271
1.14458	27887072.58782897
1.14738	29067380.738661826
1.15019	29332432.301773436
1.153	29716745.52069943
1.1558	29854150.259909127
1.15862	29842507.175434407
1.16143	26490229.351050764
1.16425	29109459.0028451
1.16707	30716578.028041575
1.16989	31014419.062315147
1.17271	31638621.00868193
1.17554	31286771.846284233
1.17837	31326513.428541943
1.1812	32467423.637326848
1.18403	32531216.128330547
1.18686	31589773.284062866
1.1897	33037930.424097423
1.19253	33565412.05952265
1.19537	33882504.945677705
1.19822	34241668.44519454
1.20106	34534835.26377387
1.2039	34851507.71722645
1.20675	35124215.24861267
1.2096	35248060.373440035
1.21245	35684721.10629033
1.2153	35953430.391652696
1.21815	36281234.63617551
1.221	36552202.18588493
1.22385	36809386.67868143
1.22671	37067250.51227848
1.22957	37296542.111620136
1.23242	37696698.49314392
1.23528	38000171.373824805
1.23814	38176123.984489925
1.241	38491168.17964213
1.24387	38793476.49111862
1.24673	39078678.50632359
1.24959	39326534.633863255
1.25245	39623459.636374965
1.25532	39910088.235590875
1.25818	40216435.70672117
1.26105	40503906.83687866
1.26392	40799318.39954103
1.26678	41073012.044386074
1.26965	41340675.495896295
1.27252	41645357.42948268
1.27538	41918293.01840007
1.27825	42108051.82675917
1.28112	42329568.999700665
1.28399	42738826.58412625
1.28686	43040097.345434256
1.28973	43318222.164725326
1.2926	43651657.30691859
1.29546	43081670.94644447
1.29833	43485841.94297199
1.3012	44388169.87362406
1.30407	42036131.4661201
1.30694	42292670.12117036
1.30981	45170607.408773065
1.31267	45111508.21544536
1.31554	44782849.91575956
1.31841	45350239.941404454
1.32128	45944223.397600785
1.32414	46030320.9097356
1.32701	47141970.81040543
1.32987	46305086.08203564
1.33274	39481735.57084262
1.3356	43173016.369716465
1.33847	37943443.02203258
1.34133	37896282.02399487
1.34419	41774526.38941417
1.34705	39040476.16440062
1.34991	44081885.15466181
1.35277	48787138.0058477
1.35563	43494355.47535227
1.35849	42445553.98478619
1.36135	38894409.69355172
1.3642	40714373.30948309
1.36706	43324540.15171519
1.36991	46360988.152158305
1.37277	43921238.23082975
1.37562	45878010.44216867
1.37847	40747208.22306237
1.38132	39393976.26691632
1.38417	25687022.29513197
1.38701	26174453.883371234
1.38986	47246613.97191288
1.39271	48432036.392183214
1.39555	48751620.10683405
1.39839	51060369.0008317
1.40123	49910852.22438995
1.40407	44928556.1292156
1.40691	42892868.99825289
1.40974	30746144.73406731
1.41258	45281988.700455606
1.41541	47222762.45859274
1.41824	41739034.74264226
1.42107	36519159.21462489
1.4239	38225606.10862157
1.42673	39797034.55334666
1.42955	44302943.28863469
1.43237	46950212.46791981
1.43519	45959311.07892532
1.43801	50459295.9070188
1.44083	53909331.41831932
1.44365	53242377.696307555
1.44646	52965843.53692601
1.44927	54711136.72808849
1.45208	52495804.42685868
1.45489	50412384.82298988
1.45769	55764266.6061283
1.4605	55109533.28096803
1.4633	44474928.47068499
1.4661	47767153.70299395
1.4689	45549542.44084179
1.47169	51737805.929285206
1.47449	49438439.540745765
1.47728	52134455.89317901
1.48007	50802841.54859802
1.48286	52878248.977450155
1.48564	49495471.31690622
1.48842	54014399.30379581
1.4912	56738070.84033121
1.49398	59391001.76185201
1.49676	57831056.26823826
1.49953	55879070.66836468
1.5023	54552925.523929164
1.50507	60014062.22407973
1.50784	61709850.4535492
1.51061	61894969.399561405
1.51337	59405611.24777094
1.51613	60389879.187805474
1.51888	59201760.924818605
1.52164	58772182.81251196
1.52439	61757070.468668126
1.52714	56696659.19618904
1.52989	57412128.66820727
1.53263	64223695.50403348
1.53538	64041613.06421106
1.53812	61811873.90815927
1.54086	60731974.22610899
1.54359	63889605.814646505
1.54632	65040717.14123009
1.54905	65417665.38056385
1.55178	65877601.683351435
1.5545	65918742.108842194
1.55723	64948335.88329231
1.55995	64507380.40665052
1.56266	66700671.100385316
1.56538	67302712.09339157
1.56809	67415112.1475723
1.5708	67434182.92040317
1.57351	67431318.99417669
1.57621	67788905.41260701
1.57891	68108237.39643572
1.58161	68355075.55513315
1.5843	68491414.8411575
1.587	68413596.19367479
1.58969	68832115.3802427
1.59238	69081645.89748506
1.59506	69155548.37154926
1.59774	69007663.00370143
1.60042	69169167.93736045
1.6031	69484598.60045154
1.60577	69680509.16828974
1.60844	69879389.70699987
1.61111	70097546.7852909
1.61378	70229750.69640636
1.61644	70366749.52957676
1.6191	70462091.29790285
1.62176	70682663.56083098
1.62441	70817469.18763767
1.62707	70886994.14738543
1.62971	70930564.04574123
1.63236	71190637.71548082
1.635	71170407.45036912
1.63764	71314035.63608366
1.64028	71675980.45491181
1.64292	71786872.63846862
1.64555	71875401.25058243
1.64818	71491119.55059078
1.65081	70727534.1687669
1.65343	71943981.1428654
1.65605	72187598.8157781
1.65867	70244498.16138743
1.66128	70923235.72835474
1.6639	72649068.19392812
1.66651	72856590.1072375
1.66911	73038441.89709705
1.67172	73176960.90505889
1.67432	73192288.59520632
1.67692	72840942.87981185
1.67951	73265528.467299
1.68211	73567805.47509253
1.6847	73731776.42397262
1.68728	73449896.65175052
1.68987	73012432.77139696
1.69245	73920738.77461572
1.69503	72052442.92506716
1.6976	70073748.80213064
1.70018	73593679.2895554
1.70275	74507418.86372887
1.70531	74727090.15779856
1.70788	74624873.68008856
1.71044	74147874.50524233
1.713	74735258.78602628
1.71556	75243161.67738244
1.71811	75129687.32616349
1.72066	74899756.214256
1.72321	74705959.5092836
1.72575	75291893.56356776
1.7283	75116692.82514592
1.73084	73522213.22155783
1.73337	74677019.01073097
1.73591	76054792.09017578
1.73844	75566097.20795502
1.74097	74568948.40903144
1.74349	74352289.4935376
1.74602	75460611.71973598
1.74854	76228232.11272058
1.75105	74587610.62326121
1.75357	64909516.05929414
1.75608	62591779.768638164
1.75859	61390842.95028497
1.7611	65356186.753401116
1.7636	72033413.12795487
1.7661	70862817.01500787
1.7686	72927465.7842794
1.7711	76434672.10995239
1.77359	72353206.19004877
1.77608	58060158.9145759
1.77857	51976033.23375985
1.78105	50693981.19217899
1.78354	54545809.444450825
1.78602	53472335.1674429
1.78849	58412616.80514027
1.79097	62692222.214617
1.79344	62142360.06175077
1.79591	65018764.67491203
1.79837	67607832.17102216
1.80084	61947051.336622104
1.8033	64981473.884064674
1.80576	69363704.55817728
1.80821	67449189.76151735
1.81067	63172782.32174838
1.81312	65005330.65087346
1.81557	67449018.74331625
1.81801	57993499.3529149
1.82046	58919167.65751529
1.8229	62024732.68487646
1.82533	70196330.31839108
1.82777	67977691.23929283
1.8302	65802129.9359902
1.83263	57450611.17364681
1.83506	44713895.36357596
1.83749	55754156.81288967
1.83991	69586466.82800852
1.84233	74804888.45468773
1.84475	73501792.50803432
1.84716	69365388.55993105
1.84957	70744173.72276628
1.85198	75880092.7632014
1.85439	74800557.56911662
1.8568	71741103.67938884
1.8592	67793129.23964705
1.8616	51967926.4774344
1.864	39303200.7719117
1.86639	36245492.13028748
1.86878	40803900.44137951
1.87118	55012686.53888454
1.87356	60510693.9664531
1.87595	62033009.71222
1.87833	64893121.33965343
1.88071	67844184.90479395
1.88309	63437014.3672979
1.88547	61687212.59288467
1.88784	68197645.84887038
1.89021	73296093.16007242
1.89258	66087804.69118437
1.89494	61742270.19014033
1.89731	64185683.23608932
1.89967	66859993.045171544
1.90203	70855429.91897292
1.90439	71894847.07647713
1.90674	74589588.52421324
1.90909	77688248.87879512
1.91144	78528619.67320289
1.91379	78546747.4119432
1.91613	78635943.79968344
1.91848	78466407.25522111
1.92082	77726271.93708363
1.92315	75139404.09022531
1.92549	71972232.07462366
1.92782	75323970.4639029
1.93015	78162214.64591543
1.93248	73059814.9412305
1.93481	62560699.42174953
1.93713	60802526.833236694
1.93945	67487056.49096046
1.94177	70714694.29119413
1.94409	66928496.87218396
1.94641	69082290.54567441
1.94872	76081835.0016017
1.95103	77298387.62277502
1.95334	73597981.39251487
1.95564	66125163.95329739
1.95795	64579909.689624734
1.96025	66442560.98024429
1.96255	68222733.03062665
1.96484	66798232.66862914
1.96714	65357721.22649636
1.96943	68803712.74374783
1.97172	73760445.23763742
1.97401	73930825.32109758
1.97629	71433483.59451555
1.97858	70185504.36959627
1.98086	67331328.86114618
1.98314	65233748.14568421
1.98541	66833875.81492395
1.98769	72338179.90257533
1.98996	77437371.01657528
1.99223	77667098.32257807
1.9945	78175999.0421945
1.99677	78296007.9775956
1.99903	74165312.6832885
2.00129	70878239.26410462
2.00355	74588325.07079099
2.00581	77129678.5598055
2.00806	75378439.02066138
2.01031	72548788.39124931
2.01256	72670884.58398087
2.01481	75113805.13382216
2.01706	75737149.89190137
2.0193	74898050.05343391
2.02154	75272836.66663633
2.02378	75686515.92639156
2.02602	73903473.6385934
2.02825	73765514.15006037
2.03049	77278445.51534612
2.03272	78177947.43077476
2.03494	73377581.85181317
2.03717	67281295.79286876
2.03939	67859432.491889
2.04162	74766290.52103646
2.04384	78716204.5740372
2.04605	77029995.85953704
2.04827	74550259.29627787
2.05048	75264732.1327549
2.05269	77087333.31594115
2.0549	78888867.20692618
2.05711	79841776.44949657
2.05931	78199580.01857287
2.06151	73872691.81829305
2.06371	73369443.7707838
2.06591	77345131.78462964
2.06811	79467526.30500713
2.0703	78890625.81705739
2.07249	78652158.55591656
2.07468	79087011.13283029
2.07686	79459198.23554698
2.07905	79697612.15754196
2.08123	79833505.7632709
2.08341	79671452.34626056
2.08559	79526706.41061814
2.08776	79689089.2979545
2.08994	79463748.67824067
2.09211	78741444.15501086
2.09428	78244099.36536993
2.09645	78753913.2286577
2.09861	79665083.27109978
2.10077	80049484.0897521
2.10293	80099275.9699962
2.10509	79992700.783978
2.10725	79751469.62392195
2.1094	79519218.08912747
2.11155	79330953.82252705
2.1137	78842493.05024692
2.11585	78416234.27942657
2.11799	78437877.71568705
2.12013	78833123.33602785
2.12227	79405059.27590345
2.12441	79600918.39524029
2.12655	79589364.46556044
2.12868	79587333.23540919
2.13081	79585444.90406282
2.13294	79559292.45681147
2.13507	79493057.62409703
2.13719	79446220.66641352
2.13931	79391959.95327947
2.14143	79284385.86774841
2.14355	79241366.9280537
2.14567	79280143.78670529
2.14778	79230449.55776644
2.14989	78706816.53413501
2.152	77562275.64994282
2.1541	77208849.50794846
2.15621	78133932.30944425
2.15831	78844079.63901605
2.16041	78927591.7463377
2.16251	78790991.97713032
2.1646	78705134.79694924
2.1667	78658562.77061538
2.16879	78656580.57262465
2.17087	78679594.61880307
2.17296	78648995.32932742
2.17504	78603934.13614446
2.17713	78518390.9576294
2.1792	78448507.34241651
2.18128	78431883.36440757
2.18336	78385231.21713826
2.18543	78347769.28740431
2.1875	78365168.36694953
2.18957	78370124.55213472
2.19163	78267090.03593333
2.1937	77971268.19028072
2.19576	77707230.85930467
2.19782	77760382.0998178
2.19987	77953213.46741202
2.20193	77974546.10482295
2.20398	77840506.36756502
2.20603	77647065.06099935
2.20808	77584656.23132043
2.21012	77600281.85421832
2.21217	77282702.74696083
2.21421	76626674.2242661
2.21625	76422496.15512498
2.21828	76919467.75454438
2.22032	77414007.23187819
2.22235	77496202.46482928
2.22438	77381328.84373012
2.22641	77227013.41170776
2.22843	77144597.41196713
2.23046	77205319.69514294
2.23248	77311301.65578279
2.2345	77297989.34685655
2.23651	77178213.57652605
2.23853	77056741.16303861
2.24054	76808938.55591413
2.24255	76180460.84090075
2.24456	75654426.14897726
2.24657	75740066.94164376
2.24857	76278807.53750463
2.25057	76671852.5425794
2.25257	76730713.91222352
2.25457	76687783.1309373
2.25656	76651089.47367004
2.25856	76631114.86787255
2.26055	76600499.58650064
2.26254	76584519.18814003
2.26453	76553907.23442215
2.26651	76482246.52035536
2.2685	76399150.12958953
2.27048	76326923.2090782
2.27246	76250078.93840307
2.27443	76221655.02352372
2.27641	76265677.46564877
2.27838	76225858.35758127
2.28036	75009230.54565583
2.28233	71565173.6186171
2.28429	69326828.00120296
2.28626	70925080.84618111
2.28823	74195127.60776404
2.29019	75476963.47840223
2.29215	75624984.50212696
2.29411	75677384.19293056
2.29607	75786691.7856636
2.29802	75796596.68987802
2.29998	75750624.51763852
2.30193	75670543.32930958
2.30388	75565097.98098972
2.30583	75408818.74188487
2.30778	75035358.61635281
2.30972	74169123.10191871
2.31167	73281267.97742903
2.31361	73124370.50256354
2.31555	73702941.68182638
2.31749	74299506.23506887
2.31943	74397795.18070213
2.32137	73696787.76320761
2.32331	72464807.30578731
2.32524	70499295.8970906
2.32718	68985765.67243196
2.32911	69734730.16236773
2.33104	72281372.28922455
2.33297	74054817.7596487
2.3349	74603200.02740875
2.33683	74364605.80362834
2.33876	73821931.34047426
2.34068	73415111.45076685
2.34261	73386361.4594623
2.34453	73477190.78636888
2.34646	73289261.14771809
2.34838	72529080.32928565
2.3503	70965216.05938172
2.35223	68588162.0395425
2.35415	67175253.04016978
2.35607	68564024.0823513
2.35799	71745496.86785772
2.35991	73688645.98883125
2.36183	73967622.80657342
2.36375	72124904.88649198
2.36566	67273831.72960284
2.36758	63832478.12775514
2.3695	65389836.35341297
2.37142	70122911.20079464
2.37334	72164993.80270176
2.37526	70605489.7379945
2.37718	66292391.412486576
2.3791	64337251.37140832
2.38101	66884666.38066887
2.38293	70916785.22968529
2.38485	71826625.84528103
2.38677	70738128.13821252
2.3887	68917941.3469766
2.39062	66333519.30504495
2.39254	64928864.77943987
2.39446	66379327.721931346
2.39639	69324610.34775604
2.39831	71162640.4349483
2.40024	71784160.05564438
2.40216	71867200.24555826
2.40409	70619132.69555733
2.40602	65679278.88757155
2.40795	57681417.005123705
2.40989	53516550.14026756
2.41182	55785533.63957336
2.41376	60692147.30898429
2.4157	64372583.23404894
2.41764	67152281.62302658
2.41958	67402549.95621279
2.42152	63539883.46985829
2.42347	59775146.339358
2.42542	58799281.03882296
2.42737	59448038.749898404
2.42932	59805150.43464477
2.43128	61343101.4926936
2.43324	64024250.575034276
2.4352	67019226.163087405
2.43717	67813121.49229616
2.43913	63430197.59295951
2.44111	58539441.13531614
2.44308	57325941.08037448
