#wavelength	surface flux
0.676892	1322851.8589299626
0.678297	1343049.4736156536
0.679702	1382082.6734887438
0.681109	1412019.1471612866
0.682517	1445688.7051576497
0.683926	1478840.3909312522
0.685337	1506519.8715680342
0.686749	1537684.3516780934
0.688164	1569503.3308150978
0.689581	1605471.7859057346
0.691	1640562.6507525546
0.692422	1672787.1798989116
0.693847	1723182.4265238666
0.695274	1768980.9145019196
0.696705	1807681.0068268164
0.698139	1831749.3304876506
0.699576	1866955.2160538894
0.701017	1909625.458992082
0.702461	1969188.5865924687
0.70391	2012899.3112164827
0.705362	2043667.1236824028
0.706819	2067269.7192042014
0.70828	2119794.3828923632
0.709745	2166523.779530855
0.711216	2204628.4166379115
0.71269	2229681.921825657
0.71417	2283084.4417266212
0.715655	2364452.2372759157
0.717145	2405618.135105661
0.71864	2459913.9560946324
0.72014	2504141.572840144
0.721647	2570935.346736185
0.723158	2627802.294985181
0.724676	2703512.833837387
0.726199	2763312.9933973635
0.727728	2800174.446472044
0.729264	2876569.139849353
0.730805	2959095.3509537834
0.732353	3028733.4983179206
0.733907	2945423.507176271
0.735468	2861600.660683844
0.737035	2951068.5576316547
0.738609	2937844.13339709
0.74019	2973314.5897727534
0.741777	2997279.9359125625
0.743372	3078229.670201789
0.744973	3085269.765595809
0.746582	3162527.457786201
0.748197	3248098.7843719875
0.74982	3346276.2730456605
0.751451	3399108.706487469
0.753088	3516865.9898006055
0.754734	3609874.2744543185
0.756386	3723075.7186392494
0.758047	3804737.74180564
0.759715	3923242.9964626664
0.76139	4043164.1972409706
0.763074	4135464.5660481146
0.764765	4159664.1945581767
0.766464	3952441.4152222094
0.768172	4226068.998939217
0.769887	4202626.63313017
0.77161	4482063.425535116
0.773341	4687968.995481013
0.775081	4869398.259445762
0.776829	5034731.724535133
0.778585	5069761.803592293
0.780349	4532878.673601758
0.782121	5366387.18417807
0.783902	5507959.152115239
0.785691	5651185.626225533
0.787489	5710356.024632884
0.789295	5789048.7681150185
0.79111	5809315.064718344
0.792933	5778069.410276587
0.794764	5854336.275410513
0.796604	5971377.538908556
0.798453	6022122.117517741
0.80031	6205680.354278864
0.802176	6180329.056368904
0.804051	6332128.150446992
0.805934	6478320.578736302
0.807826	6691171.296631483
0.809727	6979606.392860033
0.811636	7218280.744481474
0.813554	7571991.686906244
0.81548	7904722.146185274
0.817416	8373268.6321697645
0.81936	8408254.201792236
0.821313	8611404.85393275
0.823274	9229166.07773715
0.825244	9478176.386097673
0.827223	9391833.83459095
0.829211	9593247.698596109
0.831208	9825016.366891097
0.833213	9870234.348464713
0.835227	10166204.119964065
0.837249	10411830.068043139
0.83928	10664404.188577382
0.841321	10905047.629004404
0.843369	10811720.401000105
0.845427	10575035.49914425
0.847493	10754216.627065362
0.849567	11012117.278408455
0.851651	11230563.148551285
0.853742	10397157.077366145
0.855843	10632108.790659357
0.857952	10745177.275606634
0.86007	10441483.773352558
0.862196	10727508.890087986
0.864331	10765488.750303468
0.866474	10879525.700541195
0.868626	11013176.853012063
0.870786	11319148.620395925
0.872955	11679065.075556526
0.875132	11863950.507235916
0.877317	12230880.070022475
0.879511	12905592.47206479
0.881713	13302353.442487197
0.883923	13895204.671296924
0.886142	14615814.058282899
0.888369	14890188.894545075
0.890604	15829811.101507151
0.892847	16213644.383460727
0.895099	16506772.1318602
0.897358	17490542.702846073
0.899626	17939003.909682777
0.901901	19402012.68951838
0.904185	20383863.40746766
0.906476	20811221.015627645
0.908776	20913757.411027074
0.911083	21522033.341250394
0.913398	22996911.297376342
0.915721	28524634.421969585
0.918051	28623049.513874136
0.92039	26361463.294740826
0.922736	22534536.927066848
0.925089	22424093.512280773
0.927451	21831298.18580828
0.929819	22248715.35015366
0.932195	22362199.8708274
0.934579	22725515.527612552
0.93697	23474870.77069321
0.939369	24375934.52948162
0.941774	25525241.944906823
0.944187	25735112.81740855
0.946607	29253679.75877678
0.949035	29333242.88307092
0.951469	29708721.358819973
0.953911	32146049.719800808
0.956359	34053882.47867376
0.958814	34737702.10141941
0.961277	34210181.1316141
0.963746	33481173.11494479
0.966222	35119960.26055022
0.968705	36591661.6385153
0.971194	37008172.099743135
0.97369	38402283.04181882
0.976193	37280035.02305413
0.978702	41307290.681807585
0.981217	38972016.32762472
0.983739	39953189.301955946
0.986268	44332489.11837005
0.988802	40526056.20131538
0.991343	37472798.62126876
0.99389	39996788.75954121
0.996444	44220485.7445837
0.999003	38061454.1192488
1.00157	44448223.937772684
1.00414	44523803.12390134
1.00672	44872428.37674025
1.0093	44515675.4443887
1.01189	45734168.903722934
1.01448	44390347.85111556
1.01708	40697923.31043137
1.01969	51623652.08544145
1.0223	52981106.86882085
1.02492	50663510.12573256
1.02754	43636174.209883414
1.03017	53114881.101683386
1.0328	58664758.54662663
1.03544	59354290.156161025
1.03808	60414980.1917718
1.04073	65870001.54256828
1.04339	64916727.92928326
1.04604	65273758.186526634
1.04871	65589382.67410453
1.05138	64960486.066298895
1.05405	67385336.6968433
1.05673	64710632.95636926
1.05941	70829124.9872742
1.0621	71138188.18923849
1.06479	73508148.1863237
1.06749	77516360.68633413
1.07019	95257841.7906418
1.07289	95790435.72170548
1.0756	94026742.82094334
1.07832	94078434.91604006
1.08104	82617939.9412428
1.08376	101214041.71648401
1.08649	87772661.33161506
1.08922	101568336.13267118
1.09195	89997024.72035551
1.09469	95135646.98175706
1.09743	86941505.74560581
1.10018	84199551.24473949
1.10293	89318948.4638341
1.10568	77464421.91108215
1.10844	77791715.62990987
1.1112	85135234.89788166
1.11396	85814807.56581749
1.11673	84890091.87163986
1.1195	85113111.22865812
1.12228	87572283.55331391
1.12505	98762403.30658025
1.12783	91711094.63854761
1.13062	101854035.26350641
1.13341	93456421.04139987
1.1362	87484892.84054306
1.13899	85587948.06547663
1.14178	95238065.41051535
1.14458	102014306.05999623
1.14738	108291962.0559062
1.15019	119124222.04381089
1.153	117052926.58028968
1.1558	109612475.07257636
1.15862	122746599.33484837
1.16143	99848727.30303423
1.16425	106944024.95912251
1.16707	111495132.04864345
1.16989	91075027.22818075
1.17271	110265650.37909937
1.17554	98608856.66434179
1.17837	87211701.57843001
1.1812	110766047.32177323
1.18403	127954420.46595962
1.18686	112836946.22185843
1.1897	118991174.63672388
1.19253	114728709.64437686
1.19537	129895340.86333679
1.19822	111676759.23777962
1.20106	135037597.9040362
1.2039	124523887.77481677
1.20675	134027836.03398265
1.2096	136870422.46771368
1.21245	142138813.52336672
1.2153	149989753.71180248
1.21815	147251354.11896616
1.221	149236026.84320113
1.22385	142522488.53092948
1.22671	173236771.36908004
1.22957	162386954.7531403
1.23242	166302250.81455266
1.23528	163275167.36825526
1.23814	170134104.45853192
1.241	150537261.21207887
1.24387	144423885.4785157
1.24673	165576233.95444903
1.24959	158663096.65506157
1.25245	140621289.89700145
1.25532	150008420.1637622
1.25818	168766971.7100848
1.26105	172156798.93667284
1.26392	170206674.749359
1.26678	183680406.4002011
1.26965	201610808.373133
1.27252	191106650.99037743
1.27538	197682723.4589191
1.27825	187000011.0406285
1.28112	188410574.97406024
1.28399	192100179.117561
1.28686	189183802.36025754
1.28973	185888715.79208708
1.2926	189318136.78359377
1.29546	198114401.73659688
1.29833	204709746.70692518
1.3012	208758910.85367945
1.30407	201552884.71110487
1.30694	183871119.23379388
1.30981	199854575.3962762
1.31267	200638534.44471636
1.31554	189459850.8376641
1.31841	207441706.64779115
1.32128	213371675.8208751
1.32414	181477077.93100682
1.32701	165085735.65223697
1.32987	173326871.07692468
1.33274	138638700.7559783
1.3356	130210583.06332053
1.33847	110239396.90734394
1.34133	91512181.51321408
1.34419	104583304.62652357
1.34705	107835824.23985858
1.34991	129397773.53461868
1.35277	142928010.4304853
1.35563	120941718.0467091
1.35849	115930492.18734081
1.36135	106329515.30657914
1.3642	112981603.43897912
1.36706	113795209.4429018
1.36991	119842579.20773776
1.37277	117226746.8974774
1.37562	117135202.72444695
1.37847	111055841.26254345
1.38132	111871505.30343132
1.38417	98273458.4638639
1.38701	94091011.54442166
1.38986	115343496.06499611
1.39271	113785678.44751881
1.39555	114034351.12572692
1.39839	128608893.20000552
1.40123	121946153.67226438
1.40407	119612850.9650004
1.40691	109960981.94674265
1.40974	96378071.11600444
1.41258	111425259.875788
1.41541	117946528.43256517
1.41824	104561088.68676099
1.42107	102028163.61607684
1.4239	106159588.86516686
1.42673	108144074.56685604
1.42955	118519314.2383043
1.43237	117119145.82488745
1.43519	111187094.55477257
1.43801	129460842.19176969
1.44083	127930117.0526837
1.44365	118843580.7571088
1.44646	120552043.86971088
1.44927	127872546.54996148
1.45208	131351320.208261
1.45489	125949945.81633946
1.45769	131020277.80111997
1.4605	127855007.97069421
1.4633	115145175.32937917
1.4661	114489626.93321443
1.4689	110272115.83187586
1.47169	117562051.74609523
1.47449	116271398.95399411
1.47728	122280665.07501534
1.48007	123619678.63785754
1.48286	131378735.95340388
1.48564	134925158.08146027
1.48842	128074501.04409511
1.4912	126827014.28855956
1.49398	134943829.68370286
1.49676	127832467.59477168
1.49953	126247605.0689764
1.5023	128115556.84451564
1.50507	144895701.0647245
1.50784	147459660.41534558
1.51061	154052824.61484188
1.51337	145720358.98677614
1.51613	149307047.95994642
1.51888	147829299.51486608
1.52164	141913379.8742606
1.52439	148302896.20886162
1.52714	144000824.19325173
1.52989	145205821.25789744
1.53263	155235258.39154804
1.53538	155824912.698594
1.53812	147185598.33853284
1.54086	136829688.5369747
1.54359	152207535.16536522
1.54632	167161929.7354494
1.54905	152021909.93395478
1.55178	161347548.63657665
1.5545	172334581.78686365
1.55723	165281897.70842236
1.55995	160666614.0528527
1.56266	162264728.46779352
1.56538	162613485.39109057
1.56809	175914189.84220687
1.5708	184948054.04427692
1.57351	180085984.72519416
1.57621	199913848.80446905
1.57891	197467818.49467397
1.58161	183212300.8006899
1.5843	176567177.99784446
1.587	196515612.2049455
1.58969	204538667.53129622
1.59238	193490625.47409448
1.59506	200202263.7019315
1.59774	205086386.9467432
1.60042	213870802.87655675
1.6031	233476582.02917084
1.60577	221215295.9682426
1.60844	203875009.4397619
1.61111	217834632.64860117
1.61378	227482933.43880197
1.61644	228948875.39902702
1.6191	237806731.94528383
1.62176	235198423.70529684
1.62441	234550047.5071933
1.62707	229205402.93915203
1.62971	233862175.21598133
1.63236	243087599.13967958
1.635	242776885.1465473
1.63764	238749960.37656677
1.64028	238340483.38969025
1.64292	246924860.7601205
1.64555	258054671.8651832
1.64818	253707269.6105118
1.65081	235596614.36434156
1.65343	262167936.2225726
1.65605	261136628.63772133
1.65867	241572208.80149418
1.66128	258234619.344201
1.6639	274910729.5614988
1.66651	261572235.1140307
1.66911	267695328.5380174
1.67172	271530945.69338953
1.67432	268539419.9108231
1.67692	259113061.35008454
1.67951	281633899.07336664
1.68211	291839860.0282178
1.6847	283841936.882127
1.68728	265578880.68610173
1.68987	268750056.60960054
1.69245	261541542.1107896
1.69503	245070509.01373604
1.6976	234669118.8826301
1.70018	240180366.83015078
1.70275	262842452.16513196
1.70531	265256723.6514001
1.70788	268137575.36852068
1.71044	245764860.77496642
1.713	232742413.7492397
1.71556	237512141.43421483
1.71811	228285991.1128076
1.72066	225259883.8491977
1.72321	219015117.94830614
1.72575	223566347.1321655
1.7283	217380107.63749185
1.73084	202429710.31110674
1.73337	203712851.49698284
1.73591	216900036.6739021
1.73844	214061228.70866865
1.74097	199987494.88925365
1.74349	195561014.92882678
1.74602	196493012.4591052
1.74854	211299122.99576473
1.75105	213642318.19225562
1.75357	182527998.09615692
1.75608	154874525.44728214
1.75859	144327797.69293407
1.7611	159762807.51078716
1.7636	170104263.73112497
1.7661	160917976.4250839
1.7686	170480399.0253415
1.7711	184439779.57048303
1.77359	170889142.43712324
1.77608	145407305.5271948
1.77857	142595050.32393408
1.78105	144086223.01107934
1.78354	144471674.9929765
1.78602	142892854.67571783
1.78849	158884900.98430267
1.79097	161049631.63493043
1.79344	154154527.80122542
1.79591	158409325.65784815
1.79837	156537807.61495882
1.80084	142951336.85840043
1.8033	155170824.30518854
1.80576	154663496.9402598
1.80821	145250376.90350807
1.81067	151413744.22391188
1.81312	157184596.75319037
1.81557	160053163.00366652
1.81801	140679875.66551015
1.82046	142175322.7283387
1.8229	152994674.7604077
1.82533	161014284.36261126
1.82777	151028237.01622394
1.8302	148246503.35015208
1.83263	138559864.20532805
1.83506	120372850.10745174
1.83749	129584000.24742079
1.83991	147716828.00482562
1.84233	154141393.49834555
1.84475	149262564.88153604
1.84716	146203573.47917405
1.84957	151763528.98918006
1.85198	155923955.98003468
1.85439	149705407.3447722
1.8568	139643735.21960878
1.8592	136841955.3988253
1.8616	129067170.1438702
1.864	125686106.51968014
1.86639	127895610.33774123
1.86878	126556979.87620361
1.87118	138564648.76687574
1.87356	142513131.8840544
1.87595	143439889.68725204
1.87833	152224020.21549457
1.88071	166214794.02566645
1.88309	167672358.4087279
1.88547	161030064.6913747
1.88784	160265909.3875097
1.89021	158283383.76437718
1.89258	145403594.57782266
1.89494	140842818.64725035
1.89731	142681133.35538787
1.89967	143700305.72894892
1.90203	152582706.43979177
1.90439	154177973.36503637
1.90674	158742703.76127198
1.90909	170257312.7255955
1.91144	171338137.25132167
1.91379	169169034.66062996
1.91613	166726782.2662863
1.91848	170052347.60575798
1.92082	170445866.30267256
1.92315	163149234.87726864
1.92549	155104768.71420574
1.92782	158251026.5692805
1.93015	166453935.21883592
1.93248	162510651.3013555
1.93481	144107492.6597567
1.93713	134797024.94775257
1.93945	143529082.43636665
1.94177	153847493.88815662
1.94409	152494508.17098826
1.94641	156074396.28108588
1.94872	167492925.11375204
1.95103	169940459.9600341
1.95334	165517363.90477464
1.95564	152799502.63474432
1.95795	147086508.24772805
1.96025	149973236.42922634
1.96255	150728073.15506318
1.96484	146909145.1881844
1.96714	144210361.83202326
1.96943	145860843.58788165
1.97172	154250424.71711686
1.97401	153997152.35867307
1.97629	148935504.27017766
1.97858	153423616.50126654
1.98086	150611152.74075168
1.98314	143866261.80580035
1.98541	146021829.79940346
1.98769	156300155.42689192
1.98996	164547727.28531992
1.99223	168005386.34736663
1.9945	173657563.49150932
1.99677	174741010.95699322
1.99903	164455861.25912136
2.00129	151685589.7982566
2.00355	151657916.93228057
2.00581	153142836.40530157
2.00806	147659288.93949953
2.01031	147655827.78543714
2.01256	160180628.9257125
2.01481	167002076.23437274
2.01706	157024541.74150854
2.0193	147652904.95683858
2.02154	152743968.27743077
2.02378	161727341.4087149
2.02602	156763356.25110656
2.02825	153209442.3107956
2.03049	165005766.52795935
2.03272	167628778.3650124
2.03494	150000990.52869123
2.03717	136069745.31279302
2.03939	142317426.94664985
2.04162	157043190.48298678
2.04384	166881375.5008792
2.04605	165446142.31727955
2.04827	156131906.2933264
2.05048	154879069.03001186
2.05269	161093295.59574586
2.0549	173936770.60406408
2.05711	185148258.12716734
2.05931	182489236.22878984
2.06151	170636906.75038406
2.06371	163534700.19607487
2.06591	166845710.02783224
2.06811	168075814.16138893
2.0703	161715213.90368363
2.07249	164648249.04887855
2.07468	172406500.40864694
2.07686	172618690.5363684
2.07905	170317145.22681722
2.08123	169317093.1540959
2.08341	169523513.01896986
2.08559	170646180.40997258
2.08776	169876593.1215854
2.08994	167429308.03007457
2.09211	164403151.56898388
2.09428	159754437.3780688
2.09645	161195107.8717897
2.09861	171755697.06378752
2.10077	178873895.64235628
2.10293	179367398.10976443
2.10509	178862129.73503202
2.10725	179905664.79427487
2.1094	181790991.00957763
2.11155	180802611.6079757
2.1137	174184303.96093616
2.11585	168450458.6682904
2.11799	165639835.03944305
2.12013	164881186.82759556
2.12227	173064927.92936164
2.12441	186353111.41113734
2.12655	187796773.89710835
2.12868	179702415.3726002
2.13081	179404143.8230517
2.13294	187365273.51349303
2.13507	191797906.9765839
2.13719	190661985.56045404
2.13931	193171769.6493823
2.14143	201128376.4864833
2.14355	202267380.05927673
2.14567	197011526.16889852
2.14778	194975471.63896275
2.14989	191877044.53109542
2.152	184801912.33941042
2.1541	182662458.48034936
2.15621	187921768.9211809
2.15831	188913728.1061797
2.16041	183310394.29886034
2.16251	181419778.6993313
2.1646	183883792.93992382
2.1667	187655220.98128188
2.16879	194882079.4796913
2.17087	200905138.5646939
2.17296	200574637.91114983
2.17504	196303803.23664913
2.17713	194912535.190824
2.1792	199293620.2686248
2.18128	205138616.53303552
2.18336	209699190.9715382
2.18543	210263923.37923598
2.1875	206147586.48718554
2.18957	203062742.8598574
2.19163	200891947.06162897
2.1937	195995883.75004226
2.19576	192071118.7461067
2.19782	193886937.61681685
2.19987	198537090.66328028
2.20193	198806978.6175495
2.20398	197600926.1401191
2.20603	198058281.87108278
2.20808	200966223.0158414
2.21012	205105684.65687808
2.21217	204068523.6553581
2.21421	200171781.88000527
2.21625	196779333.3749057
2.21828	194981355.11734706
2.22032	198421125.05939388
2.22235	201252197.31539634
2.22438	196310160.1748674
2.22641	188584551.75493044
2.22843	185538874.70385182
2.23046	191041361.89436346
2.23248	199082177.07193607
2.2345	202473245.1989745
2.23651	201764516.95878425
2.23853	196423738.85282168
2.24054	193192031.3842771
2.24255	192614625.3645009
2.24456	191550921.38405135
2.24657	189713214.34930816
2.24857	190648133.52280238
2.25057	195885662.9941845
2.25257	199489771.22827646
2.25457	200823083.47376972
2.25656	202337280.12596968
2.25856	205664286.73373142
2.26055	207049110.5893872
2.26254	203764364.85729802
2.26453	201077186.62880474
2.26651	203111093.97107726
2.2685	205553561.67179817
2.27048	202743026.2385567
2.27246	196142350.71515164
2.27443	190380577.83129105
2.27641	188342295.76886782
2.27838	192068503.65281758
2.28036	198781410.84719256
2.28233	196683028.42144448
2.28429	188938462.20511633
2.28626	185296799.13539743
2.28823	184479890.3465541
2.29019	179657507.353393
2.29215	177394535.4009719
2.29411	179948127.77913433
2.29607	182590621.69703394
2.29802	181685325.1202989
2.29998	178472058.8577374
2.30193	180910321.72382537
2.30388	188331585.43943948
2.30583	194578786.2850341
2.30778	192715754.69126016
2.30972	181943323.30830166
2.31167	168350992.78917903
2.31361	163124601.7434074
2.31555	168677433.89560995
2.31749	175753693.81581217
2.31943	173715509.77714184
2.32137	161952319.44542924
2.32331	150345853.5037419
2.32524	145097019.96707904
2.32718	142494162.18006822
2.32911	142588032.58149207
2.33104	148228513.86763212
2.33297	155863376.84615046
2.3349	161027345.16814652
2.33683	160104279.59513092
2.33876	157247526.7655014
2.34068	159504287.9860599
2.34261	162995713.32811582
2.34453	163478582.54797512
2.34646	161571576.94697696
2.34838	157291151.90347037
2.3503	149773395.04345912
2.35223	143397546.6373418
2.35415	142646822.45044568
2.35607	147585601.46703434
2.35799	153987425.2213694
2.35991	157653041.68232623
2.36183	160907253.35073635
2.36375	161998520.69063213
2.36566	153501462.2235348
2.36758	143146209.83469024
2.3695	144219665.38324547
2.37142	157538209.72481537
2.37334	168066065.0817422
2.37526	166337512.23441455
2.37718	155229426.63961035
2.3791	147047949.2028035
2.38101	148134496.15572384
2.38293	153117683.8728158
2.38485	154430331.62490973
2.38677	155604235.4386984
2.3887	157598850.89525837
2.39062	154271907.7051178
2.39254	148962263.97826526
2.39446	149224436.17649245
2.39639	153353443.62800634
2.39831	152829647.94657144
2.40024	148482135.09524
2.40216	147048456.5963725
2.40409	147568191.41007742
2.40602	142092114.89423868
2.40795	129084715.03891483
2.40989	119232824.38758202
2.41182	120234043.63385828
2.41376	128418364.6599982
