#wavelength	surface flux
0.676892	109417.9732032493
0.678297	112556.48594159322
0.679702	116635.47988455399
0.681109	120371.89753027432
0.682517	124203.72169824521
0.683926	128139.84275441994
0.685337	132169.77601235776
0.686749	136279.55088105175
0.688164	140507.29562745127
0.689581	144810.3070862633
0.691	149294.75120542757
0.692422	153847.76988065243
0.693847	158572.77051586073
0.695274	163418.85687399498
0.696705	168391.71862828996
0.698139	173502.06992615567
0.699576	178779.35304504275
0.701017	184204.05191754966
0.702461	189786.65494761724
0.70391	195521.85659137787
0.705362	201369.19920245727
0.706819	207387.2312983376
0.70828	213580.50826925173
0.709745	219916.38586572153
0.711216	226392.20084507388
0.71269	233005.15773469684
0.71417	239974.3180007888
0.715655	246835.88659291525
0.717145	254077.28197324503
0.71864	261552.73075043617
0.72014	269081.39243541396
0.721647	276834.5840296393
0.723158	284682.4337421033
0.724676	292959.4121842387
0.726199	301330.7043678832
0.727728	309899.7195829447
0.729264	318384.99976300437
0.730805	327279.65768925013
0.732353	336982.464333177
0.733907	345881.4810653165
0.735468	354896.94862097927
0.737035	365557.05878033955
0.738609	375365.1675279796
0.74019	385582.2287844113
0.741777	395925.1259322321
0.743372	407183.25220204657
0.744973	417802.1011377536
0.746582	429407.99539156817
0.748197	441448.42385861
0.74982	453295.8823365012
0.751451	465501.3021221442
0.753088	477961.0295768972
0.754734	491044.5847842767
0.756386	502517.3053046102
0.758047	515896.6101143522
0.759715	527876.5328874496
0.76139	539056.7984203727
0.763074	540398.5686275702
0.764765	461698.7780814378
0.766464	215222.5003170326
0.768172	356399.5373389546
0.769887	292898.3887238452
0.77161	486631.00209561473
0.773341	608624.2832034043
0.775081	665929.54352016
0.776829	697002.6269549369
0.778585	706518.0270378017
0.780349	614341.9476884544
0.782121	760154.9537685219
0.783902	791639.2239334575
0.785691	815459.991793955
0.787489	839551.065637644
0.789295	864195.1447027867
0.79111	888810.8126842714
0.792933	912899.889412931
0.794764	913131.0976425473
0.796604	963757.085756094
0.798453	994664.5612951383
0.80031	1023376.7823632892
0.802176	1051247.4439591998
0.804051	1081373.9000921138
0.805934	1111809.068963917
0.807826	1143563.2923973906
0.809727	1176273.2988743533
0.811636	1209424.2193152232
0.813554	1243426.591568509
0.81548	1278491.1818940553
0.817416	1314489.7685344035
0.81936	1350465.1400590537
0.821313	1387367.3866392057
0.823274	1426641.149668887
0.825244	1464865.1693068848
0.827223	1505249.0860171283
0.829211	1546814.195006324
0.831208	1588846.450259833
0.833213	1632801.538805773
0.835227	1675137.8964127435
0.837249	1718212.8109187626
0.83928	1766003.7637926473
0.841321	1811883.3333517138
0.843369	1858666.7258520557
0.845427	1906876.3680741608
0.847493	1957868.3995454526
0.849567	2008400.8266100478
0.851651	2057562.8900930772
0.853742	2106880.931261967
0.855843	2164862.7872539377
0.857952	2219130.7489541364
0.86007	2269840.254784579
0.862196	2327340.5822575246
0.864331	2380121.293521316
0.866474	2444310.782466193
0.868626	2501935.4180291416
0.870786	2564074.577892605
0.872955	2625694.9230181393
0.875132	2689432.417605999
0.877317	2771592.2656871546
0.879511	2852359.849445823
0.881713	2924830.2115243515
0.883923	3000375.3950469033
0.886142	3077637.773474819
0.888369	3151131.651918965
0.890604	3231618.62068269
0.892847	3280326.122406499
0.895099	3196230.2384569235
0.897358	3471570.832534211
0.899626	3557710.494699912
0.901901	3648270.2117334055
0.904185	3739160.0935934368
0.906476	3826085.227243507
0.908776	3905880.0745966905
0.911083	4018915.6037300946
0.913398	4109179.2488432718
0.915721	4224533.580612685
0.918051	4326648.252890659
0.92039	4431268.843571787
0.922736	4515410.989267054
0.925089	4618760.208236947
0.927451	4691093.814415148
0.929819	4823108.646711258
0.932195	4914087.389110982
0.934579	4917876.057377126
0.93697	5174418.000113131
0.939369	5302850.427728753
0.941774	5421149.645015347
0.944187	5464417.405817305
0.946607	5690925.709306715
0.949035	5772147.148640116
0.951469	5882680.787670461
0.953911	6106515.260892333
0.956359	6254127.349355817
0.958814	6405290.128717427
0.961277	6494619.825091238
0.963746	6584270.520213788
0.966222	6768571.859070288
0.968705	6971838.208928956
0.971194	7125702.740498063
0.97369	7261398.479528831
0.976193	7464885.097781381
0.978702	7625662.569013417
0.981217	7781426.18974645
0.983739	7947633.717675792
0.986268	8171913.098301588
0.988802	8326114.89274133
0.991343	8348943.731947708
0.99389	8556916.668973336
0.996444	8748111.94600501
0.999003	8867804.603291305
1.00157	9112385.662345264
1.00414	9297477.302674202
1.00672	9474015.943044519
1.0093	9695524.392153269
1.01189	9904495.373046448
1.01448	10106600.435370864
1.01708	10261935.791106457
1.01969	10530325.718234899
1.0223	10748053.142268231
1.02492	10939391.352879308
1.02754	11093742.828179685
1.03017	11385442.558973148
1.0328	11641028.643212553
1.03544	11880446.65196602
1.03808	12131623.39924859
1.04073	12404328.769714408
1.04339	12597042.97051174
1.04604	12843988.902323648
1.04871	13132466.803214319
1.05138	13300634.196026847
1.05405	13620159.84583821
1.05673	13818288.563727062
1.05941	14110800.38064581
1.0621	14402131.49303959
1.06479	14734773.386740431
1.06749	15007794.736177174
1.07019	15401543.484352833
1.07289	15665128.833379366
1.0756	15960875.79985939
1.07832	16309148.67150819
1.08104	16422465.319287412
1.08376	17048577.996164564
1.08649	17021611.613890618
1.08922	17550509.36695222
1.09195	17595052.173888955
1.09469	18060607.740211885
1.09743	17955446.302064408
1.10018	18388481.54268421
1.10293	18664114.22153
1.10568	18581961.26338152
1.10844	18993180.129549034
1.1112	19507304.510662686
1.11396	18984246.085034367
1.11673	19424454.596754476
1.1195	20250793.205667447
1.12228	20606193.859482456
1.12505	21252887.46874185
1.12783	21615410.66624518
1.13062	21945759.05081396
1.13341	21382337.97682679
1.1362	21967763.298664972
1.13899	22535992.86291279
1.14178	23036781.057704512
1.14458	23375870.81819723
1.14738	24172063.468799364
1.15019	25028781.25774208
1.153	25209078.1804042
1.1558	25361171.318645287
1.15862	25979163.656818114
1.16143	24571825.743187252
1.16425	25729773.810589112
1.16707	26232500.852030516
1.16989	26113893.814428885
1.17271	27319491.242313735
1.17554	27066904.510199815
1.17837	26895109.21885322
1.1812	28550962.207317855
1.18403	29312796.97626844
1.18686	29083238.25243394
1.1897	29985093.340570413
1.19253	30389355.337120626
1.19537	30992205.41120987
1.19822	31052540.739762627
1.20106	31924635.11557369
1.2039	32362248.486668613
1.20675	33225491.18152318
1.2096	33488459.70010293
1.21245	34032419.36524408
1.2153	35043172.21058928
1.21815	35392137.63710099
1.221	35660105.27049456
1.22385	36358499.758134216
1.22671	37393147.17991967
1.22957	37534116.74032739
1.23242	38106313.32852731
1.23528	38225552.31192782
1.23814	39175789.7546477
1.241	38418945.63970931
1.24387	38268109.78779151
1.24673	40300522.022834286
1.24959	40452379.70481031
1.25245	39271623.51478444
1.25532	40992077.0925522
1.25818	42399051.98349201
1.26105	43317903.36761887
1.26392	43291124.17058751
1.26678	44796587.70153934
1.26965	45593665.95952417
1.27252	46028664.66945812
1.27538	46523682.81267636
1.27825	46289936.46077182
1.28112	47551158.31145258
1.28399	47861702.27801047
1.28686	48102972.67848643
1.28973	48495510.75958563
1.2926	48937283.8971672
1.29546	49364843.135209925
1.29833	50028241.892774746
1.3012	51260642.566177644
1.30407	51283656.017659724
1.30694	49984043.42782937
1.30981	52283113.881646715
1.31267	53148391.698464856
1.31554	52698417.86452593
1.31841	53475309.475334264
1.32128	54221143.2781052
1.32414	52494276.26842448
1.32701	52070572.14432733
1.32987	51368466.09602717
1.33274	44334022.13270536
1.3356	46568566.71308974
1.33847	39949304.957023315
1.34133	39701063.33601691
1.34419	42832987.963726096
1.34705	44193369.054686725
1.34991	48054897.163513765
1.35277	50292429.92374375
1.35563	43529754.87505678
1.35849	45170093.518198065
1.36135	42647725.00955549
1.3642	46439793.67734411
1.36706	48664630.88040601
1.36991	50576484.29697931
1.37277	49699403.58462566
1.37562	50320923.32083522
1.37847	47806961.81342369
1.38132	44569253.72212754
1.38417	34892865.749244094
1.38701	37020060.090605624
1.38986	52102272.576870136
1.39271	52067668.390885144
1.39555	52832148.20558105
1.39839	55437043.68639549
1.40123	55131735.15144031
1.40407	50669121.40186875
1.40691	49333340.72168937
1.40974	39455232.67185417
1.41258	52075226.08712649
1.41541	54815092.96729704
1.41824	47696024.26334347
1.42107	47504335.92922891
1.4239	49445767.91348115
1.42673	50806765.7647513
1.42955	53621620.77289836
1.43237	54849972.603653915
1.43519	54850764.42332217
1.43801	58725515.60206631
1.44083	60460734.452394515
1.44365	58904457.15213805
1.44646	59451666.53567523
1.44927	61425144.80086618
1.45208	61132720.67169598
1.45489	58547602.56401304
1.45769	64031758.23573534
1.4605	63723660.53029473
1.4633	55564789.75823367
1.4661	57932904.62122489
1.4689	57830399.06821626
1.47169	62985631.99415355
1.47449	62178171.8770072
1.47728	63750055.28925737
1.48007	62760176.58405605
1.48286	64112198.05322336
1.48564	63110226.709998585
1.48842	65067331.17500139
1.4912	66910857.02268491
1.49398	69738610.55164018
1.49676	69222765.5467731
1.49953	67963845.30476633
1.5023	67688175.06982316
1.50507	72597198.84678431
1.50784	73226065.27622537
1.51061	74476322.97046801
1.51337	73621602.80889016
1.51613	73854660.60964587
1.51888	73395113.57756172
1.52164	73395288.7061884
1.52439	76241503.77389777
1.52714	72884656.0965064
1.52989	73567419.38944757
1.53263	78066596.44712955
1.53538	79205689.6359358
1.53812	77449448.77370103
1.54086	75955075.56115627
1.54359	79165190.50694491
1.54632	82280502.4575655
1.54905	81344090.50322622
1.55178	82347471.5890291
1.5545	84034572.45850718
1.55723	84299015.28403111
1.55995	84347720.10913311
1.56266	84619751.072731
1.56538	85656210.15188819
1.56809	88120058.22169077
1.5708	88742981.25705944
1.57351	88693948.63825478
1.57621	90227624.12651467
1.57891	90594716.6619303
1.58161	90674911.68700081
1.5843	90262989.97081482
1.587	91975246.3262102
1.58969	93182745.3976189
1.59238	92842152.65866889
1.59506	93655818.42983773
1.59774	94651785.69829325
1.60042	95774789.45011954
1.6031	97551387.81468114
1.60577	96915189.2718778
1.60844	95938835.86450672
1.61111	97671036.52564974
1.61378	99115011.71204238
1.61644	99673019.78027026
1.6191	100428332.42732541
1.62176	100454022.02221976
1.62441	101028891.9397561
1.62707	100995425.15603447
1.62971	101394872.32241803
1.63236	102357152.65498084
1.635	102818372.2349765
1.63764	103051048.61616902
1.64028	102929506.12024951
1.64292	103664832.56470647
1.64555	104726382.19791757
1.64818	104537572.53621674
1.65081	103238962.16113788
1.65343	105593286.4295792
1.65605	105843913.0330553
1.65867	104079630.94381894
1.66128	105650625.9093508
1.6639	107513643.30852985
1.66651	106869964.38883288
1.66911	107443134.43169904
1.67172	107906081.08232395
1.67432	108130057.75157596
1.67692	108024792.15608983
1.67951	109407772.3854246
1.68211	110242914.57622056
1.6847	110309879.76781455
1.68728	109491669.34936285
1.68987	108747859.11776468
1.69245	108651797.61126138
1.69503	107122232.39816548
1.6976	105183110.49594969
1.70018	107491962.94827908
1.70275	109930949.29424837
1.70531	110407972.57816766
1.70788	110054816.2261136
1.71044	107531000.68143123
1.713	106815159.44388798
1.71556	107497260.35744925
1.71811	106835321.98197441
1.72066	106024303.0421304
1.72321	104063762.36182937
1.72575	105449187.43910871
1.7283	106078504.02651095
1.73084	104073932.16271672
1.73337	103365426.76214635
1.73591	105372880.16338395
1.73844	105785969.26657118
1.74097	103826787.04750285
1.74349	102207469.37964487
1.74602	102407393.29370788
1.74854	105684610.6065073
1.75105	104534453.32573904
1.75357	92587403.88034649
1.75608	88920977.78407326
1.75859	88644747.0600752
1.7611	92589894.5353342
1.7636	95209657.12981531
1.7661	90299584.340116
1.7686	92580617.35532899
1.7711	99710789.06304939
1.77359	95125505.19433685
1.77608	78841543.23051746
1.77857	75640970.77761911
1.78105	76080202.70591651
1.78354	78178634.91633931
1.78602	75038387.21390197
1.78849	79731909.17885254
1.79097	80433878.14975731
1.79344	80640414.09581712
1.79591	87292135.20190538
1.79837	89990579.10721092
1.80084	81570517.03054658
1.8033	87727796.22203581
1.80576	91848491.37114519
1.80821	86334063.76542908
1.81067	84245533.12752897
1.81312	87038506.6960512
1.81557	90713523.42848697
1.81801	78641824.2222099
1.82046	79143901.0487138
1.8229	84048075.73344988
1.82533	92215821.8666649
1.82777	88844277.86677784
1.8302	87498483.40128009
1.83263	80225539.10652651
1.83506	67075598.87555266
1.83749	77816364.31032242
1.83991	89513125.68405738
1.84233	95796028.02868946
1.84475	93684211.8346278
1.84716	88024764.06337938
1.84957	92112628.30611628
1.85198	99400964.21554308
1.85439	96939348.84278706
1.8568	90197282.5180597
1.8592	85686430.81854229
1.8616	72570920.08725718
1.864	61542585.06030823
1.86639	57588315.00939651
1.86878	61437877.59685024
1.87118	77726343.943102
1.87356	83394231.01355352
1.87595	83153388.7727476
1.87833	87453495.7453725
1.88071	94000220.35001306
1.88309	90407969.55622327
1.88547	88137961.19281138
1.88784	94041306.7894241
1.89021	98433434.64533575
1.89258	91837432.70244594
1.89494	87528083.68992905
1.89731	89763590.09503144
1.89967	91864091.63055858
1.90203	93921589.35491559
1.90439	93530933.83316623
1.90674	98573794.81274232
1.90909	103831348.96397619
1.91144	102127861.29144341
1.91379	102564601.67000425
1.91613	105268355.33860022
1.91848	107310970.1806649
1.92082	105591957.34611814
1.92315	100530736.7814513
1.92549	100043658.21564497
1.92782	105049793.63708988
1.93015	107241746.63230881
1.93248	102232201.481612
1.93481	89535329.08621982
1.93713	79167285.52839944
1.93945	81932560.08794819
1.94177	92465807.60026173
1.94409	93609715.9999689
1.94641	95579608.19092986
1.94872	102911488.17158963
1.95103	106363925.6344808
1.95334	102677134.04356213
1.95564	91157083.1976641
1.95795	88698528.30448417
1.96025	92687567.42988805
1.96255	91811784.57128793
1.96484	88675248.79292917
1.96714	89027971.57138056
1.96943	93277816.0776122
1.97172	100375157.03464928
1.97401	100922764.88398232
1.97629	97161508.45162658
1.97858	97118779.37430492
1.98086	94389843.17056185
1.98314	93167111.28586555
1.98541	96980490.2907
1.98769	102299695.34165722
1.98996	103010882.37202203
1.99223	100625659.5365582
1.9945	104703822.5408669
1.99677	107200683.42179167
1.99903	101703483.16268052
2.00129	96827816.39141414
2.00355	99784451.7432255
2.00581	101779788.51165654
2.00806	96064960.44477642
2.01031	92341053.22574577
2.01256	99455775.59104766
2.01481	105095471.94870962
2.01706	101641891.67671032
2.0193	98758196.65752502
2.02154	103652728.67703395
2.02378	107333561.43083717
2.02602	103200726.62348178
2.02825	101144407.63672644
2.03049	106106501.3399944
2.03272	109167620.19640061
2.03494	104030234.01974665
2.03717	96955047.62997523
2.03939	98684814.87773724
2.04162	106146063.13701728
2.04384	110261211.66778536
2.04605	109243105.21338306
2.04827	106411197.57242627
2.05048	108079525.22924238
2.05269	111315438.58520277
2.0549	114215366.35409562
2.05711	116554348.66439453
2.05931	114809730.82114057
2.06151	110410488.93530795
2.06371	109678697.55730587
2.06591	113046469.52091824
2.06811	115219856.63476318
2.0703	114281814.04386164
2.07249	114856957.99043426
2.07468	116457830.92613246
2.07686	116779925.5684139
2.07905	116630009.39347568
2.08123	116397593.0800819
2.08341	116586114.85634522
2.08559	116923133.0278493
2.08776	116928464.43878672
2.08994	116844239.54789463
2.09211	116383627.60205685
2.09428	115207708.29742788
2.09645	115497318.89160998
2.09861	117778409.36439386
2.10077	119549866.73602535
2.10293	120212040.05215806
2.10509	120344768.63611001
2.10725	120192096.77316068
2.1094	120018740.43904947
2.11155	119605120.67609017
2.1137	118373281.13217895
2.11585	117202155.34585445
2.11799	116693925.90908869
2.12013	116898942.18233086
2.12227	118807199.61687678
2.12441	121365841.01922257
2.12655	121773795.47584257
2.12868	120448390.13482141
2.13081	120485144.2707808
2.13294	122071708.44596617
2.13507	122884206.31892398
2.13719	122681447.90659143
2.13931	122895147.71651329
2.14143	123859989.60956176
2.14355	124023592.33306812
2.14567	123383735.72677681
2.14778	123145028.81769957
2.14989	122533630.2133919
2.152	121105886.97683567
2.1541	120822687.98623522
2.15621	122060430.40895304
2.15831	122418155.0905417
2.16041	121630137.01653871
2.16251	121187267.02937737
2.1646	121163335.19645776
2.1667	121549715.41469838
2.16879	122681750.96866593
2.17087	123508176.17688218
2.17296	123390008.12643872
2.17504	122980736.03225432
2.17713	122855550.44587958
2.1792	123180275.50132267
2.18128	123762779.66293204
2.18336	124219334.45781389
2.18543	124208625.29915401
2.1875	123733509.20356053
2.18957	123335704.09636374
2.19163	122914362.36516108
2.1937	122056418.70366135
2.19576	121441936.75439373
2.19782	121804611.68451883
2.19987	122400323.08163334
2.20193	122136995.82519083
2.20398	121780583.51070973
2.20603	121867856.7679949
2.20808	122487684.0890773
2.21012	123069734.01915954
2.21217	122673878.65603356
2.21421	121925264.37124938
2.21625	121559264.95271404
2.21828	121570547.22541724
2.22032	121909657.82968512
2.22235	121910324.35411924
2.22438	121027714.13648248
2.22641	120142464.22744477
2.22843	120143999.62611282
2.23046	120908591.64203227
2.23248	121705071.597212
2.2345	121961004.87865867
2.23651	121731403.99989961
2.23853	120960991.2787569
2.24054	120438517.24595977
2.24255	120146830.05183807
2.24456	119810336.33020718
2.24657	119328594.97822434
2.24857	119222894.14246812
2.25057	119876570.85858734
2.25257	120615556.54696153
2.25457	121141650.57231484
2.25656	121402585.9729165
2.25856	121721676.5738718
2.26055	121648659.3004843
2.26254	120663610.61302286
2.26453	119800163.66133633
2.26651	120001231.2317296
2.2685	120387759.1670587
2.27048	119789478.67332725
2.27246	118940455.70509441
2.27443	118749148.15089321
2.27641	118975640.5952215
2.27838	119243398.14642219
2.28036	118637385.1820097
2.28233	115261499.05222252
2.28429	112626929.2555571
2.28626	113800229.8147079
2.28823	115984241.96589926
2.29019	114713204.44925341
2.29215	113384958.33146243
2.29411	114188410.61044906
2.29607	115372414.43588692
2.29802	114791652.92945716
2.29998	113594385.90187925
2.30193	114411956.2640479
2.30388	116562073.74156947
2.30583	118211654.88348013
2.30778	117705199.633031
2.30972	114443191.7930716
2.31167	109703157.08786303
2.31361	107977343.51809718
2.31555	110708577.75837578
2.31749	113899573.6189005
2.31943	113776067.36211619
2.32137	110928874.68536183
2.32331	107754300.82807171
2.32524	104372518.68197006
2.32718	100356708.15925457
2.32911	99482265.17856419
2.33104	102782745.45281027
2.33297	106580711.9699116
2.3349	108992043.49421437
2.33683	109123042.0481777
2.33876	107675834.13483956
2.34068	107290708.97875394
2.34261	108431815.49569161
2.34453	109585566.1303799
2.34646	109695267.38715489
2.34838	108304025.3009997
2.3503	106179462.81376961
2.35223	104705639.68849391
2.35415	104927938.56110272
2.35607	106208451.30573301
2.35799	107610786.18965411
2.35991	108716837.22370504
2.36183	110192881.05164304
2.36375	109869278.28253007
2.36566	103921634.51682357
2.36758	98139449.49807352
2.3695	99204504.78717048
2.37142	106151055.64115472
2.37334	110286695.05272155
2.37526	108304498.5151457
2.37718	101401707.69650215
2.3791	96924887.52203982
2.38101	99227694.1735798
2.38293	105070117.12279129
2.38485	107858095.06315693
2.38677	108433934.02630058
2.3887	108047926.35420065
2.39062	104856886.80764459
2.39254	100974945.92369078
2.39446	100483689.33804332
2.39639	103389755.06431143
2.39831	105864127.2624878
2.40024	106382342.23661117
2.40216	106032471.729319
2.40409	103981313.8899951
2.40602	96894391.59261516
2.40795	85578761.24563336
2.40989	79849593.3512025
2.41182	83604825.459652
2.41376	91207202.19856656
2.4157	96454746.11982428
2.41764	99057788.54744144
2.41958	98184695.22838843
2.42152	92210949.16382009
2.42347	86262545.55666235
2.42542	83906703.87462476
2.42737	84201637.33766572
