#wavelength	surface flux
0.6450077295303345	1662272.7976442266
0.6472567915916443	1724649.7015584705
0.6494921445846558	1787541.916015573
0.6517150402069092	1852759.9585930833
0.6539263725280762	1918960.505113849
0.6561272740364075	1986116.010700556
0.6583186388015747	2054971.70250353
0.6605015397071838	2124148.1260413486
0.6626768708229065	2186348.3521935856
0.6648455858230591	2269573.017624084
0.6670085787773132	2343494.876117669
0.6691668033599854	2419506.528618951
0.6713210344314575	2384239.6865748684
0.6734722256660461	2577872.3315007756
0.6756211519241333	2659551.4397999784
0.6777685880661011	2654756.4149430357
0.6799154281616211	2813107.5538784633
0.6820623278617859	2907329.0171790873
0.6842101216316223	2998895.666401963
0.6863595843315125	3089461.725370561
0.688511312007904	3179363.667336206
0.6906660795211792	3271702.6788588185
0.6928245425224304	3364951.5405619936
0.6949873566627502	3462252.956072262
0.6971551775932312	3561467.664727496
0.6993286609649658	3663727.3308581333
0.7015084028244019	3769033.9793819073
0.7036949396133423	3878958.5250842427
0.7058889269828796	3986141.3785133515
0.7080909013748169	4097227.1847579526
0.710301399230957	4210553.680337399
0.712520956993103	4298763.858697234
0.7147500514984131	4436108.093192394
0.7169892191886902	4560234.322911576
0.7192389369010925	4692765.883970845
0.7214996814727783	4822064.038464299
0.723771870136261	4935004.3751773285
0.7260559797286987	5084139.710276298
0.7283523678779602	5211599.654519765
0.7306615710258484	5308749.904541839
0.7329838871955872	5489685.7503932
0.7353196740150452	5544776.8149043815
0.7376693487167358	5722933.74722776
0.7400332689285278	5826311.521529224
0.7424117922782898	5949447.816644827
0.7448052167892456	6077805.594758865
0.7472138404846191	6242621.228644659
0.7496379613876343	6412106.275305333
0.7520779371261597	6569496.83930231
0.7545340061187744	6749269.582155614
0.7570064663887024	6778630.949327201
0.7594954967498779	7022453.024426128
0.7620013952255249	7082067.674951775
0.7645244002342224	5680343.551951366
0.7670646905899048	1669517.9652551853
0.7696225643157959	2445409.4924851633
0.7721980810165405	5972731.078713489
0.7747915983200073	7929078.109954256
0.7774031162261963	8489811.103208475
0.7800329327583313	7208515.395912082
0.7826811671257019	9102111.988453835
0.7853479981422424	9381473.93994261
0.7880334854125977	9649877.799059534
0.7907378077507019	9907067.23482916
0.7934610247612	10075852.602965133
0.7962033748626709	10303274.603478365
0.7989648580551147	10710351.459527796
0.801745593547821	10966776.507168107
0.8045456409454346	11259567.138979178
0.8073651194572449	11568943.48589186
0.8102040886878967	11898803.46026132
0.8130625486373901	12228465.439808788
0.8159406185150146	12564274.193543203
0.8188382983207703	12888070.091969538
0.8217556476593018	13198976.012041884
0.8246926665306091	13531180.39652126
0.8276493549346924	13872431.868913721
0.8306257724761963	14205631.157394206
0.8336219191551208	14583404.492088467
0.8366377949714661	14873960.811126765
0.8396733403205872	15312021.983635252
0.8427285552024841	15648551.009494083
0.8458034992218018	15983940.507807508
0.8488980531692505	16389938.444516957
0.8520121574401855	16761385.300281236
0.8551458716392517	17118061.026663996
0.8582990765571594	17496699.974533252
0.8614717125892639	17859504.672019728
0.8646637797355652	18070831.09749174
0.8678751587867737	18574114.114118427
0.8711057901382446	18897729.89115828
0.8743556141853333	19257821.105259907
0.87762451171875	19973120.00543905
0.8809124231338501	20640255.913189434
0.8842192888259888	21149136.26739397
0.8875449895858765	21627526.239314355
0.8908893465995789	22166227.466736946
0.894252359867096	20979296.405118044
0.8976338505744934	23068072.633177254
0.9010337591171265	23671038.142858468
0.9044519662857056	24282419.449915953
0.9078882932662964	24714268.737020463
0.9113426208496094	25359921.74404163
0.914814829826355	25840662.76089069
0.9183048605918884	26608991.097725883
0.9218124747276306	27016451.730725452
0.925337553024292	27412789.899720065
0.9288799166679382	27481358.895537563
0.9324395060539246	28117760.307631165
0.9360161423683167	28442877.15812106
0.9396095871925354	29771759.994548406
0.943219780921936	29771530.82435792
0.9468464851379395	31078630.294402752
0.9504896402359009	30263214.028517745
0.9541489481925964	32676763.493923113
0.9578243494033813	33334939.551609557
0.9615156054496765	33496649.277081296
0.9652225375175476	34139882.18707191
0.9689450263977051	35319181.646564305
0.9726828336715698	35985655.40254398
0.9764357805252075	36724758.613623194
0.9802037477493286	37463166.43654577
0.983986496925354	38022528.49927625
0.9877838492393494	39023861.47275646
0.9915955662727356	39405681.9889798
0.9954215884208679	40511758.856186405
0.9992615580558777	40713007.70080011
1.0031154155731201	42001817.631605305
1.0069829225540161	42605962.08491418
1.0108637809753418	43409532.58539734
1.0147579908370972	44166794.885164335
1.018665075302124	44988560.50265466
1.022585153579712	46039369.08019347
1.0265177488327026	46376333.049483836
1.0304628610610962	47703246.36792803
1.0344202518463135	48544683.731173865
1.0383895635604858	49497025.60324151
1.0423706769943237	50318636.96857729
1.0463634729385376	51063542.22039273
1.0503677129745483	52058154.72748285
1.0543830394744873	52671446.66705242
1.058409333229065	53741010.92272168
1.0624464750289917	54722159.819782875
1.0664942264556885	55562213.3482796
1.0705522298812866	57081754.03730117
1.0746204853057861	57940237.91190165
1.0786986351013184	58627482.55298949
1.0827864408493042	59832151.87064914
1.086883783340454	60358956.19553102
1.0909905433654785	61250703.39014666
1.0951062440872192	61657431.87462021
1.0992310047149658	61140607.40758033
1.10336434841156	63158773.86795705
1.1075061559677124	61351192.47137093
1.1116561889648438	64917967.186020955
1.115814208984375	58675950.074577756
1.1199802160263062	63927198.66957087
1.124153733253479	67423329.89978659
1.1283347606658936	67227288.79386432
1.1325229406356812	67388278.59685116
1.1367181539535522	67929481.63408567
1.1409201622009277	69987608.00064987
1.145128846168518	70699366.65356088
1.1493438482284546	73067818.22701906
1.1535650491714478	74258007.80231899
1.1577922105789185	75243295.4423158
1.1620250940322876	69430750.03093189
1.1662636995315552	75603444.94962755
1.170507550239563	75761260.58757345
1.174756646156311	77625013.4534315
1.1790107488632202	77061953.41110934
1.1832695007324219	80472097.96075332
1.1875330209732056	78774898.60053718
1.191800832748413	80628965.06254543
1.1960728168487549	83184599.69350979
1.2003488540649414	83834782.11117862
1.2046287059783936	84751183.71172154
1.2089121341705322	86205279.54348853
1.2131990194320679	87659771.37305054
1.2174891233444214	87559411.11593539
1.2217823266983032	88448923.99718584
1.2260783910751343	90176978.2700803
1.230377197265625	91155004.33840315
1.2346785068511963	91975688.05028374
1.238982081413269	93087116.23301241
1.2432878017425537	93394754.3628171
1.2475954294204712	94862823.88448197
1.2519049644470215	95286152.28196707
1.256216049194336	96607693.85487063
1.2605286836624146	98180784.86891179
1.2648425102233887	98828656.31952098
1.2691574096679688	100666298.38571213
1.2734732627868652	100918285.40347283
1.2777899503707886	101087187.67049643
1.2821072340011597	101542593.81685789
1.2864248752593994	102412886.86326684
1.2907428741455078	103518425.94681911
1.2950609922409058	104475133.76290606
1.2993791103363037	106700713.73760808
1.303696870803833	104002805.24026975
1.3080145120620728	104639813.31828953
1.3123314380645752	107954207.00047605
1.3166478872299194	106681869.35628238
1.3209635019302368	109345731.18879975
1.3252781629562378	107914756.92914698
1.3295916318893433	107736951.9044669
1.3339040279388428	93236268.51599003
1.3382149934768677	88390834.57939988
1.3425244092941284	88033830.66364549
1.3468321561813354	91618294.19613026
1.3511382341384888	108773598.15548705
1.3554422855377197	98396822.25894512
1.3597444295883179	92890572.65162511
1.3640443086624146	93616437.99495721
1.3683418035507202	98773394.66303201
1.3726370334625244	101233946.39263663
1.3769296407699585	101419038.70682052
1.381219506263733	90799415.23264016
1.3855066299438477	58923074.68041156
1.3897908926010132	102674451.64202312
1.3940720558166504	102563418.98744437
1.3983501195907593	110875555.81619954
1.4026249647140503	102638999.13230592
1.4068963527679443	94624335.38283738
1.4111642837524414	81936085.15140976
1.4154287576675415	104112871.0016233
1.419689416885376	88601534.24003199
1.4239463806152344	90215500.04648818
1.4281994104385376	94044632.64113145
1.4324485063552856	102262861.03149505
1.436693549156189	100293538.84168085
1.440934419631958	114106119.4557589
1.4451709985733032	109061617.91681932
1.449403166770935	114094093.9564399
1.453631043434143	106104691.37092523
1.4578542709350586	115713359.27251661
1.4620729684829712	106332466.32492618
1.4662868976593018	100344758.52837908
1.4704961776733398	102263226.55510743
1.4747005701065063	105395211.50519489
1.4788999557495117	107122910.53989373
1.4830944538116455	111145315.22073352
1.4872838258743286	109810660.46776737
1.491468071937561	115753775.91355246
1.4956470727920532	118917165.76151428
1.4998208284378052	114407569.31347641
1.5039892196655273	118836117.63694967
1.5081522464752197	125969709.46638909
1.5123097896575928	125112766.31082481
1.5164618492126465	124598053.29994968
1.5206083059310913	122281581.67573443
1.5247491598129272	127219945.76393121
1.5288842916488647	114907290.10592747
1.5330137014389038	130950334.43680403
1.5371372699737549	128058718.48488013
1.541254997253418	121622977.74738298
1.545366883277893	132363074.61673427
1.5494728088378906	129968725.960385
1.5535727739334106	135471155.6019922
1.5576666593551636	132971091.56900907
1.561754584312439	135061880.93980697
1.5658363103866577	136078440.57612017
1.5699119567871094	139633541.66959915
1.5739814043045044	139215693.99724907
1.5780447721481323	143327147.37379935
1.582101821899414	140655366.96575144
1.5861525535583496	140469788.88621348
1.5901970863342285	143866899.23036158
1.5942351818084717	143350599.6826984
1.5982669591903687	143925860.1883508
1.6022924184799194	147754961.06885305
1.606311559677124	146434488.37801147
1.6103241443634033	146459999.66400477
1.6143304109573364	148658960.9718694
1.6183301210403442	149659981.69143158
1.6223233938217163	149911520.33501947
1.6263102293014526	149701615.87873933
1.6302905082702637	149737780.87748656
1.634264349937439	151105841.40324515
1.638231635093689	150664901.15474206
1.6421923637390137	151474795.99862525
1.646146535873413	153430720.41988018
1.6500942707061768	148775050.14721283
1.6540353298187256	154175144.1069456
1.6579699516296387	150277444.95496252
1.661897897720337	153613996.64686766
1.6658192873001099	154936061.54759923
1.6697341203689575	156068153.66230068
1.6736423969268799	156141352.71163413
1.677544116973877	154168878.92726654
1.6814392805099487	158333961.26194173
1.6853278875350952	157525458.26163915
1.6892099380493164	156236807.86509678
1.6930854320526123	155834472.7124077
1.696954369544983	149574820.10523537
1.7008168697357178	154066105.30873677
1.7046726942062378	158239810.64910614
1.708522081375122	157474572.34527394
1.712364912033081	153403496.56023052
1.7162011861801147	155913158.1422097
1.7200311422348022	153091870.82513776
1.723854422569275	152042577.03364176
1.7276713848114014	152804467.1010747
1.731481909751892	148070009.54717162
1.7352858781814575	152547265.6525819
1.7390835285186768	150811161.85681167
1.7428747415542603	146888883.01577926
1.7466596364974976	150218118.39841285
1.7504380941390991	152812948.82791376
1.7542102336883545	128685144.25866121
1.7579760551452637	121933319.63620475
1.7617355585098267	133437971.47933005
1.7654887437820435	135092653.2236195
1.7692357301712036	142749751.6064866
1.7729763984680176	143588600.65109578
1.776710867881775	109143021.6073481
1.7804391384124756	105799638.90510212
1.7841613292694092	109278972.70288475
1.7878772020339966	114087590.54078153
1.7915871143341064	123123337.70271754
1.7952908277511597	124887214.34585229
1.7989884614944458	126675570.48225343
1.8026801347732544	120930885.95645514
1.806365728378296	128673985.95979038
1.8100452423095703	124347704.97095327
1.8137187957763672	129985705.24278612
1.817386507987976	114224847.79274048
1.8210482597351074	113406148.17706974
1.8247040510177612	130279043.3503709
1.828354001045227	124299421.96833718
1.8319982290267944	115607821.99633633
1.8356364965438843	88418527.47647052
1.8392690420150757	122908852.5362651
1.8428958654403687	135392145.17650282
1.8465168476104736	126701139.36263417
1.8501322269439697	131673532.86890194
1.8537418842315674	135045626.9223112
1.8573459386825562	124253438.21287236
1.860944390296936	107413778.38335527
1.864537239074707	84637510.39836134
1.8681244850158691	81309674.46068798
1.871706247329712	107877845.9346564
1.8752825260162354	115294272.31480366
1.8788533210754395	124199151.21878654
1.8824186325073242	127308369.89315312
1.8859784603118896	123392590.20942383
1.8895330429077148	134715663.55110037
1.8930821418762207	117481284.3258022
1.8966259956359863	116685385.3682117
1.9001644849777222	122595386.54998535
1.9036977291107178	129906780.87249951
1.9072256088256836	135673951.7088652
1.9107483625411987	143766158.21442822
1.9142658710479736	143254695.4149499
1.9177782535552979	142824050.97840446
1.9212853908538818	142376288.5121715
1.9247875213623047	134116640.19255224
1.9282845258712769	137676189.61757123
1.9317764043807983	139371144.33650568
1.9352631568908691	115515198.49587066
1.9387450218200684	118075348.02574135
1.942221760749817	128898789.69684665
1.9456936120986938	125646603.51946037
1.9491604566574097	140719572.07069266
1.952622413635254	137638125.47447672
1.956079363822937	120027757.10963283
1.959531545639038	122162863.17443646
1.962978720664978	124822235.70991881
1.966421127319336	118268961.10418749
1.9698586463928223	123012625.48369482
1.9732913970947266	130875717.28900388
1.9767193794250488	125464536.9337775
1.9801424741744995	123516492.56501688
1.9835609197616577	116383043.46396303
1.9869745969772339	125421830.93274096
1.990383505821228	138606082.46821338
1.9937876462936401	141307981.54687062
1.9971871376037598	142162458.7027822
2.000581979751587	127437314.84081784
2.003972291946411	131565635.89076024
2.007357597351074	130743639.71732228
2.0107386112213135	126627362.13989696
2.0141148567199707	136225458.3612901
2.017486572265625	131435684.85406867
2.0208535194396973	129262161.68297611
2.0242159366607666	134896780.25149775
2.027573823928833	127909627.8440806
2.0309269428253174	138583714.16718587
2.034275770187378	130882968.91530223
2.0376198291778564	113767828.75975053
2.040959596633911	127410065.36704007
2.044294595718384	139411410.77054587
2.0476250648498535	130321093.08373697
2.0509510040283203	131325729.92489827
2.054272413253784	139468497.39085242
2.057589530944824	145726522.91568062
2.0609018802642822	137773288.593746
2.0642096996307373	132776895.96443887
2.0675129890441895	139099590.75953817
2.0708119869232178	135510624.55929503
2.074106216430664	139381614.6319062
2.0773961544036865	140321079.82365912
2.080681324005127	139439590.37893304
2.0839622020721436	139497865.54532886
2.087238311767578	139602771.21399626
2.090510129928589	138088547.4004588
2.0937774181365967	135335841.92155734
2.0970399379730225	136265682.87638238
2.1002981662750244	141579389.2909083
2.1035518646240234	141886252.05261645
2.1068007946014404	141470485.26501662
2.1100454330444336	141429712.60003227
2.1132853031158447	139384181.07258174
2.116520881652832	136443286.702636
2.1197516918182373	135346576.5462667
2.1229779720306396	139630881.3533471
2.12619948387146	142612514.30796084
2.1294167041778564	139695253.52749196
2.132629156112671	141446202.38643935
2.1358368396759033	142607820.66910523
2.139039993286133	142790254.90200743
2.1422386169433594	144693293.17941707
2.145432472229004	143470573.30702254
2.1486217975616455	142524374.84682885
2.151806354522705	139132867.49912503
2.1549863815307617	138835159.14045593
2.1581614017486572	141202652.36590415
2.16133189201355	139178562.16375998
2.1644976139068604	139247950.69701406
2.167658567428589	140706957.7598624
2.1708147525787354	143068522.69708738
2.173966407775879	142703186.92899367
2.1771130561828613	141764644.84590572
2.1802549362182617	143024675.12527403
2.183391809463501	144431276.5690165
2.1865241527557373	144221881.96893862
2.1896514892578125	143075000.20057493
2.1927738189697266	141739132.79477623
2.1958916187286377	139638598.36333612
2.1990041732788086	140801086.06452417
2.2021119594573975	141268021.19810387
2.2052149772644043	140264625.7832744
2.208312749862671	140334322.2016397
2.2114057540893555	141438347.18129107
2.214493751525879	140049374.2054653
2.217576742172241	138930559.4521391
2.2206547260284424	139972549.47658497
2.2237277030944824	139573312.90289354
2.2267956733703613	137032106.52353466
2.2298583984375	137117504.1392647
2.2329163551330566	139654272.90687636
2.235969066619873	140062391.01664686
2.2390167713165283	138073551.89311913
2.2420592308044434	136249364.55450004
2.2450966835021973	134982492.67366734
2.248128890991211	135849112.2011469
2.2511560916900635	137625005.83888802
2.254178285598755	138431893.2937146
2.257194995880127	139208847.84255236
2.260206699371338	139769967.59633583
2.2632133960723877	139058537.70750675
2.266214609146118	139015578.9616569
2.2692108154296875	139146463.71821484
2.2722020149230957	137492780.66485304
2.2751877307891846	135427241.92091227
2.278168201446533	135875003.07247147
2.2811436653137207	134628777.42200702
2.284113883972168	127877432.24510878
2.287078857421875	130280815.73556612
2.290038824081421	132156071.85665661
2.2929933071136475	132213608.39540529
2.295942783355713	134308857.77500167
2.298887014389038	133495179.27080904
2.301826238632202	133643143.9848881
2.304760217666626	136099907.97410005
2.3076889514923096	135680370.37471113
2.310612440109253	129616322.76538067
2.3135311603546143	125749708.90173987
2.3164443969726562	129371612.29821268
2.319352865219116	129808596.1351856
2.322256088256836	122192983.99448405
2.3251543045043945	116054612.73533109
2.328047275543213	113656412.24110943
2.330935478210449	119643890.83705108
2.3338186740875244	125905444.44866432
2.3366971015930176	126243964.6988102
2.3395702838897705	124132460.09185179
2.3424389362335205	125059064.12500921
2.3453025817871094	125149498.76652767
2.348161458969116	122957268.39139883
2.351015567779541	116812826.93282028
2.353865146636963	112962818.49955678
2.3567099571228027	118243462.78786781
2.3595502376556396	124501752.56338088
2.3623859882354736	125920931.24530515
2.3652172088623047	118327060.08582124
2.368043899536133	108048711.38212973
2.370866537094116	117413146.11604843
2.3736846446990967	126221182.33147438
2.3764986991882324	118745462.01313421
2.3793084621429443	110526151.37752403
2.3821144104003906	116956152.58187267
2.384916305541992	121363559.82206605
2.387714147567749	120156162.41588348
2.3905084133148193	115053974.56964679
2.393299102783203	111717264.71575695
2.3960859775543213	117867029.43216379
2.398869514465332	119703551.97745907
2.4016497135162354	118083390.74428374
2.4044265747070312	116095464.34674889
2.407200336456299	103268670.82728241
2.409970998764038	89970267.15422226
2.4127390384674072	95881737.26862608
2.415503978729248	107338410.19213223
2.418266534805298	113550647.50122295
2.4210267066955566	108804101.03053653
2.4237842559814453	99108337.51932406
2.426539897918701	96764484.01218845
2.429293394088745	96571872.50168955
2.4320452213287354	100099219.20828997
2.4347951412200928	106789094.08146197
2.4375438690185547	107258613.4584406
2.440291166305542	96185035.50173311
2.443037271499634	91530299.6712227
2.445782423019409	97234433.24103089
2.4485268592834473	103891418.58577442
2.451270818710327	102622356.44512531
2.454014539718628	94543751.51419465
2.4567582607269287	91972083.37822029
2.4595019817352295	90483516.7098207
2.4622461795806885	96767285.79562958
2.4649908542633057	105250151.10731247
2.4677364826202393	100377426.00787789
2.4704833030700684	92390956.73452403
2.473231554031372	94836759.07951443
