#wavelength	surface flux
0.676892	643133.688565396
0.678297	635449.7439004645
0.679702	674565.7703538712
0.681109	689605.6407594059
0.682517	708045.5784216494
0.683926	724948.7039001674
0.685337	741874.591139529
0.686749	757753.6595557217
0.688164	773876.9514859744
0.689581	790077.9526535883
0.691	806937.6587084816
0.692422	823541.4580864947
0.693847	841119.7643138338
0.695274	858839.8851451392
0.696705	876844.9978144397
0.698139	895097.8980321935
0.699576	913798.0392638859
0.701017	932936.3596814413
0.702461	952569.2343979022
0.70391	972548.7450122974
0.705362	992577.3719736445
0.706819	1012865.8958655415
0.70828	1033651.8360793414
0.709745	1054554.5146550843
0.711216	1072501.2478099703
0.71269	1084145.3773351163
0.71417	1117291.5201977289
0.715655	1133597.783758162
0.717145	1161399.5872382866
0.71864	1188006.3367459213
0.72014	1211582.7416288943
0.721647	1236022.0711124984
0.723158	1251854.2493958655
0.724676	1283424.3821407475
0.726199	1310681.8991388644
0.727728	1336412.5188264714
0.729264	1344008.38161131
0.730805	1370790.023431688
0.732353	1415851.4995774878
0.733907	1437826.5394535037
0.735468	1453145.5107390466
0.737035	1496212.3280670396
0.738609	1523764.9572331319
0.74019	1551131.7019323837
0.741777	1579298.8815208913
0.743372	1611231.181390865
0.744973	1636817.1615993557
0.746582	1668414.4414074884
0.748197	1699859.374835876
0.74982	1731223.0105383124
0.751451	1760719.682139267
0.753088	1793018.7244683853
0.754734	1821156.3320713006
0.756386	1787567.8355395603
0.758047	1872981.938643007
0.759715	1904389.5721057856
0.76139	1920972.6743580801
0.763074	1883847.9440096843
0.764765	1429416.0656001903
0.766464	360598.4039555983
0.768172	788729.1009148656
0.769887	558772.6367201998
0.77161	1361604.5499935423
0.773341	1950817.4590085426
0.775081	2210722.6720776525
0.776829	2316391.6468217503
0.778585	2332342.00985222
0.780349	1992112.0779436745
0.782121	2475201.8983649383
0.783902	2559490.5193638187
0.785691	2614311.158579897
0.787489	2670201.212016534
0.789295	2725743.935364213
0.79111	2780714.5338034052
0.792933	2831224.0328319366
0.794764	2781820.2547253603
0.796604	2936378.036017249
0.798453	3008123.7410779195
0.80031	3067389.8215942667
0.802176	3125421.395436725
0.804051	3187486.446157904
0.805934	3247647.8946029022
0.807826	3309576.237656804
0.809727	3373094.321487326
0.811636	3435927.6619696594
0.813554	3499554.149102866
0.81548	3568955.7182644303
0.817416	3641202.2105974057
0.81936	3709036.4401260833
0.821313	3767904.726098429
0.823274	3848095.1292512706
0.825244	3905699.857665814
0.827223	3982030.919037089
0.829211	4063709.399918459
0.831208	4136150.4508714015
0.833213	4222263.717933918
0.835227	4284909.211951957
0.837249	4345857.843784705
0.83928	4454126.712659315
0.841321	4526662.039151777
0.843369	4603964.232108601
0.845427	4689087.802142544
0.847493	4786059.985181071
0.849567	4868591.850573692
0.851651	4960320.83585612
0.853742	5047835.01560622
0.855843	5140667.2847477505
0.857952	5233039.371204807
0.86007	5320517.953914562
0.862196	5412359.582147713
0.864331	5488129.295332523
0.866474	5607143.57322548
0.868626	5697130.17896517
0.870786	5791600.744185631
0.872955	5862297.3938151
0.875132	5971291.898308033
0.877317	6104261.077553216
0.879511	6228781.120994896
0.881713	6336643.380249399
0.883923	6445988.238698019
0.886142	6553236.539202023
0.888369	6667173.5814498495
0.890604	6777424.208314835
0.892847	6823921.736408012
0.895099	6557795.51151589
0.897358	7113430.555936238
0.899626	7210654.991534122
0.901901	7337371.920327616
0.904185	7472373.5103442315
0.906476	7604020.6230744
0.908776	7566720.130468347
0.911083	7830634.803597541
0.913398	7955068.173571761
0.915721	8116129.317153908
0.918051	8234638.7329450315
0.92039	8380085.749317935
0.922736	8412311.604680156
0.925089	8547807.36782305
0.927451	8474968.747170389
0.929819	8795866.331776468
0.932195	8797787.824977096
0.934579	8114814.902440366
0.93697	9192414.545442848
0.939369	9392272.952996239
0.941774	9468576.960198013
0.944187	9055409.396585552
0.946607	9772966.581745613
0.949035	9577868.322253948
0.951469	9640323.346432794
0.953911	10372981.556013344
0.956359	10526948.831892539
0.958814	10612965.458928986
0.961277	10567445.305989003
0.963746	10595101.078578617
0.966222	10749457.174831511
0.968705	11256908.75458239
0.971194	11429731.548929943
0.97369	11537078.23636949
0.976193	11872398.42067914
0.978702	12035477.054651817
0.981217	12199972.857842939
0.983739	12395434.596933266
0.986268	12609229.959385091
0.988802	12811027.866577879
0.991343	12895714.447656425
0.99389	13160213.84463705
0.996444	13298492.187688937
0.999003	13464548.014950208
1.00157	13728641.354796274
1.00414	13888924.826845272
1.00672	14138075.041895183
1.0093	14303993.173271118
1.01189	14551254.6985411
1.01448	14754866.805289056
1.01708	14937172.725162897
1.01969	15142998.319997497
1.0223	15349319.402939767
1.02492	15567697.146111976
1.02754	15775339.507681198
1.03017	15990822.491288712
1.0328	16191593.680055978
1.03544	16412956.938189294
1.03808	16628525.644906966
1.04073	16839982.76236152
1.04339	17064532.894144952
1.04604	17282113.91114193
1.04871	17506262.061462924
1.05138	17726275.907293778
1.05405	17943557.168383595
1.05673	18171953.536610506
1.05941	18398609.813891336
1.0621	18625662.996662978
1.06479	18861004.054427724
1.06749	19047255.6153376
1.07019	19291596.63411719
1.07289	19545354.904764064
1.0756	19784634.131775226
1.07832	20026886.996743955
1.08104	20265345.248130087
1.08376	20516101.92893786
1.08649	20706350.881490063
1.08922	20952672.109288167
1.09195	21053441.017633367
1.09469	21351704.155220274
1.09743	20937388.57423118
1.10018	21640032.58683221
1.10293	22099577.484087516
1.10568	21518868.521683313
1.10844	21874865.60097931
1.1112	22833436.14144726
1.11396	21061770.386781372
1.11673	21492963.654651925
1.1195	22230264.36711595
1.12228	23125099.514999125
1.12505	23873736.536431003
1.12783	23867671.94603929
1.13062	24071106.33681877
1.13341	22815586.030678634
1.1362	23651919.485909823
1.13899	25153937.33710178
1.14178	25411066.21460405
1.14458	24900475.04809206
1.14738	26086549.828746572
1.15019	26385169.323838264
1.153	26769344.979239754
1.1558	26726531.33307803
1.15862	26883215.61394693
1.16143	23851036.440861076
1.16425	26129178.803948388
1.16707	27696890.138065543
1.16989	27696000.305849202
1.17271	28516477.824321486
1.17554	28194776.53734793
1.17837	28178642.68853007
1.1812	29333375.59551996
1.18403	29669100.261176135
1.18686	28570182.045790177
1.1897	29878299.59812356
1.19253	30371653.648564402
1.19537	30787271.81682389
1.19822	30910304.634293754
1.20106	31523164.611854438
1.2039	31818047.625882365
1.20675	32155561.16205346
1.2096	32159963.366737794
1.21245	32716806.31858253
1.2153	32960095.00311752
1.21815	33271873.49960701
1.221	33618961.55670777
1.22385	33765853.46434986
1.22671	34301042.14470056
1.22957	34502876.53073102
1.23242	34855277.60835338
1.23528	35161571.782654375
1.23814	35319797.73824887
1.241	35813954.67741014
1.24387	36136007.74288292
1.24673	36353906.12194229
1.24959	36684338.8046061
1.25245	37013881.77221722
1.25532	37320633.177804895
1.25818	37636565.05611272
1.26105	37920036.59061735
1.26392	38153729.12887541
1.26678	38453445.37730874
1.26965	38829093.532059915
1.27252	39123382.48303434
1.27538	39386534.66465408
1.27825	39438396.23270987
1.28112	39672372.089974456
1.28399	40187220.98414996
1.28686	40595224.23534753
1.28973	40929039.14244533
1.2926	41134913.288598515
1.29546	40532747.14218263
1.29833	40965203.47212591
1.3012	41940120.294885
1.30407	39544285.36778525
1.30694	39645197.389386415
1.30981	42628451.273804754
1.31267	42552270.77933539
1.31554	41956878.7030578
1.31841	42776217.220647246
1.32128	43379996.60678793
1.32414	43246859.06820545
1.32701	44400758.23276705
1.32987	43492962.388676524
1.33274	37262156.826288044
1.3356	40322073.76489439
1.33847	35158614.99580483
1.34133	34595692.75674121
1.34419	38383877.4073622
1.34705	36176997.91913018
1.34991	41280119.793953314
1.35277	45886574.80704788
1.35563	40644279.14405881
1.35849	39423315.981212415
1.36135	35901895.9497461
1.3642	37839734.17701141
1.36706	40279057.2829882
1.36991	43204399.68399965
1.37277	40877898.437682025
1.37562	42454540.91043988
1.37847	37823718.32913832
1.38132	36649833.94336773
1.38417	24030332.961742394
1.38701	24384743.35439942
1.38986	43774372.05709566
1.39271	45051952.17686335
1.39555	45236718.573857754
1.39839	47771423.392022036
1.40123	46545875.29424556
1.40407	42124720.25899785
1.40691	39896259.057097994
1.40974	28657766.554416806
1.41258	42254978.97403379
1.41541	44217391.76024511
1.41824	38937987.2655034
1.42107	34089851.95928204
1.4239	35693222.27616538
1.42673	37222515.97487788
1.42955	41767067.54160885
1.43237	44013401.76712096
1.43519	43010648.931370124
1.43801	47802785.775448434
1.44083	50778841.40202395
1.44365	49791246.869312964
1.44646	49632930.034016535
1.44927	51536603.75165789
1.45208	49665798.72740274
1.45489	47780745.03469
1.45769	52766060.303920954
1.4605	52056960.94662922
1.4633	42058688.04506341
1.4661	44936239.57683597
1.4689	42878179.93706572
1.47169	48659392.67171202
1.47449	46530629.29057404
1.47728	49310507.22016534
1.48007	48289578.38774752
1.48286	50310455.64380271
1.48564	47283245.19336984
1.48842	51313173.14081278
1.4912	53748468.726923436
1.49398	56497067.78480697
1.49676	54829838.57081394
1.49953	52918862.990347855
1.5023	51778272.21020263
1.50507	57469766.22738697
1.50784	59169672.287777044
1.51061	59655946.09032232
1.51337	56968814.78588485
1.51613	58078183.64814277
1.51888	56855615.6639961
1.52164	56351079.229373634
1.52439	59405699.79396781
1.52714	54735823.74849132
1.52989	55450351.43246059
1.53263	62147674.90449463
1.53538	61943941.60846734
1.53812	59541013.763449214
1.54086	58137386.15142383
1.54359	61700153.7834819
1.54632	63281748.04715627
1.54905	63151672.05030602
1.55178	64093446.88945163
1.5545	64597558.72245916
1.55723	63273844.84745193
1.55995	62651082.16901975
1.56266	65065928.66924628
1.56538	65616596.958742745
1.56809	66095527.273032896
1.5708	66388936.392831266
1.57351	66274181.313182674
1.57621	67252967.37827863
1.57891	67496599.50196481
1.58161	67373885.72935034
1.5843	67424699.2064047
1.587	67617838.91964178
1.58969	68356843.97342394
1.59238	68514041.10251005
1.59506	68615337.63840622
1.59774	68383566.26055841
1.60042	68815187.28645308
1.6031	69674778.14389557
1.60577	69673364.06093727
1.60844	69598883.53429435
1.61111	70265885.94966154
1.61378	70560839.17862223
1.61644	70686322.05939735
1.6191	70976332.39155062
1.62176	71182459.63552074
1.62441	71405184.4832044
1.62707	71390645.76678427
1.62971	71340000.74420485
1.63236	71718829.44858673
1.635	71635953.31712608
1.63764	71697531.20580627
1.64028	72149903.59878771
1.64292	72442833.46037473
1.64555	72836024.7817996
1.64818	72180977.23044948
1.65081	70917288.70988646
1.65343	72833042.33051772
1.65605	73062591.80730759
1.65867	70505819.6605134
1.66128	71536601.19734919
1.6639	73571785.74989562
1.66651	73646487.42717391
1.66911	74131509.06152724
1.67172	74375880.97265466
1.67432	74274415.32147866
1.67692	73662077.1351928
1.67951	74520598.31791972
1.68211	74977566.2446709
1.6847	75112549.17988212
1.68728	74554228.05451551
1.68987	74139539.90579224
1.69245	75112879.44847827
1.69503	73012567.74488036
1.6976	70997950.68071444
1.70018	74644520.01874259
1.70275	75833230.25584464
1.70531	76187751.51381268
1.70788	76100399.71519615
1.71044	75225117.13674152
1.713	75893233.62101863
1.71556	76660824.40293312
1.71811	76293809.57067296
1.72066	75804128.11707859
1.72321	75529518.67480421
1.72575	76404756.32204634
1.7283	76193598.78022918
1.73084	74154330.67565107
1.73337	75420135.66484869
1.73591	77225252.98716252
1.73844	76619555.70303124
1.74097	75260919.44592197
1.74349	75125728.41638026
1.74602	76377028.77920805
1.74854	77456265.62092492
1.75105	76040194.80152775
1.75357	65734187.2626445
1.75608	62291190.5830796
1.75859	60683472.99011486
1.7611	65429309.399123706
1.7636	72411966.43232097
1.7661	70752796.52479048
1.7686	73153175.6121534
1.7711	77423379.92568284
1.77359	73029380.98082003
1.77608	58035276.05402555
1.77857	51843885.59164196
1.78105	50521499.899102904
1.78354	54314927.654902175
1.78602	53498634.73825466
1.78849	59076934.60219826
1.79097	63318492.666312754
1.79344	62438718.43980243
1.79591	65373714.025915034
1.79837	67801354.03132997
1.80084	61661101.47455548
1.8033	65179784.018029034
1.80576	69174365.49527277
1.80821	66854209.49212384
1.81067	63137184.402413525
1.81312	65425398.687085204
1.81557	68040267.12026975
1.81801	58014603.99677002
1.82046	59124971.09249921
1.8229	62660843.746583246
1.82533	71030452.6211665
1.82777	68322636.06049989
1.8302	65869883.91957757
1.83263	57376362.16456886
1.83506	44316107.00525211
1.83749	55189602.82946557
1.83991	69391904.75997138
1.84233	74975202.06698199
1.84475	73519749.08180542
1.84716	69500948.21793446
1.84957	71253883.28802228
1.85198	76378648.41061106
1.85439	74905085.81767155
1.8568	71228964.1582018
1.8592	67269455.68481082
1.8616	51527584.63020192
1.864	39094314.00542713
1.86639	36594053.4852381
1.86878	41201650.14623903
1.87118	55348247.57744914
1.87356	60764892.238119036
1.87595	62392281.10468958
1.87833	65791649.48988982
1.88071	69334481.47339137
1.88309	65019279.88189303
1.88547	62997826.93906633
1.88784	69424029.31047064
1.89021	74299298.7309908
1.89258	66586851.06397856
1.89494	62156439.36146341
1.89731	64409576.57877084
1.89967	66919930.88249832
1.90203	71383419.62152125
1.90439	72544221.07130916
1.90674	75516852.75100265
1.90909	79439042.41521032
1.91144	80445643.04066193
1.91379	80252531.40420498
1.91613	80187498.32633726
1.91848	80147941.66559252
1.92082	79393102.39298333
1.92315	76407233.2155896
1.92549	72640409.90645233
1.92782	76345046.18877167
1.93015	79818887.01599415
1.93248	74365526.3195693
1.93481	62794771.6598998
1.93713	60515855.70304062
1.93945	67691963.94784665
1.94177	71499703.73246114
1.94409	67743849.853153
1.94641	70250036.46351568
1.94872	77955233.56812666
1.95103	79213835.40018995
1.95334	75250542.14958316
1.95564	67502605.12097211
1.95795	65694126.43693257
1.96025	67381380.4908066
1.96255	69216348.71246724
1.96484	67837067.95972405
1.96714	66235549.19905133
1.96943	69616817.61322518
1.97172	75034112.75820325
1.97401	75110173.22717854
1.97629	72231392.93156679
1.97858	71383146.05050865
1.98086	68434805.10517417
1.98314	65817024.398409866
1.98541	67526632.47359405
1.98769	73808527.93843596
1.98996	79610140.90754336
1.99223	80138007.83437546
1.9945	80903793.91613236
1.99677	81057787.18668446
1.99903	76287806.21372543
2.00129	72198881.6482354
2.00355	76071544.35299037
2.00581	78738468.90285441
2.00806	76542023.77545589
2.01031	73693805.16098619
2.01256	74547246.62969823
2.01481	77453578.15310854
2.01706	77601475.83699268
2.0193	76076460.70162039
2.02154	76636466.65910222
2.02378	77787636.80945781
2.02602	75812292.58725375
2.02825	75341187.2374237
2.03049	79657192.60282177
2.03272	80815086.95298289
2.03494	74755424.01160163
2.03717	67646589.52149417
2.03939	68822042.05172338
2.04162	77044358.84698214
2.04384	81752920.5495818
2.04605	79700050.11091709
2.04827	76373598.33579688
2.05048	76949360.38991776
2.05269	79226384.87892793
2.0549	82030036.97501315
2.05711	83832767.51263246
2.05931	82010451.35622317
2.06151	76738239.77211472
2.06371	75823151.02673842
2.06591	80344716.12258264
2.06811	82683388.07204644
2.0703	81508896.10574661
2.07249	81307359.86393964
2.07468	82326674.64941937
2.07686	82867366.25493695
2.07905	82998634.5679975
2.08123	83108690.98706518
2.08341	82989756.26841407
2.08559	82981826.76155326
2.08776	83253016.97655182
2.08994	82884578.89757207
2.09211	81879184.09355271
2.09428	81047713.74496303
2.09645	81695256.71825546
2.09861	83433526.10014242
2.10077	84413231.84114717
2.10293	84538389.21538357
2.10509	84326067.79142132
2.10725	83999842.8295754
2.1094	83780013.85737324
2.11155	83564018.88750675
2.1137	82656775.00454177
2.11585	81847569.9545366
2.11799	81797783.84693459
2.12013	82290511.02240756
2.12227	83406910.37890725
2.12441	84267964.78639576
2.12655	84339672.5151753
2.12868	84007979.50215495
2.13081	84031640.83541436
2.13294	84374645.0060873
2.13507	84501646.02038598
2.13719	84460873.11043459
2.13931	84526421.80802661
2.14143	84682326.66874848
2.14355	84633461.28718008
2.14567	84440268.09529614
2.14778	84303974.05206725
2.14989	83539405.06696315
2.152	81811989.07775505
2.1541	81362693.30135657
2.15621	82885680.48352529
2.15831	83862150.19675031
2.16041	83607350.73895714
2.16251	83216807.1227184
2.1646	83200297.98746742
2.1667	83369975.94527385
2.16879	83779261.52419718
2.17087	84153260.22460987
2.17296	84148084.16292933
2.17504	84003974.43039846
2.17713	83879785.58409142
2.1792	83892280.16264202
2.18128	84056146.86266212
2.18336	84189574.61904152
2.18543	84225506.60445583
2.1875	84165475.29176466
2.18957	84094178.54024883
2.19163	83889030.39276066
2.1937	83283813.67883448
2.19576	82722892.59503004
2.19782	82820113.60699958
2.19987	83294910.77403475
2.20193	83400056.83445345
2.20398	83187723.51189552
2.20603	82968955.27667153
2.20808	83091549.68985017
2.21012	83308878.49727383
2.21217	82784274.59629287
2.21421	81731299.12296543
2.21625	81340244.58650257
2.21828	81976496.6499951
2.22032	82864097.91669452
2.22235	83152297.00375584
2.22438	82766698.3743621
2.22641	82186756.11872618
2.22843	81929516.95727302
2.23046	82283758.41598171
2.23248	82892488.47515348
2.2345	83131035.02420671
2.23651	82979193.61109027
2.23853	82555406.07622695
2.24054	82053864.9411497
2.24255	81221421.01342745
2.24456	80574324.12039806
2.24657	80688976.6595274
2.24857	81417022.95550637
2.25057	82080974.79462437
2.25257	82310676.42331952
2.25457	82430695.2280126
2.25656	82620670.54641461
2.25856	82810412.05886306
2.26055	82822302.83729841
2.26254	82761940.65599866
2.26453	82712584.26460755
2.26651	82666262.02838685
2.2685	82582076.76813413
2.27048	82383367.98950495
2.27246	82030349.8507808
2.27443	81691719.65030286
2.27641	81621292.84366176
2.27838	81806463.08501975
2.28036	80821008.64310285
2.28233	77014453.63172247
2.28429	74319814.02093033
2.28626	75988950.93822919
2.28823	79534027.78834878
2.29019	80639169.85163872
2.29215	80710411.28692187
2.29411	81069877.02332509
2.29607	81474176.20673877
2.29802	81396054.39994857
2.29998	81117152.85990342
2.30193	81180327.5840542
2.30388	81484741.59541297
2.30583	81629039.31756727
2.30778	81110562.85937032
2.30972	79529128.16592275
2.31167	77682252.34288651
2.31361	77081633.79641493
2.31555	78031962.44546987
2.31749	79182263.2059987
2.31943	79234417.00968394
2.32137	77761922.79732884
2.32331	75749852.06383057
2.32524	73433403.58067201
2.32718	71716653.11078867
2.32911	72524760.63757874
2.33104	75664406.34417254
2.33297	78161688.1230064
2.3349	79163751.39757395
2.33683	78769178.48184392
2.33876	77752199.43502806
2.34068	77242417.4368795
2.34261	77432968.58216473
2.34453	77724280.7108641
2.34646	77565981.15656692
2.34838	76489884.13707837
2.3503	74260099.9308357
2.35223	71228715.1438828
2.35415	69696701.14119218
2.35607	71697865.4288172
2.35799	75861176.98705357
2.35991	78480872.4807294
2.36183	79129038.47483532
2.36375	77189118.19932728
2.36566	71419835.96532245
2.36758	67125193.8124372
2.3695	68924476.85312699
2.37142	74866270.05494496
2.37334	77829081.07264356
2.37526	76126473.91448583
2.37718	70783583.38666016
2.3791	67947763.91586211
2.38101	70558445.936341
2.38293	75200361.89274909
2.38485	76276845.1640893
2.38677	75049253.1433149
2.3887	73091461.94282585
2.39062	70031788.33597736
2.39254	68184735.43537483
2.39446	69936593.64900331
2.39639	73588701.2602999
2.39831	75589215.813018
2.40024	75859819.12004545
2.40216	75883005.17212899
2.40409	74809206.093218
2.40602	69538367.4022906
2.40795	60622318.71572021
2.40989	55662436.514285006
2.41182	57826539.920994475
2.41376	63067782.81376323
2.4157	67304611.1762841
2.41764	70711953.60889463
2.41958	71445845.79331474
2.42152	67497034.0192315
2.42347	63173407.53767372
2.42542	61521724.21352099
2.42737	61643851.16603909
2.42932	61690291.505683675
2.43128	63317137.30503027
2.43324	66588455.96723645
2.4352	70141755.33837423
2.43717	71021940.33413064
2.43913	65971669.83568142
2.44111	60291174.13296322
