#wavelength	surface flux
0.676892	466325.0311223064
0.678297	476826.079555384
0.679702	490852.59416379005
0.681109	503450.0564851017
0.682517	516337.10763019865
0.683926	529446.1868701706
0.685337	542809.0914024645
0.686749	556375.3548352814
0.688164	570287.5938660197
0.689581	584441.6543557176
0.691	598919.0158973814
0.692422	613659.5757580979
0.693847	628822.6052253742
0.695274	644275.2922452264
0.696705	660025.4928354458
0.698139	676046.9904160175
0.699576	692599.2842915171
0.701017	709373.9534683768
0.702461	726667.6598235264
0.70391	744262.0906281731
0.705362	761979.3034710252
0.706819	780251.1461891212
0.70828	798997.5945721789
0.709745	818255.3799557824
0.711216	837652.705600603
0.71269	857026.9893832419
0.71417	877864.599097021
0.715655	898529.4409838847
0.717145	919702.6725436974
0.71864	941367.8466057848
0.72014	963258.6687757511
0.721647	985801.9539560871
0.723158	1008435.7770270627
0.724676	1032164.8648231198
0.726199	1056162.0371155797
0.727728	1080521.054555891
0.729264	1104638.518219852
0.730805	1130310.6181687019
0.732353	1156983.1413594093
0.733907	1178145.1097181367
0.735468	1201556.214122997
0.737035	1231749.572227862
0.738609	1254561.2692546907
0.74019	1281464.7799517284
0.741777	1307222.0263516076
0.743372	1339273.844813433
0.744973	1364002.2622799156
0.746582	1396807.4101914223
0.748197	1431010.1376458649
0.74982	1466877.0524580404
0.751451	1498752.7510901433
0.753088	1537529.8680944608
0.754734	1574292.906074054
0.756386	1609579.0221103756
0.758047	1649410.3813920785
0.759715	1689107.7931856937
0.76139	1728421.0919361978
0.763074	1765016.3900318881
0.764765	1750827.0990014004
0.766464	1371459.056585096
0.768172	1707727.8473253828
0.769887	1582560.3149263153
0.77161	1885754.8428257143
0.773341	2011925.3339666459
0.775081	2070154.9639620758
0.776829	2120479.7838270254
0.778585	2131673.925954832
0.780349	1878551.9759121968
0.782121	2252066.4716635873
0.783902	2323773.804956182
0.785691	2376464.7924479926
0.787489	2429411.7142981174
0.789295	2483453.326685381
0.79111	2537811.2446681643
0.792933	2591269.170667099
0.794764	2642614.85664284
0.796604	2708176.237000974
0.798453	2767623.566769258
0.80031	2832960.034914123
0.802176	2888623.4206388476
0.804051	2956001.177415503
0.805934	3023712.1286788033
0.807826	3095511.1920495033
0.809727	3169493.583868763
0.811636	3242301.3653914747
0.813554	3316983.6109708925
0.81548	3392653.9025481436
0.817416	3470209.525131709
0.81936	3547013.1788923126
0.821313	3626146.5771677713
0.823274	3708357.7280675177
0.825244	3789781.283972748
0.827223	3873428.2322432394
0.829211	3959025.376617303
0.831208	4046018.6337691965
0.833213	4134922.68904048
0.835227	4223279.011805438
0.837249	4312878.767954021
0.83928	4407093.501444213
0.841321	4500732.990403347
0.843369	4594820.610433406
0.845427	4690579.134227893
0.847493	4790744.697467917
0.849567	4892054.086256514
0.851651	4993385.516260722
0.853742	5069242.98419367
0.855843	5182980.356624306
0.857952	5283680.963718961
0.86007	5369763.934385856
0.862196	5486802.661670289
0.864331	5582677.050511447
0.866474	5697801.684410083
0.868626	5805993.64931102
0.870786	5934929.682586423
0.872955	6060677.720461678
0.875132	6184055.712203884
0.877317	6331139.337701376
0.879511	6485782.932494414
0.881713	6621617.01914199
0.883923	6763043.531431144
0.886142	6910032.299339791
0.888369	7051272.518416014
0.890604	7199671.587693822
0.892847	7335618.240873585
0.895099	7424849.433050229
0.897358	7639746.398250146
0.899626	7794360.327870585
0.901901	7958407.840677497
0.904185	8121705.964924407
0.906476	8276703.422931352
0.908776	8429885.123497006
0.911083	8612801.15243716
0.913398	8778119.839811837
0.915721	8993671.151968952
0.918051	9172711.17729922
0.92039	9335907.328020977
0.922736	9478159.336055923
0.925089	9656017.130977977
0.927451	9807836.956293318
0.929819	10008446.305828936
0.932195	10192617.504474092
0.934579	10311448.902968764
0.93697	10598305.50749212
0.939369	10801783.851328027
0.941774	11010767.380433818
0.944187	11173694.921940662
0.946607	11469291.543868277
0.949035	11654047.103715153
0.951469	11861351.135925092
0.953911	12145491.898587056
0.956359	12396402.689154008
0.958814	12615230.935063897
0.961277	12800741.936819293
0.963746	13010655.247555263
0.966222	13267156.582078189
0.968705	13556443.427864537
0.971194	13791965.638006844
0.97369	14035665.604671404
0.976193	14298737.73558704
0.978702	14582540.598442446
0.981217	14809403.4136841
0.983739	15079464.800573615
0.986268	15433129.47939954
0.988802	15609749.23739517
0.991343	15702484.94055018
0.99389	16032365.02045462
0.996444	16368210.000719922
0.999003	16499561.90707438
1.00157	16887321.949197173
1.00414	17168708.099447306
1.00672	17435633.027067553
1.0093	17753845.750691194
1.01189	18046508.759674314
1.01448	18343816.20340981
1.01708	18562472.581569478
1.01969	19054126.25755444
1.0223	19370634.344092123
1.02492	19611206.032756586
1.02754	19767277.735088322
1.03017	20278577.871845774
1.0328	20697954.931435898
1.03544	21026825.044721767
1.03808	21408199.49162683
1.04073	21870462.03443023
1.04339	22126091.8888227
1.04604	22464590.42414428
1.04871	22867639.131685805
1.05138	23112255.667600777
1.05405	23541802.94840955
1.05673	23749264.196209114
1.05941	24270114.201740682
1.0621	24674442.39231977
1.06479	25133372.552984025
1.06749	25574885.717421845
1.07019	26542468.460830145
1.07289	26858098.48085101
1.0756	27205527.334176727
1.07832	27705403.448160637
1.08104	27550560.5930904
1.08376	28729813.110593837
1.08649	28430501.888159037
1.08922	29455925.887991626
1.09195	29419728.713935968
1.09469	30238617.567778982
1.09743	29947014.32301292
1.10018	30355484.567102402
1.10293	30840681.023113925
1.10568	30715456.751167584
1.10844	31189310.68803435
1.1112	32024861.755622692
1.11396	31882589.554022085
1.11673	32330929.904035866
1.1195	33107469.930236187
1.12228	33462882.83793913
1.12505	34484100.58507185
1.12783	34774948.52460615
1.13062	35550177.89583456
1.13341	35258385.96057838
1.1362	35593240.676028326
1.13899	35807554.84744531
1.14178	36616179.86112864
1.14458	37580546.466980845
1.14738	38549768.947077885
1.15019	39974361.85112822
1.153	40030648.760851204
1.1558	40148930.64195228
1.15862	41125867.83583025
1.16143	39593810.578803904
1.16425	40820949.516098104
1.16707	41283704.25405262
1.16989	40644933.98416705
1.17271	42335551.36004851
1.17554	41849515.99522584
1.17837	41523203.43246409
1.1812	43808174.66022826
1.18403	45266412.68752298
1.18686	44858951.68576051
1.1897	45744424.333730325
1.19253	46099314.906962015
1.19537	47179054.48173082
1.19822	46789954.19834436
1.20106	48878274.53277855
1.2039	48666457.57181568
1.20675	49857875.55453649
1.2096	50439396.07062835
1.21245	51302767.042270176
1.2153	52806114.864496835
1.21815	53089458.38051502
1.221	53545672.079426646
1.22385	53840581.03568056
1.22671	56584115.98846047
1.22957	55670832.62037974
1.23242	56963697.02714317
1.23528	57008303.177447274
1.23814	58388410.62097319
1.241	56224775.51717468
1.24387	56003927.37225155
1.24673	59321786.26121621
1.24959	58969302.4774575
1.25245	57033646.61170067
1.25532	58954041.94541572
1.25818	61464940.54843973
1.26105	62474975.78633577
1.26392	62264996.29540158
1.26678	64670100.09844768
1.26965	66813309.25328656
1.27252	66558728.85515823
1.27538	67146708.35196264
1.27825	66503886.544952706
1.28112	67763060.01652202
1.28399	68382802.30464989
1.28686	69258437.22532073
1.28973	69117005.48605415
1.2926	69471262.55269325
1.29546	71145026.5452678
1.29833	72495409.17016017
1.3012	73607791.4361763
1.30407	74213652.65498489
1.30694	71836482.26728761
1.30981	74329648.07896782
1.31267	74718540.89706104
1.31554	74332382.47663139
1.31841	76609719.69995986
1.32128	77598403.01417248
1.32414	74332947.28135702
1.32701	72997797.79451497
1.32987	73648256.03057148
1.33274	66220505.7296128
1.3356	67711891.66959713
1.33847	62002337.708708435
1.34133	62366365.07783259
1.34419	66224775.51706969
1.34705	66578789.71836067
1.34991	70144151.39323515
1.35277	72243498.05125545
1.35563	67358696.07247177
1.35849	68756800.72670609
1.36135	66238899.36032044
1.3642	68910312.07719968
1.36706	70423259.20986809
1.36991	72247146.79578862
1.37277	72001355.75030299
1.37562	72799876.11858384
1.37847	71176265.76881589
1.38132	68901187.0074396
1.38417	61928551.83283643
1.38701	64286514.65338057
1.38986	74499520.42886715
1.39271	74746492.46093833
1.39555	75302002.62717861
1.39839	77850583.77210423
1.40123	77187551.35668267
1.40407	74581815.45789401
1.40691	73362143.89522296
1.40974	64152605.20820408
1.41258	74862074.03146654
1.41541	78029399.2771839
1.41824	74230861.07010671
1.42107	73729153.25130047
1.4239	75156484.71631517
1.42673	75697740.44561538
1.42955	78053292.18670908
1.43237	78901262.56504157
1.43519	78681275.30911998
1.43801	82201385.99443512
1.44083	83494647.97244474
1.44365	82457421.95693591
1.44646	82947116.55561984
1.44927	84469622.50608864
1.45208	84679133.06569494
1.45489	83449469.5756809
1.45769	86417922.1584829
1.4605	86236717.20017351
1.4633	80787997.58365737
1.4661	81679343.14755227
1.4689	81640304.84881517
1.47169	85256679.2656684
1.47449	85158854.21441324
1.47728	86620826.17884803
1.48007	86278746.44670041
1.48286	88248103.67072295
1.48564	88053518.45693468
1.48842	88528394.09865542
1.4912	89381283.14875723
1.49398	91764354.30845386
1.49676	90838556.56605369
1.49953	90369322.50465402
1.5023	90546096.51163585
1.50507	94913896.8209181
1.50784	95875944.57218939
1.51061	97145911.05637744
1.51337	95973757.68135844
1.51613	96670727.3365768
1.51888	96560751.99972503
1.52164	96013542.27884576
1.52439	98397676.26745458
1.52714	96200061.66306753
1.52989	96813006.9278811
1.53263	100543343.95177068
1.53538	101265711.22709616
1.53812	99378793.47599609
1.54086	97463453.7521131
1.54359	101215093.90127333
1.54632	104692094.18102913
1.54905	102439816.95847654
1.55178	104434259.73972486
1.5545	106694839.86145623
1.55723	105902710.87568794
1.55995	105366025.04590033
1.56266	106092234.10688321
1.56538	107038766.10464701
1.56809	110466606.89587213
1.5708	112035941.60961585
1.57351	111699169.38729265
1.57621	115493677.49929456
1.57891	115406458.32827172
1.58161	113600447.6072262
1.5843	112362824.12677154
1.587	116199751.90232222
1.58969	118400679.65766443
1.59238	116974337.96870954
1.59506	119149253.91581734
1.59774	119900382.59265998
1.60042	121763723.91703336
1.6031	125724591.44614835
1.60577	124046303.63114053
1.60844	121728190.10076497
1.61111	124358564.87880072
1.61378	126590124.27838334
1.61644	127823183.42336412
1.6191	129605185.8892855
1.62176	129358742.13433853
1.62441	129605654.11664796
1.62707	129599251.48552068
1.62971	130827714.48577781
1.63236	133516626.78587388
1.635	134149681.60243148
1.63764	133344767.90267178
1.64028	133020622.57612836
1.64292	135276813.4757155
1.64555	137547836.856272
1.64818	136413083.26426148
1.65081	133723804.59945454
1.65343	139900313.2793106
1.65605	140623278.2586294
1.65867	136533140.68828622
1.66128	139386856.34514305
1.6639	143732335.07800552
1.66651	141691258.22882313
1.66911	143236275.79928485
1.67172	144021459.53978983
1.67432	143718156.98493478
1.67692	142320885.65637165
1.67951	146664693.6940977
1.68211	148873234.03723648
1.6847	147544806.23766536
1.68728	144477157.2339872
1.68987	144766462.5567785
1.69245	143936576.36947834
1.69503	140277292.42246547
1.6976	136291602.689041
1.70018	138036517.64265075
1.70275	142986705.1062579
1.70531	143992383.59341696
1.70788	145356131.59236878
1.71044	139847032.24038878
1.713	136531054.55574706
1.71556	137360556.95562437
1.71811	135559149.5632841
1.72066	135391399.67084363
1.72321	133203145.48150748
1.72575	134075751.06974904
1.7283	133556109.1602625
1.73084	130806635.80944961
1.73337	130005703.75251998
1.73591	133135345.09627979
1.73844	133245076.5497885
1.74097	129556058.76478387
1.74349	127411558.15049675
1.74602	128448472.87598534
1.74854	133122390.46966174
1.75105	132518537.53548366
1.75357	120597779.42707661
1.75608	115210385.00991291
1.75859	114078092.60468645
1.7611	118347630.5956704
1.7636	121905398.7437731
1.7661	119655425.27572268
1.7686	122175800.2804118
1.7711	126458663.65639006
1.77359	121823701.8869988
1.77608	109123763.70393966
1.77857	107061719.33776222
1.78105	108813313.57486399
1.78354	109681967.98390047
1.78602	105698165.79613347
1.78849	109444280.02624597
1.79097	112887167.80538926
1.79344	112639234.65072824
1.79591	117396404.51933974
1.79837	118898803.61189474
1.80084	112166652.37874699
1.8033	116180892.22208653
1.80576	119683276.92872891
1.80821	117257554.45870776
1.81067	117030481.37824431
1.81312	118797272.1003991
1.81557	118954250.12396953
1.81801	107921174.87452982
1.82046	108617614.87097368
1.8229	113193263.54113798
1.82533	120406595.25814398
1.82777	118133188.73900454
1.8302	117660765.93535173
1.83263	110247957.28660001
1.83506	96984932.29053532
1.83749	106819570.48150586
1.83991	119359884.58371139
1.84233	122986110.740598
1.84475	121075605.62235267
1.84716	117834570.95669761
1.84957	120094244.54495747
1.85198	124213109.68982354
1.85439	122098090.34912156
1.8568	118540822.00426687
1.8592	116542941.50124419
1.8616	107779280.23292068
1.864	99835328.28901978
1.86639	93772847.54729491
1.86878	92699743.21828216
1.87118	105117277.8243297
1.87356	110926882.60279657
1.87595	113327860.19037916
1.87833	117270648.91434282
1.88071	123225995.02142021
1.88309	122463396.49220464
1.88547	120439263.27120645
1.88784	123133488.11507638
1.89021	124774140.91858643
1.89258	116908951.89736891
1.89494	113074660.87069604
1.89731	117257439.17460333
1.89967	119707771.10269694
1.90203	123359925.79025884
1.90439	124077060.81680763
1.90674	126149949.65709904
1.90909	130040021.80302125
1.91144	130303810.17238888
1.91379	129952455.86238371
1.91613	130082886.21954246
1.91848	131308204.14073905
1.92082	131047689.14986075
1.92315	128609819.36984159
1.92549	126670729.95634249
1.92782	128450494.07247607
1.93015	130812510.86559209
1.93248	128157112.9663786
1.93481	119765545.05001624
1.93713	115915686.04266913
1.93945	120223490.89817475
1.94177	124739384.57516357
1.94409	123257727.55317931
1.94641	124884094.97609997
1.94872	130345231.29432309
1.95103	131870991.50726566
1.95334	128481452.93258162
1.95564	119129743.35455938
1.95795	117769454.64563337
1.96025	122569743.70045404
1.96255	123284569.69419722
1.96484	120048729.48500723
1.96714	118868678.95164211
1.96943	121636611.68371826
1.97172	126640955.2423511
1.97401	126903331.05917272
1.97629	124425445.74599844
1.97858	124644471.20335358
1.98086	122049423.3361098
1.98314	119617143.17737232
1.98541	121562368.68105876
1.98769	126868105.85849304
1.98996	130411864.19136791
1.99223	130601111.1480326
1.9945	132748074.86424705
1.99677	133584775.38709506
1.99903	129390658.88866517
2.00129	124913724.5117511
2.00355	126175702.09007907
2.00581	127498255.2299903
2.00806	125141216.58550872
2.01031	123908873.76751226
2.01256	128291863.14739645
2.01481	131396869.17733404
2.01706	128198913.63216244
2.0193	125410444.39277084
2.02154	127935592.78813025
2.02378	130691549.8331697
2.02602	127712102.52819622
2.02825	126484804.44648443
2.03049	131545702.78949498
2.03272	132928652.12094428
2.03494	126058368.97997452
2.03717	119297742.92164539
2.03939	121439518.05353989
2.04162	128830507.78349519
2.04384	133261643.52628861
2.04605	132160190.35133868
2.04827	128680625.56301944
2.05048	129566883.74464892
2.05269	132646137.45379205
2.0549	136645296.6048216
2.05711	139854606.07823288
2.05931	138542889.1809717
2.06151	134070245.80533345
2.06371	131820828.07313709
2.06591	134058591.52227956
2.06811	135543740.46800563
2.0703	133607306.50300813
2.07249	134538546.38125455
2.07468	137081584.57746357
2.07686	137303677.11016682
2.07905	136927943.40548855
2.08123	136967898.24891365
2.08341	137108476.11945033
2.08559	137215573.1078563
2.08776	137021795.90920225
2.08994	136568742.4077512
2.09211	135728781.51058266
2.09428	134086175.81513186
2.09645	134230737.59506384
2.09861	137334399.3710847
2.10077	139944315.89277822
2.10293	140753978.12953553
2.10509	140864589.462767
2.10725	140947712.10534093
2.1094	141088072.4743462
2.11155	140505924.40651894
2.1137	138673420.42992347
2.11585	137210530.47682357
2.11799	136221918.68077943
2.12013	136004868.7826661
2.12227	138775048.84515458
2.12441	142794560.74132207
2.12655	143222691.62976113
2.12868	140878973.05058587
2.13081	141119541.10347283
2.13294	144263331.5061393
2.13507	145959828.3850152
2.13719	145298998.8857029
2.13931	145606945.0052221
2.14143	147881201.70621055
2.14355	148653579.16098332
2.14567	147558159.4895395
2.14778	146871343.9129741
2.14989	145646044.35705572
2.152	143313357.5216145
2.1541	142717060.07614696
2.15621	144734474.08845022
2.15831	145452171.24614778
2.16041	143852146.945032
2.16251	142988360.57343572
2.1646	143561543.20921996
2.1667	144773117.9238288
2.16879	146753462.22823417
2.17087	148289874.96968514
2.17296	148239359.64985797
2.17504	146928755.8162426
2.17713	146480005.32156593
2.1792	148307473.96535483
2.18128	150582585.23537198
2.18336	151753049.88247195
2.18543	151380796.3242656
2.1875	149951643.82275596
2.18957	149187782.327204
2.19163	148665949.88536474
2.1937	147189070.9587302
2.19576	145986891.5370831
2.19782	146544932.4957711
2.19987	147905789.62915787
2.20193	147856989.50363228
2.20398	147308778.03520793
2.20603	147374335.14499322
2.20808	148512047.91154933
2.21012	149809627.88616022
2.21217	149244954.73975372
2.21421	148112421.01227388
2.21625	147530624.05482405
2.21828	147147986.6979906
2.22032	147761196.55918077
2.22235	148317505.04936227
2.22438	147000791.9719169
2.22641	144868897.62280306
2.22843	143927299.8685389
2.23046	145323803.63650492
2.23248	147477311.24145317
2.2345	148277573.818512
2.23651	147917926.74712244
2.23853	146614245.83863854
2.24054	145861709.64290762
2.24255	145262084.13969746
2.24456	144431327.50728405
2.24657	143862168.71784344
2.24857	144318616.9587661
2.25057	145944040.84297103
2.25257	147145777.78240493
2.25457	147601287.9876801
2.25656	147758071.21189275
2.25856	148575161.27595955
2.26055	148986107.21944153
2.26254	147658897.74736887
2.26453	146403884.78177541
2.26651	147021069.63118798
2.2685	147977717.78055394
2.27048	147060360.0689921
2.27246	145078788.45256656
2.27443	143888660.5067087
2.27641	144001713.2807473
2.27838	145044774.677208
2.28036	145785284.52189294
2.28233	143256969.34762782
2.28429	140375421.1590262
2.28626	140539920.36398104
2.28823	141690289.80490592
2.29019	139865953.96530318
2.29215	137938682.73619872
2.29411	137773017.0927474
2.29607	138301352.5180764
2.29802	137899933.58581686
2.29998	136829093.5650058
2.30193	137791406.4424582
2.30388	140518650.59082037
2.30583	142889388.33780754
2.30778	142516314.72223267
2.30972	139054920.76884553
2.31167	134422613.8050564
2.31361	132746084.12226655
2.31555	134965352.8212779
2.31749	137305737.4948012
2.31943	136048437.20080227
2.32137	131304626.24838272
2.32331	126594311.5193718
2.32524	123707482.13715571
2.32718	122084099.19377725
2.32911	122630306.89847638
2.33104	125767716.10141341
2.33297	128925675.24426831
2.3349	130927528.3792215
2.33683	130808156.30994925
2.33876	129735167.17168203
2.34068	130301128.01613836
2.34261	131664889.39242052
2.34453	132216729.88216455
2.34646	131764936.97107969
2.34838	129957762.73275909
2.3503	126716595.93807212
2.35223	123685326.88553028
2.35415	123064246.91278394
2.35607	125119041.41045588
2.35799	128110380.14500843
2.35991	129836014.58479942
2.36183	131141529.87616298
2.36375	130760210.50501911
2.36566	125107371.37311181
2.36758	119448282.28595886
2.3695	120556114.59556185
2.37142	127754695.08151594
2.37334	132298789.87054126
2.37526	130659504.47569747
2.37718	124313656.45166385
2.3791	120456562.43340999
2.38101	122431419.97494572
2.38293	126705424.10436521
2.38485	128137785.71440572
2.38677	128524161.0755717
2.3887	128676480.90102582
2.39062	126266462.1399187
2.39254	123495537.03321236
2.39446	123889837.15528156
2.39639	126381530.01330107
2.39831	126892761.37595268
2.40024	125625103.87359847
2.40216	125201517.16946532
2.40409	124804749.75979918
2.40602	119962051.958097
2.40795	109429470.97898649
2.40989	102270519.88928209
2.41182	104228736.39659248
2.41376	112011961.6292018
2.4157	118493643.64797089
2.41764	121941036.7604046
