#wavelength	surface flux
0.676892	736909.3931573365
0.678297	717749.8592971542
0.679702	779807.6040893059
0.681109	797975.0848484536
0.682517	817249.1313963655
0.683926	837469.5114422702
0.685337	855757.0000148104
0.686749	870551.3562996469
0.688164	884291.0334961099
0.689581	893319.2232767438
0.691	911167.294806904
0.692422	923527.1656311938
0.693847	939853.6655736818
0.695274	956253.1069838892
0.696705	973694.9476821115
0.698139	991911.5113690317
0.699576	1012821.9223107438
0.701017	1036403.1326372597
0.702461	1060453.7650859656
0.70391	1084314.4942310604
0.705362	1106236.9863308517
0.706819	1127472.540453296
0.70828	1148502.3458354704
0.709745	1166459.0063850868
0.711216	1180832.7896328291
0.71269	1197416.236014507
0.71417	1230738.2940585092
0.715655	1233350.0507408734
0.717145	1264476.809913192
0.71864	1297701.1632999086
0.72014	1316917.3492190966
0.721647	1335672.1466196035
0.723158	1345458.9671295527
0.724676	1377039.4000216534
0.726199	1395365.5591328598
0.727728	1412609.14954125
0.729264	1406653.030263344
0.730805	1404957.900618001
0.732353	1461169.4382704815
0.733907	1465441.3534606432
0.735468	1443916.4763036037
0.737035	1499464.3155272321
0.738609	1519741.0317083444
0.74019	1520150.1220209096
0.741777	1527568.0369989285
0.743372	1541841.2163780301
0.744973	1536593.7790953345
0.746582	1544241.2154800934
0.748197	1537362.5894077464
0.74982	1503742.2422257809
0.751451	1493722.4043376953
0.753088	1450977.0805542935
0.754734	1427253.2991971602
0.756386	1318312.5967807043
0.758047	1284723.978383951
0.759715	1187638.6681641138
0.76139	1051779.9040893882
0.763074	748816.2132550059
0.764765	223887.50541359602
0.766464	13100.464202122563
0.768172	25862.47235312587
0.769887	19340.837226494248
0.77161	119877.27176024788
0.773341	478341.48607002426
0.775081	1075363.4901322168
0.776829	1495011.6049477248
0.778585	1653309.9458050819
0.780349	1383365.023597842
0.782121	2018442.4490600904
0.783902	2222922.6145813013
0.785691	2361664.4986469927
0.787489	2489826.9548352095
0.789295	2612917.904741944
0.79111	2721814.8889075615
0.792933	2804163.1636577835
0.794764	2355818.3059767485
0.796604	2951556.017247008
0.798453	3151295.8322933945
0.80031	3249126.2450241456
0.802176	3349319.3288389645
0.804051	3448140.6792286523
0.805934	3531929.499392585
0.807826	3616385.159633108
0.809727	3706546.633349298
0.811636	3793220.355151602
0.813554	3870029.3937648106
0.81548	3976656.0557988323
0.817416	4092396.974832205
0.81936	4183077.155599094
0.821313	4233833.604982624
0.823274	4366004.084145165
0.825244	4403988.765561108
0.827223	4514967.205377892
0.829211	4637862.851998994
0.831208	4718822.231097564
0.833213	4864089.481918725
0.835227	4902672.356807251
0.837249	4927733.058570397
0.83928	5148303.505866434
0.841321	5211716.73503377
0.843369	5293951.351008526
0.845427	5404557.033987148
0.847493	5560023.204980838
0.849567	5632945.032097329
0.851651	5672893.679565604
0.853742	5850960.692399175
0.855843	6013617.333509581
0.857952	6138620.608474314
0.86007	6237479.670060956
0.862196	6333075.355583775
0.864331	6413353.854809893
0.866474	6591636.043940834
0.868626	6687331.59632298
0.870786	6778670.288822945
0.872955	6842344.619476125
0.875132	6950716.859553329
0.877317	7173238.779347029
0.879511	7346993.655862613
0.881713	7475747.41139237
0.883923	7607264.285839721
0.886142	7733542.449782247
0.888369	7863403.921691321
0.890604	7983668.960866823
0.892847	7904221.517332878
0.895099	6889272.626469181
0.897358	8342715.477515418
0.899626	8403911.258844636
0.901901	8552420.749748487
0.904185	8756610.31979653
0.906476	8952898.040943349
0.908776	8447604.679348843
0.911083	9131075.669180071
0.913398	9255133.056775646
0.915721	9528868.547448725
0.918051	9583219.997386934
0.92039	9823609.739575962
0.922736	9617574.882236095
0.925089	9717412.272032116
0.927451	9135681.651754588
0.929819	9825397.157774208
0.932195	9342173.240628136
0.934579	8073097.046109889
0.93697	10294591.036464244
0.939369	10627209.019250993
0.941774	10505958.146986678
0.944187	9468340.209315676
0.946607	10960316.75833331
0.949035	10496732.118166093
0.951469	10376318.540568711
0.953911	11794035.087094232
0.956359	11924708.662494808
0.958814	11949110.6666348
0.961277	11232183.976331593
0.963746	10968742.886494601
0.966222	11575928.691465806
0.968705	12700567.172007136
0.971194	12812150.842703994
0.97369	12801564.170384625
0.976193	13666963.780618282
0.978702	13780180.404272743
0.981217	13918585.557900295
0.983739	14197801.827780265
0.986268	14560082.860324785
0.988802	14882312.511368304
0.991343	14697993.033454126
0.99389	15182456.968778634
0.996444	15256526.723989088
0.999003	15306069.124522718
1.00157	15830863.21767479
1.00414	15958012.42715652
1.00672	16396713.604889981
1.0093	16459265.674653409
1.01189	16893593.052388206
1.01448	17163865.737809654
1.01708	17317092.27345763
1.01969	17567549.568692233
1.0223	17804733.378289323
1.02492	18105071.05159452
1.02754	18358735.58124532
1.03017	18621256.98849018
1.0328	18798566.721693743
1.03544	19073379.501245577
1.03808	19331586.816330854
1.04073	19540550.518967118
1.04339	19832753.924394462
1.04604	20057122.24911424
1.04871	20316086.864945937
1.05138	20559220.04010155
1.05405	20781514.47173581
1.05673	21046316.536398698
1.05941	21298429.143600937
1.0621	21544027.858123474
1.06479	21812776.119241215
1.06749	21864220.405118793
1.07019	22168660.794626027
1.07289	22519357.316523455
1.0756	22785336.49140207
1.07832	23065845.548118934
1.08104	23316138.281035062
1.08376	23632390.309902303
1.08649	23619293.1875973
1.08922	23827751.052874196
1.09195	23545533.574413005
1.09469	23983704.941396773
1.09743	22468213.264949143
1.10018	23751473.276093416
1.10293	24350570.65991268
1.10568	21762344.040198512
1.10844	22183933.946295828
1.1112	25188839.21936874
1.11396	22676394.50129301
1.11673	21948014.798860464
1.1195	22411654.016562823
1.12228	23631817.52019863
1.12505	25343798.591175176
1.12783	25189927.229885068
1.13062	24971240.213811398
1.13341	20821921.28723412
1.1362	22761388.493960172
1.13899	26984821.61859462
1.14178	27570049.347349633
1.14458	25540177.299928896
1.14738	27517412.973322622
1.15019	28654372.212448377
1.153	29239779.814780343
1.1558	28337731.949116755
1.15862	28838122.630558606
1.16143	23611318.176927134
1.16425	25762190.200281084
1.16707	28821336.05683698
1.16989	28191131.458410934
1.17271	30445226.378408313
1.17554	29504275.52361926
1.17837	29174590.5960719
1.1812	31552026.17528845
1.18403	32367947.970532563
1.18686	29392387.998737
1.1897	31746367.621983163
1.19253	32370493.844451573
1.19537	33142939.42517853
1.19822	33094300.77616086
1.20106	34393975.924228325
1.2039	34644267.610365875
1.20675	35173713.010778055
1.2096	34431785.86280245
1.21245	35646029.90936568
1.2153	35875174.0072098
1.21815	36172131.59260289
1.221	36628653.391944766
1.22385	36498623.81048375
1.22671	37684765.90281002
1.22957	37633506.12334932
1.23242	38114449.37543449
1.23528	38413522.33230401
1.23814	38337466.09732353
1.241	39295548.36124122
1.24387	39637574.39784589
1.24673	39669537.83766086
1.24959	40107260.72144566
1.25245	40515145.794088095
1.25532	40842036.582637176
1.25818	41174759.700231425
1.26105	41433972.03670149
1.26392	41458914.59501823
1.26678	41719145.39648498
1.26965	42303381.924425565
1.27252	42486429.1276902
1.27538	42709421.244995736
1.27825	42276832.993089095
1.28112	42351560.26930358
1.28399	42775488.57068328
1.28686	43768208.964479454
1.28973	44272588.89798263
1.2926	44174782.42295468
1.29546	42180360.44045096
1.29833	42681866.467595756
1.3012	44759439.112102896
1.30407	39335151.76729636
1.30694	38810961.690680206
1.30981	44957811.46737286
1.31267	44087862.10330088
1.31554	42114047.75058972
1.31841	43332703.99106949
1.32128	44710478.78259617
1.32414	43630250.88643922
1.32701	45713691.11332567
1.32987	43363473.556564584
1.33274	35714221.399136715
1.3356	35614187.701139145
1.33847	26685813.41767339
1.34133	20435580.729075152
1.34419	24828609.992083997
1.34705	25547229.511147648
1.34991	34476229.17886156
1.35277	41286956.4634783
1.35563	26902508.43790989
1.35849	26351085.85157815
1.36135	24756846.52709733
1.3642	28366426.355842426
1.36706	31452058.533926915
1.36991	34294796.93278116
1.37277	30045578.573424045
1.37562	29615628.03719382
1.37847	22271484.18689635
1.38132	23347598.56683223
1.38417	13424930.023708919
1.38701	11839184.24645092
1.38986	31537255.48602135
1.39271	31923475.37511455
1.39555	31905278.37360106
1.39839	37276516.49487178
1.40123	37071269.4561546
1.40407	31082324.553532597
1.40691	25379913.88668413
1.40974	19085215.765637204
1.41258	30881943.790903084
1.41541	31813598.81215345
1.41824	20435793.882014643
1.42107	16731812.230953908
1.4239	19395001.091136187
1.42673	24051032.722301185
1.42955	30108259.985269397
1.43237	30638987.997868046
1.43519	27529275.351993594
1.43801	38245182.93383815
1.44083	39397012.498258285
1.44365	34900710.61214657
1.44646	35077735.98398709
1.44927	39686929.59979754
1.45208	39332823.5241556
1.45489	37039439.9010671
1.45769	44903468.88745713
1.4605	43148871.209429555
1.4633	31035019.317073114
1.4661	34926150.08710903
1.4689	30671423.858753208
1.47169	36898653.82097142
1.47449	31505035.73183791
1.47728	36531090.22440139
1.48007	35876577.41737036
1.48286	38886950.72801608
1.48564	39313479.639612764
1.48842	41944508.162462
1.4912	43641769.94849863
1.49398	48264905.224134386
1.49676	45815194.98634674
1.49953	41234262.89209546
1.5023	40588322.65943042
1.50507	50775621.158844374
1.50784	52270321.136163294
1.51061	54474063.79581626
1.51337	49066622.874494925
1.51613	49985983.75749478
1.51888	45796889.13926182
1.52164	46343793.334000774
1.52439	53047972.74849879
1.52714	46361810.6943902
1.52989	46957259.00719795
1.53263	57513413.41212113
1.53538	57444375.48583423
1.53812	52547320.05497064
1.54086	49815152.76637177
1.54359	55933551.928492695
1.54632	59487182.68465415
1.54905	58801768.16722738
1.55178	60180391.14099889
1.5545	61391962.86509942
1.55723	60602837.75276759
1.55995	59354093.277927294
1.56266	61350790.84009293
1.56538	62596615.56406214
1.56809	63804261.29887089
1.5708	64140866.62851102
1.57351	63621911.790434696
1.57621	65542793.884208955
1.57891	65804210.35540613
1.58161	65396833.79177681
1.5843	65056974.65496541
1.587	65135206.74681922
1.58969	66353515.04879939
1.59238	66423656.45787849
1.59506	66544696.457528576
1.59774	66347234.43609532
1.60042	67043787.67773196
1.6031	68373387.15151782
1.60577	67774843.05297156
1.60844	67136640.34260787
1.61111	68597364.48147954
1.61378	68965764.90002657
1.61644	68980439.49390748
1.6191	69345784.75979531
1.62176	69468782.52507456
1.62441	69775372.69150716
1.62707	69490320.50477734
1.62971	69023674.02724566
1.63236	69580964.84121872
1.635	69042276.7593503
1.63764	68818143.60110548
1.64028	69717463.48752068
1.64292	70256245.0106228
1.64555	70759192.83512793
1.64818	68993733.84548818
1.65081	65715866.86479957
1.65343	70020723.4095948
1.65605	70386115.80165581
1.65867	64684074.53962342
1.66128	66608905.08037963
1.6639	70465261.7764764
1.66651	70055376.13086693
1.66911	71113236.6127419
1.67172	71431378.55830018
1.67432	70952614.70908284
1.67692	69503632.55376594
1.67951	71180421.88940993
1.68211	71710361.75894146
1.6847	71794247.31659336
1.68728	70307554.01201412
1.68987	68653608.98004486
1.69245	70870554.39535522
1.69503	67311891.50743522
1.6976	63603297.74960609
1.70018	70342729.01052563
1.70275	72395482.14088455
1.70531	72709025.7524064
1.70788	72138540.88667716
1.71044	70118422.05821028
1.713	70979389.66442327
1.71556	72305777.52945545
1.71811	71242304.55801077
1.72066	68470319.47687681
1.72321	65893691.773514174
1.72575	69127410.06777158
1.7283	69857652.31977274
1.73084	65472174.124372646
1.73337	67231706.68563999
1.73591	70792508.09042864
1.73844	69547828.49591543
1.74097	66394705.33196794
1.74349	66503261.00209883
1.74602	67462287.73408748
1.74854	69738315.9442581
1.75105	68724449.47939104
1.75357	56284232.49733575
1.75608	46832025.53914037
1.75859	42736051.806240775
1.7611	50789768.35524952
1.7636	57129178.5311886
1.7661	49139307.977845885
1.7686	52312099.12737568
1.7711	63320643.44983881
1.77359	57039005.43575175
1.77608	39005365.86091849
1.77857	35272817.04269609
1.78105	33456255.22642221
1.78354	36116957.27138423
1.78602	36892349.33485179
1.78849	43444548.23925114
1.79097	41307053.530476354
1.79344	39535799.03088527
1.79591	46606653.55370858
1.79837	48938492.46284748
1.80084	37928653.05255805
1.8033	45115882.64115455
1.80576	45624108.83803436
1.80821	37288212.92141941
1.81067	35759587.64237867
1.81312	41503873.600902006
1.81557	48433264.71667599
1.81801	38466215.05994218
1.82046	40359952.806597844
1.8229	45200506.90292188
1.82533	50683125.59345944
1.82777	43947329.62564023
1.8302	39519729.824781686
1.83263	35145526.086826324
1.83506	27145858.933923613
1.83749	33990552.45425365
1.83991	43218195.05981958
1.84233	51630044.74861676
1.84475	50234547.5366526
1.84716	43910334.898159176
1.84957	48949306.70291395
1.85198	57299820.8247048
1.85439	53689712.30844845
1.8568	44958175.008570485
1.8592	39086989.82230855
1.8616	26218563.624943815
1.864	19881882.40388361
1.86639	23113494.097203445
1.86878	29204815.894323725
1.87118	40506791.67119148
1.87356	41644110.073771454
1.87595	40315431.95179798
1.87833	46729893.06047354
1.88071	51881542.55859208
1.88309	47490446.40293374
1.88547	43665440.74226134
1.88784	49358740.85040646
1.89021	54528181.91100012
1.89258	50164818.35499365
1.89494	47067729.34245679
1.89731	43427951.95687035
1.89967	42623077.03234027
1.90203	45445875.85760431
1.90439	43956767.974336624
1.90674	51216181.10308921
1.90909	59984496.07301628
1.91144	56901475.73404644
1.91379	55468709.38384721
1.91613	59851867.29437357
1.91848	63284836.2677334
1.92082	58769553.27413849
1.92315	47774587.01001078
1.92549	44714172.40654208
1.92782	55864403.529678695
1.93015	61021723.652865626
1.93248	52009159.07284431
1.93481	34921101.52881211
1.93713	23888495.66455986
1.93945	27781345.194871098
1.94177	40196209.382883675
1.94409	43277086.04690376
1.94641	46165663.19107932
1.94872	54215112.698805735
1.95103	57793291.9715829
1.95334	54982853.2799746
1.95564	46652723.90057399
1.95795	41836297.807344995
1.96025	40585448.78389487
1.96255	41134010.11300756
1.96484	42030855.65944479
1.96714	42748639.19836204
1.96943	46502798.479810886
1.97172	54117053.83345949
1.97401	53733403.236220196
1.97629	48042756.37016523
1.97858	48239794.812763505
1.98086	46069110.93832592
1.98314	44155122.390706524
1.98541	47986655.60478599
1.98769	55012882.878242254
1.98996	57639712.616814606
1.99223	55970033.90505822
1.9945	60073730.53056613
1.99677	62274650.89668841
1.99903	55460150.805461034
2.00129	49342671.344340056
2.00355	53990972.266024
2.00581	56655114.15641232
2.00806	49196782.26919825
2.01031	44043843.27808692
2.01256	50825065.2231561
2.01481	58099869.17545168
2.01706	56235041.88198712
2.0193	52465459.04013853
2.02154	56382655.62726971
2.02378	61125142.39562766
2.02602	58631670.320306376
2.02825	56310665.3887338
2.03049	61040980.79436466
2.03272	64687777.263974145
2.03494	58579354.587453514
2.03717	49059121.63566603
2.03939	50046885.6621687
2.04162	59985534.19985145
2.04384	66480664.454597004
2.04605	64733388.12587504
2.04827	59868547.02537506
2.05048	60063749.33378689
2.05269	63767775.21701016
2.0549	68618869.14703223
2.05711	71793601.11453016
2.05931	68604165.5549835
2.06151	60817413.3090231
2.06371	60353234.61567747
2.06591	67144493.37749405
2.06811	70640731.08124915
2.0703	69044267.4520613
2.07249	68634445.42756864
2.07468	69962377.35467246
2.07686	70960316.3249229
2.07905	71623935.30921884
2.08123	71845230.27678685
2.08341	71151993.97970209
2.08559	70790396.30805184
2.08776	71420756.25269823
2.08994	71093046.52876069
2.09211	69309436.78678448
2.09428	67753447.30189322
2.09645	69193684.35123606
2.09861	72366642.27048153
2.10077	74022279.62141643
2.10293	74357298.20727716
2.10509	74028442.76599884
2.10725	73255318.4158988
2.1094	72623689.35870123
2.11155	72128114.00691591
2.1137	70227778.825356
2.11585	68298207.26768176
2.11799	68480784.38483936
2.12013	70102254.26773533
2.12227	72329774.16375661
2.12441	73860815.69606046
2.12655	73985837.91396637
2.12868	73315681.10644843
2.13081	73355971.72246368
2.13294	74123647.61409257
2.13507	74400179.30921555
2.13719	74266177.4320056
2.13931	74349051.56662342
2.14143	74665029.8666777
2.14355	74628986.43828663
2.14567	74302934.2374408
2.14778	74041279.92162907
2.14989	72643578.40209666
2.152	69567596.04172398
2.1541	68725561.07363723
2.15621	71395230.12761404
2.15831	73069174.40570211
2.16041	72463919.38918075
2.16251	71694425.27724381
2.1646	71672262.8658636
2.1667	72103196.22560465
2.16879	73046843.06696218
2.17087	73786515.05413629
2.17296	73653469.29403202
2.17504	73237076.48483396
2.17713	72883976.5342098
2.1792	72973388.20904294
2.18128	73438510.37187643
2.18336	73639846.37658682
2.18543	73619444.12031837
2.1875	73489896.6088065
2.18957	73364081.2804574
2.19163	73031235.97007522
2.1937	71808268.54215375
2.19576	70600249.57735159
2.19782	70864074.13832432
2.19987	71905783.52477297
2.20193	71995784.4960848
2.20398	71421789.70031029
2.20603	71120095.48881373
2.20808	71514838.2322429
2.21012	71865257.67883979
2.21217	70633709.69214952
2.21421	68367355.29252763
2.21625	67634180.56961711
2.21828	69107022.32924475
2.22032	71074033.96480839
2.22235	71772252.23024623
2.22438	70996562.3394787
2.22641	69754736.9740001
2.22843	69309824.67128572
2.23046	70188474.4855285
2.23248	71429675.20485649
2.2345	71798758.22613536
2.23651	71441088.04001728
2.23853	70679303.96735379
2.24054	70006814.37659611
2.24255	68947914.44439246
2.24456	67684810.03737573
2.24657	67050770.29053422
2.24857	67884927.42958708
2.25057	69445124.57223886
2.25257	70201435.52354185
2.25457	70496074.01818962
2.25656	70856422.66301352
2.25856	71304160.15361936
2.26055	71217079.57642086
2.26254	70445770.26717333
2.26453	69728302.72632112
2.26651	69702441.94046488
2.2685	69789135.453649
2.27048	69077745.88893685
2.27246	68253443.852854
2.27443	68200470.40957442
2.27641	68771358.02616791
2.27838	69354316.10692428
2.28036	68338400.68276368
2.28233	63811265.42427579
2.28429	60601832.03502002
2.28626	62423695.45741801
2.28823	65850900.56407746
2.29019	65255114.23931987
2.29215	64029804.33508075
2.29411	64685897.935949765
2.29607	65824967.13383661
2.29802	65187423.18801283
2.29998	63851074.88655183
2.30193	64519640.194013946
2.30388	66601479.9616122
2.30583	68149174.87247337
2.30778	67213559.9344718
2.30972	62826977.83299277
2.31167	56768032.27884364
2.31361	54422261.33334717
2.31555	57566970.52716304
2.31749	61563435.33433845
2.31943	62272155.43115211
2.32137	60024311.25095021
2.32331	57404206.881583326
2.32524	54513870.885154
2.32718	50671129.66833678
2.32911	49880747.794331096
2.33104	53250026.06962718
2.33297	57216126.62115854
2.3349	59944297.17091789
2.33683	59693730.932655945
2.33876	56769740.74181699
2.34068	55157383.72171422
2.34261	56897056.67194603
2.34453	59593330.85278592
2.34646	60136910.25496171
2.34838	58227286.28075764
2.3503	55586693.93442086
2.35223	53590338.442856796
2.35415	53204086.50437864
2.35607	54652522.485794455
2.35799	57422130.181135386
2.35991	60023683.61570033
2.36183	62038452.287359655
2.36375	61469063.594008245
2.36566	55825401.27740618
2.36758	50937379.12231771
2.3695	52319090.745981306
2.37142	58607876.35784716
2.37334	62104471.19141583
2.37526	59928187.75718648
2.37718	53078810.55118495
2.3791	48158322.804643266
2.38101	50090569.25461702
2.38293	55900400.511529855
2.38485	58325733.05254796
2.38677	57912706.501596585
2.3887	56807248.93148009
2.39062	53213382.460549295
2.39254	49192617.360026404
2.39446	49487491.8303177
2.39639	53826096.133515544
2.39831	57743028.57409902
2.40024	59460858.42236309
2.40216	60111428.1734228
2.40409	58507013.48757924
2.40602	51647509.30099213
2.40795	41677102.05672231
2.40989	37309509.04140194
2.41182	40488186.930605076
2.41376	44920532.79628755
2.4157	47225213.64914582
2.41764	49010657.38051853
2.41958	50230459.11831602
2.42152	48203831.69602945
2.42347	45337205.20225049
2.42542	42843155.17668754
2.42737	41360526.94513833
2.42932	40220202.3371018
2.43128	41292238.4477584
2.43324	44160905.97925448
2.4352	46008927.079692066
