#wavelength	surface flux
0.6450077295303345	2540.9235189499245
0.6472567915916443	2892.5521407317265
0.6494921445846558	3327.340596711532
0.6517150402069092	3772.7321662937266
0.6539263725280762	4374.446585219372
0.6561272740364075	5052.449478232367
0.6583186388015747	5722.969494987399
0.6605015397071838	6621.590221005322
0.6626768708229065	7797.462588866514
0.6648455858230591	9280.0090957095
0.6670085787773132	10860.658856300888
0.6691668033599854	12627.122000839367
0.6713210344314575	14534.835381911818
0.6734722256660461	16917.534825538976
0.6756211519241333	19934.252537237746
0.6777685880661011	21388.258413050902
0.6799154281616211	24952.28765855929
0.6820623278617859	26569.936492149347
0.6842101216316223	27541.99906842397
0.6863595843315125	27204.028294764565
0.688511312007904	26119.7204383388
0.6906660795211792	24035.445746759662
0.6928245425224304	21897.36700585804
0.6949873566627502	21743.341530365655
0.6971551775932312	22076.485276448817
0.6993286609649658	22866.030440926294
0.7015084028244019	25964.902445623055
0.7036949396133423	28801.24403521745
0.7058889269828796	30828.506001121663
0.7080909013748169	32524.082182974544
0.710301399230957	34802.383022102564
0.712520956993103	38830.29419810533
0.7147500514984131	42262.718026830895
0.7169892191886902	44134.43678869484
0.7192389369010925	48477.85747155263
0.7214996814727783	54101.3329490118
0.723771870136261	61296.878890684624
0.7260559797286987	68345.57106661933
0.7283523678779602	76978.34021589407
0.7306615710258484	85264.49425419296
0.7329838871955872	97828.90438806867
0.7353196740150452	102754.33879333497
0.7376693487167358	108789.24738566439
0.7400332689285278	104122.11026194037
0.7424117922782898	95693.50425414697
0.7448052167892456	79884.04159535933
0.7472138404846191	62770.60347304675
0.7496379613876343	48200.98402850865
0.7520779371261597	36991.99038908486
0.7545340061187744	28912.27212319229
0.7570064663887024	23041.93295311089
0.7594954967498779	18761.325037928647
0.7620013952255249	15288.72782880418
0.7645244002342224	11871.618130289296
0.7670646905899048	5632.743608458807
0.7696225643157959	8221.064730743068
0.7721980810165405	15190.333711917361
0.7747915983200073	21760.69615384089
0.7774031162261963	29853.120922071834
0.7800329327583313	31861.970223103464
0.7826811671257019	57065.04529939519
0.7853479981422424	82732.55596728454
0.7880334854125977	113431.07227254132
0.7907378077507019	140615.61007810378
0.7934610247612	133903.08280062233
0.7962033748626709	128453.19023170556
0.7989648580551147	177378.7603550633
0.801745593547821	188799.96750436974
0.8045456409454346	197756.92720351048
0.8073651194572449	210683.01715451194
0.8102040886878967	225897.38331703655
0.8130625486373901	241678.02735754554
0.8159406185150146	275096.9886993881
0.8188382983207703	307934.70395475096
0.8217556476593018	347379.65136544197
0.8246926665306091	391611.19883001165
0.8276493549346924	446885.47778295877
0.8306257724761963	483485.8237875522
0.8336219191551208	561085.3164337263
0.8366377949714661	626942.8839702695
0.8396733403205872	722950.5251050472
0.8427285552024841	812993.0294516366
0.8458034992218018	913241.7800964171
0.8488980531692505	1029676.5406130169
0.8520121574401855	929128.805065216
0.8551458716392517	1308715.4393570146
0.8582990765571594	1483630.6075604733
0.8614717125892639	1650234.1292492922
0.8646637797355652	1831868.1686829997
0.8678751587867737	2046065.2990953804
0.8711057901382446	2283609.198313586
0.8743556141853333	2526581.900697274
0.87762451171875	2803234.3364923266
0.8809124231338501	3098792.0617430233
0.8842192888259888	3476701.766232721
0.8875449895858765	3828560.9287461517
0.8908893465995789	4064808.1872826014
0.894252359867096	3281515.6872641873
0.8976338505744934	4627349.96042568
0.9010337591171265	5350310.543863724
0.9044519662857056	6221219.9084951235
0.9078882932662964	6427198.946794641
0.9113426208496094	7168553.92112883
0.914814829826355	7743638.53281405
0.9183048605918884	8299317.765825954
0.9218124747276306	9768536.85909331
0.925337553024292	9131680.609745556
0.9288799166679382	5425479.4868849255
0.9324395060539246	4394069.721702931
0.9360161423683167	8484795.385560486
0.9396095871925354	11706952.962430896
0.943219780921936	10556773.616252605
0.9468464851379395	11328858.477641063
0.9504896402359009	10493897.37078518
0.9541489481925964	11683722.13605595
0.9578243494033813	13752341.209538905
0.9615156054496765	10318553.612191904
0.9652225375175476	15220636.839514175
0.9689450263977051	18337650.752877675
0.9726828336715698	18351657.606602926
0.9764357805252075	24296321.078249343
0.9802037477493286	24783594.406742766
0.983986496925354	26909705.2554508
0.9877838492393494	31581941.147728886
0.9915955662727356	33029225.574426163
0.9954215884208679	36299346.667335704
0.9992615580558777	34831025.86675966
1.0031154155731201	37972124.01425422
1.0069829225540161	40761476.51414629
1.0108637809753418	43794244.384802885
1.0147579908370972	46306034.99469397
1.018665075302124	49437718.99409308
1.022585153579712	51605163.23766659
1.0265177488327026	53410459.70769403
1.0304628610610962	56017320.46196442
1.0344202518463135	56247173.074539065
1.0383895635604858	58595407.98346067
1.0423706769943237	60303231.8247962
1.0463634729385376	62390478.20073642
1.0503677129745483	63178649.11479049
1.0543830394744873	64618370.53289388
1.058409333229065	65490858.972130336
1.0624464750289917	65777497.70093539
1.0664942264556885	67190812.47087081
1.0705522298812866	68389112.0877038
1.0746204853057861	69765370.88739978
1.0786986351013184	70057849.26519336
1.0827864408493042	71476381.09630354
1.086883783340454	68281228.39026836
1.0909905433654785	62326401.76467202
1.0951062440872192	48205779.6329404
1.0992310047149658	41576571.23808184
1.10336434841156	34068915.23946939
1.1075061559677124	20527144.051029876
1.1116561889648438	15674464.017461415
1.115814208984375	10869441.89988821
1.1199802160263062	13822053.50534821
1.124153733253479	7639230.699212418
1.1283347606658936	9260499.324503267
1.1325229406356812	8413685.145920757
1.1367181539535522	7633153.788596524
1.1409201622009277	19441931.12642337
1.145128846168518	10433538.021451272
1.1493438482284546	10877918.603361735
1.1535650491714478	4326687.587646268
1.1577922105789185	7191348.079546273
1.1620250940322876	2355865.7725256784
1.1662636995315552	4198057.057245073
1.170507550239563	8383874.3423970975
1.174756646156311	14262110.477070095
1.1790107488632202	16025957.10066884
1.1832695007324219	27551369.42171055
1.1875330209732056	26859749.190951966
1.191800832748413	37864684.589439094
1.1960728168487549	53478956.733429074
1.2003488540649414	57121729.725898184
1.2046287059783936	62769431.48884345
1.2089121341705322	68929928.70246908
1.2131990194320679	77156322.82127684
1.2174891233444214	75647805.52921362
1.2217823266983032	84565709.0851286
1.2260783910751343	96390287.52039465
1.230377197265625	96819457.77105844
1.2346785068511963	89760837.94063626
1.238982081413269	96473130.07270521
1.2432878017425537	96748773.15074953
1.2475954294204712	105188663.93252666
1.2519049644470215	98106466.32130767
1.256216049194336	110438988.35094449
1.2605286836624146	110895461.47314344
1.2648425102233887	109851923.44737148
1.2691574096679688	110635285.99806657
1.2734732627868652	108438050.23851807
1.2777899503707886	107470955.45923625
1.2821072340011597	106639767.44834636
1.2864248752593994	97294185.04789388
1.2907428741455078	96112558.85913138
1.2950609922409058	86188870.70316516
1.2993791103363037	88696753.85007954
1.303696870803833	89032122.34383413
1.3080145120620728	74337286.81909108
1.3123314380645752	67748813.65635435
1.3166478872299194	62377994.4526727
1.3209635019302368	67768907.48377804
1.3252781629562378	47812873.564924106
1.3295916318893433	17286236.59550405
1.3339040279388428	8073286.813476004
1.3382149934768677	1877025.9792864928
1.3425244092941284	828552.7140548006
1.3468321561813354	448853.2415655818
1.3511382341384888	478136.97372870264
1.3554422855377197	172353.63874941188
1.3597444295883179	128866.9577542085
1.3640443086624146	505378.45749661385
1.3683418035507202	399948.0735742515
1.3726370334625244	311899.5091393283
1.3769296407699585	710009.6581724909
1.381219506263733	377069.9442320342
1.3855066299438477	75859.37632918546
1.3897908926010132	295497.1825625334
1.3940720558166504	320315.25343549723
1.3983501195907593	241539.82123418082
1.4026249647140503	250530.0343358034
1.4068963527679443	338722.1681111131
1.4111642837524414	291868.8196328543
1.4154287576675415	673587.8321576489
1.419689416885376	263197.3679349597
1.4239463806152344	226608.94547397082
1.4281994104385376	918705.075494061
1.4324485063552856	998424.1700242797
1.436693549156189	1827592.7764455115
1.440934419631958	1650438.0712525211
1.4451709985733032	1893779.6065765556
1.449403166770935	3511470.9298461503
1.453631043434143	4909117.37329913
1.4578542709350586	7546206.506766377
1.4620729684829712	4673796.069950648
1.4662868976593018	7496714.461170091
1.4704961776733398	5893238.403874922
1.4747005701065063	6464632.908559709
1.4788999557495117	6639081.938272358
1.4830944538116455	8536101.364325913
1.4872838258743286	9414829.539683603
1.491468071937561	10555034.21274257
1.4956470727920532	11670825.682644289
1.4998208284378052	14440606.707539003
1.5039892196655273	17693290.2946105
1.5081522464752197	18247020.538321257
1.5123097896575928	20583016.621957783
1.5164618492126465	20810985.110979654
1.5206083059310913	23479502.76076585
1.5247491598129272	28196201.86524688
1.5288842916488647	25853357.862840626
1.5330137014389038	34545005.167616256
1.5371372699737549	38786861.08882219
1.541254997253418	35748598.44341437
1.545366883277893	48611982.74703248
1.5494728088378906	39341728.8802928
1.5535727739334106	59675158.983517006
1.5576666593551636	56987416.31398191
1.561754584312439	62494426.50404974
1.5658363103866577	54583210.25085251
1.5699119567871094	67166105.18706277
1.5739814043045044	67233413.0656422
1.5780447721481323	67752065.95799284
1.582101821899414	60499545.36185616
1.5861525535583496	56177307.542737424
1.5901970863342285	58530194.77409833
1.5942351818084717	54200692.90690984
1.5982669591903687	54641094.52976313
1.6022924184799194	56602283.34623163
1.606311559677124	49090144.69558674
1.6103241443634033	45130555.53761761
1.6143304109573364	41396070.57672905
1.6183301210403442	31040374.17411001
1.6223233938217163	40012839.79397864
1.6263102293014526	44775975.040708095
1.6302905082702637	37284981.77128483
1.634264349937439	34819632.26908132
1.638231635093689	31963181.72691105
1.6421923637390137	28396847.47921519
1.646146535873413	23964619.63857847
1.6500942707061768	29412807.404084958
1.6540353298187256	33626621.41839437
1.6579699516296387	23596192.51215306
1.661897897720337	29246476.176666684
1.6658192873001099	17501678.55988675
1.6697341203689575	13780236.772872718
1.6736423969268799	20341923.761583067
1.677544116973877	26427011.141141158
1.6814392805099487	23364758.876484323
1.6853278875350952	11999867.483021745
1.6892099380493164	11201737.374305148
1.6930854320526123	10237486.174463222
1.696954369544983	9429921.626699457
1.7008168697357178	12388125.56273645
1.7046726942062378	13171686.186058417
1.708522081375122	14512584.028900111
1.712364912033081	16109526.580345796
1.7162011861801147	19236454.561124664
1.7200311422348022	14683221.363766802
1.723854422569275	10972273.619990606
1.7276713848114014	13809881.160837792
1.731481909751892	14784876.265189633
1.7352858781814575	12644415.383999301
1.7390835285186768	10780853.59911622
1.7428747415542603	9353709.14524072
1.7466596364974976	8984044.257828698
1.7504380941390991	10217032.05845016
1.7542102336883545	6658829.962771813
1.7579760551452637	5973950.018866988
1.7617355585098267	6827467.2753604315
1.7654887437820435	5830742.837743868
1.7692357301712036	4108512.567847151
1.7729763984680176	4998221.674446352
1.776710867881775	2573527.5141698974
1.7804391384124756	2801358.053955521
1.7841613292694092	2100717.576591343
1.7878772020339966	2432518.9333594902
1.7915871143341064	2263604.8704115297
1.7952908277511597	2223589.5764550474
1.7989884614944458	2851873.3293938423
1.8026801347732544	1067188.7704985102
1.806365728378296	1137582.7784507093
1.8100452423095703	1152057.768166337
1.8137187957763672	1474386.3686405232
1.817386507987976	1360768.7293150863
1.8210482597351074	1171365.858983192
1.8247040510177612	1902564.2137847515
1.828354001045227	888256.5305697634
1.8319982290267944	990442.419032884
1.8356364965438843	771775.6311355836
1.8392690420150757	661201.083340171
1.8428958654403687	1406860.0432629746
1.8465168476104736	1562754.8248629055
1.8501322269439697	1323487.7725362694
1.8537418842315674	1642460.5578666346
1.8573459386825562	1006595.8663630568
1.860944390296936	507010.57458925195
1.864537239074707	578188.2572152452
1.8681244850158691	460210.21870140085
1.871706247329712	514507.3050187035
1.8752825260162354	712397.0458730605
1.8788533210754395	2272755.187629726
1.8824186325073242	2886796.0670073843
1.8859784603118896	2107097.044958847
1.8895330429077148	2195134.94471829
1.8930821418762207	3032606.7617291254
1.8966259956359863	4085484.89922318
1.9001644849777222	2118120.1902437694
1.9036977291107178	1889009.499800546
1.9072256088256836	2475773.638790481
1.9107483625411987	2490794.3539480227
1.9142658710479736	1503868.130935421
1.9177782535552979	2999574.7356225494
1.9212853908538818	1468857.0216036672
1.9247875213623047	1144375.3040668454
1.9282845258712769	1171194.101050077
1.9317764043807983	886031.0981221556
1.9352631568908691	786692.0066057836
1.9387450218200684	543007.1028634296
1.942221760749817	1398189.3011414327
1.9456936120986938	1430814.9530414671
1.9491604566574097	1491692.496956766
1.952622413635254	2005846.3826996728
1.956079363822937	1440106.4002114937
1.959531545639038	1295493.3649013317
1.962978720664978	1243899.7550815227
1.966421127319336	1955997.6845024119
1.9698586463928223	2302608.4701013616
1.9732913970947266	2692564.981958537
1.9767193794250488	2821774.300797874
1.9801424741744995	2613760.395794619
1.9835609197616577	3373498.4986860016
1.9869745969772339	4074628.8993939776
1.990383505821228	2477846.8965607435
1.9937876462936401	3249060.0407804153
1.9971871376037598	4480042.27986624
2.000581979751587	3766202.99694995
2.003972291946411	4561894.9116453985
2.007357597351074	4637514.034106993
2.0107386112213135	4870236.696273018
2.0141148567199707	6327004.328634203
2.017486572265625	5460103.908275137
2.0208535194396973	6340797.084473327
2.0242159366607666	7535358.113282862
2.027573823928833	6344869.3481605025
2.0309269428253174	7221431.92495851
2.034275770187378	8128837.568911434
2.0376198291778564	6938507.604746351
2.040959596633911	7571947.544390008
2.044294595718384	8425632.51525622
2.0476250648498535	8298914.98333156
2.0509510040283203	7959571.767856106
2.054272413253784	8587932.441513447
2.057589530944824	9715068.965228347
2.0609018802642822	9475206.389389753
2.0642096996307373	9137236.321842229
2.0675129890441895	9547249.369557727
2.0708119869232178	9316245.142500116
2.074106216430664	9181012.035950908
2.0773961544036865	9066193.281606691
2.080681324005127	9333541.297025463
2.0839622020721436	9186819.62504244
2.087238311767578	9139251.634493733
2.090510129928589	9023774.266179053
2.0937774181365967	8389815.922698561
2.0970399379730225	8684581.98944283
2.1002981662750244	8987844.450738715
2.1035518646240234	8907340.806736255
2.1068007946014404	8751223.375884933
2.1100454330444336	8486005.901212834
2.1132853031158447	7844018.3429382825
2.116520881652832	7498592.236137101
2.1197516918182373	7913130.491239976
2.1229779720306396	8083842.160889546
2.12619948387146	7999044.045465487
2.1294167041778564	7984771.218745678
2.132629156112671	7758911.820193087
2.1358368396759033	7424321.163471624
2.139039993286133	7309747.395749151
2.1422386169433594	7366628.835634479
2.145432472229004	6903219.480687739
2.1486217975616455	6462147.1389114475
2.151806354522705	6094048.095861351
2.1549863815307617	5898052.191903813
2.1581614017486572	6531227.801246192
2.16133189201355	6438592.484141866
2.1644976139068604	6361315.795307923
2.167658567428589	6002053.547111485
2.1708147525787354	6049948.370411128
2.173966407775879	5772978.587931009
2.1771130561828613	5832127.037903974
2.1802549362182617	5630301.52537579
2.183391809463501	5050445.229899758
2.1865241527557373	5028928.492067205
2.1896514892578125	4946237.600937389
2.1927738189697266	4763980.378735576
2.1958916187286377	3840707.9452370265
2.1990041732788086	2909522.309390949
2.2021119594573975	2219406.624231928
2.2052149772644043	1928659.8863780736
2.208312749862671	2244639.910103116
2.2114057540893555	2529765.612888813
2.214493751525879	2678030.8574472386
2.217576742172241	3185217.684679929
2.2206547260284424	3421609.510536606
2.2237277030944824	2932162.5711985556
2.2267956733703613	2153626.9237628737
2.2298583984375	1994927.210543956
2.2329163551330566	2219995.23847422
2.235969066619873	2205357.7404265744
2.2390167713165283	1941110.52407194
2.2420592308044434	1791738.6419181752
2.2450966835021973	1771271.7962277438
2.248128890991211	1611581.702626263
2.2511560916900635	1502936.9781250895
2.254178285598755	1343031.2237836812
2.257194995880127	1443289.5888348336
2.260206699371338	1695910.1042976328
2.2632133960723877	1312453.1003356362
2.266214609146118	1138848.9045175174
2.2692108154296875	1240825.597648833
2.2722020149230957	1532369.6649086738
2.2751877307891846	1594743.1967633746
2.278168201446533	1628132.5039196166
2.2811436653137207	1704133.4170690677
2.284113883972168	1373976.1883862934
2.287078857421875	1149461.4263109968
2.290038824081421	1057500.1755914486
2.2929933071136475	892713.9337582425
2.295942783355713	801045.3190589183
2.298887014389038	1007675.5336344601
2.301826238632202	1319125.0978402116
2.304760217666626	1482577.8270477308
2.3076889514923096	1836753.1969291829
2.310612440109253	2344508.096243728
2.3135311603546143	1840070.0123934797
2.3164443969726562	937026.5436909867
2.319352865219116	676778.9361041236
2.322256088256836	698907.0904094555
2.3251543045043945	567670.0266672134
2.328047275543213	547276.9047238318
2.330935478210449	697940.583623995
2.3338186740875244	765768.731363859
2.3366971015930176	778991.7507612688
2.3395702838897705	760296.6390644463
2.3424389362335205	645575.2517628209
2.3453025817871094	631195.9097258106
2.348161458969116	794750.8987538421
2.351015567779541	990236.1869685331
2.353865146636963	1073578.2282930948
2.3567099571228027	843598.3204185711
2.3595502376556396	1011242.0303192002
2.3623859882354736	1330404.1515223447
2.3652172088623047	1493515.8929928606
2.368043899536133	1158836.1419573438
2.370866537094116	726828.9493464554
2.3736846446990967	801376.3932703459
2.3764986991882324	942752.5340119586
2.3793084621429443	1041792.4232274969
2.3821144104003906	1172112.7238193406
2.384916305541992	1074539.8456414125
2.387714147567749	1126372.1139428893
2.3905084133148193	1397270.717221164
2.393299102783203	1422853.390819476
2.3960859775543213	1333035.192223166
2.398869514465332	1373342.3939983745
2.4016497135162354	1705333.557342611
2.4044265747070312	1816121.9340425925
2.407200336456299	1423342.3977958856
2.409970998764038	1564046.3541850806
2.4127390384674072	2084762.3958859835
2.415503978729248	1948836.6121006755
2.418266534805298	1752735.577681841
2.4210267066955566	1819246.8961784423
2.4237842559814453	1813381.657905098
2.426539897918701	1764219.7458154773
2.429293394088745	1887044.3304881705
2.4320452213287354	2030605.5433626287
2.4347951412200928	1720816.9755059183
2.4375438690185547	1538742.8122418679
2.440291166305542	1935015.5407102413
2.443037271499634	2127884.6894969973
2.445782423019409	1856647.6668595246
2.4485268592834473	1638326.1249100666
2.451270818710327	1409132.6284868175
2.454014539718628	1399258.2580927804
2.4567582607269287	1637936.2486454814
2.4595019817352295	1758376.8097825688
2.4622461795806885	2063420.4676706104
2.4649908542633057	2193297.5064786384
2.4677364826202393	1672078.0044453025
2.4704833030700684	1343731.9368672888
2.473231554031372	1330442.6830868819
2.4759814739227295	1341435.1410288198
2.4787333011627197	1306904.4882119899
2.481487512588501	1270860.9886697729
