#wavelength	surface flux
0.676892	2461384.000418054
0.678297	2442342.816869732
0.679702	2572000.433879762
0.681109	2624015.2112332894
0.682517	2678876.310966101
0.683926	2736461.2216906645
0.685337	2790421.768007932
0.686749	2839395.9094885234
0.688164	2889849.044636345
0.689581	2935580.212755618
0.691	2990434.5204094453
0.692422	3038147.832404588
0.693847	3099998.697408467
0.695274	3160152.3827244644
0.696705	3216548.017524194
0.698139	3266637.625065873
0.699576	3325847.395684385
0.701017	3389790.029397234
0.702461	3461140.2499201125
0.70391	3525452.8283086363
0.705362	3583112.4903027206
0.706819	3632886.3733269745
0.70828	3699867.714387507
0.709745	3761157.9410938593
0.711216	3817244.7462436077
0.71269	3868994.2693208884
0.71417	3962347.029316659
0.715655	4026341.9820756144
0.717145	4106305.0290394695
0.71864	4185814.6840146035
0.72014	4255772.338929145
0.721647	4331154.936794605
0.723158	4389642.427539095
0.724676	4484757.092590474
0.726199	4565274.894204972
0.727728	4634049.243577324
0.729264	4670680.77420611
0.730805	4758723.913197878
0.732353	4871598.580488097
0.733907	4878290.882747831
0.735468	4878212.631276397
0.737035	5001078.433310238
0.738609	5025058.014542621
0.74019	5071218.933801738
0.741777	5106982.660526959
0.743372	5202581.338411381
0.744973	5225649.461010614
0.746582	5303050.136108567
0.748197	5396310.067063514
0.74982	5444531.303405492
0.751451	5504956.85614463
0.753088	5557457.21203169
0.754734	5636281.228930408
0.756386	5539128.8483291585
0.758047	5642763.08000203
0.759715	5598325.970777892
0.76139	5499183.52420872
0.763074	4923410.266746025
0.764765	2698480.236415927
0.766464	481166.32814891235
0.768172	845968.2581174108
0.769887	646806.4591615695
0.77161	2102138.842228295
0.773341	4307823.01293135
0.775081	6017887.71428001
0.776829	6725883.4239955675
0.778585	6909440.642699946
0.780349	5821956.777049928
0.782121	7524127.865355277
0.783902	7853925.935205487
0.785691	8078879.382616404
0.787489	8274449.66382063
0.789295	8468579.578645838
0.79111	8625420.93423687
0.792933	8744026.883950416
0.794764	7997233.444065925
0.796604	9019564.76802403
0.798453	9319125.26431973
0.80031	9519188.727309786
0.802176	9647145.645099876
0.804051	9852875.03446932
0.805934	10048753.128141364
0.807826	10256435.909501912
0.809727	10492623.547660735
0.811636	10715150.732704908
0.813554	10958353.698767262
0.81548	11187214.047878012
0.817416	11424157.6992421
0.81936	11562896.751236178
0.821313	11752943.286139816
0.823274	12053262.11474578
0.825244	12218168.335455203
0.827223	12366979.85159438
0.829211	12563569.088133078
0.831208	12761750.428503608
0.833213	12979222.352127103
0.835227	13187914.30466788
0.837249	13378022.330010356
0.83928	13654996.689838469
0.841321	13869630.26213281
0.843369	14004742.75676753
0.845427	14137478.745599607
0.847493	14376682.962367438
0.849567	14589292.03278115
0.851651	14752006.802598493
0.853742	14914856.812179267
0.855843	15230359.309737721
0.857952	15437365.792584525
0.86007	15573002.77845968
0.862196	15785088.319308348
0.864331	15788545.634166196
0.866474	16271420.98898046
0.868626	16400960.139998127
0.870786	16548093.967939831
0.872955	16563756.674778188
0.875132	16775651.542449687
0.877317	17463340.483460948
0.879511	18038173.919718243
0.881713	18333491.04336166
0.883923	18640553.282944832
0.886142	18943563.6418476
0.888369	19120486.23665547
0.890604	19461819.89708444
0.892847	19381440.941801
0.895099	17651745.392843172
0.897358	20277187.034062356
0.899626	20548990.79660996
0.901901	21043549.096804015
0.904185	21387924.527311083
0.906476	21550050.441221077
0.908776	21718275.34499538
0.911083	22213458.488647904
0.913398	22296864.85955983
0.915721	23084422.930563994
0.918051	23411819.779276796
0.92039	23655325.959649775
0.922736	23593388.481577333
0.925089	23905091.050350774
0.927451	23736899.271511555
0.929819	24366795.207453124
0.932195	24501718.79867004
0.934579	23534600.11108514
0.93697	25381662.352110438
0.939369	25831372.959523294
0.941774	26137048.765109338
0.944187	25608028.21798069
0.946607	26966483.047661178
0.949035	26737891.493745446
0.951469	26940614.941556044
0.953911	28274226.10363567
0.956359	28683569.76784764
0.958814	28989272.394203506
0.961277	28953666.08745328
0.963746	28928215.767000526
0.966222	29463992.781194337
0.968705	30410754.696949486
0.971194	30728376.768935744
0.97369	30971343.715625748
0.976193	31495339.651642483
0.978702	31929146.66585722
0.981217	32212315.983795777
0.983739	32666503.95771991
0.986268	33222654.09620328
0.988802	33479242.691827256
0.991343	33540310.608002827
0.99389	34147009.63386826
0.996444	34522920.908957966
0.999003	34709474.43359102
1.00157	35448613.165322095
1.00414	35769340.78777067
1.00672	36086265.65520187
1.0093	36502813.60271246
1.01189	37001404.233025275
1.01448	37344632.16303256
1.01708	37625026.7740035
1.01969	38227431.029232346
1.0223	38730539.33833013
1.02492	39038668.8896771
1.02754	39147632.68623301
1.03017	39895522.926635034
1.0328	40480542.26924715
1.03544	40980853.56517284
1.03808	41313944.828805774
1.04073	41891317.654560894
1.04339	42238437.81038327
1.04604	42645312.30094451
1.04871	43353113.51963792
1.05138	43554025.81838094
1.05405	43925293.57220376
1.05673	44360112.18286568
1.05941	44761516.55742036
1.0621	45448231.194533944
1.06479	45864604.3053554
1.06749	46402614.26487384
1.07019	46989978.279865876
1.07289	47412250.28210058
1.0756	47838776.399467535
1.07832	48148710.769150056
1.08104	48425499.61454
1.08376	49155336.150170065
1.08649	49394588.130052395
1.08922	50212447.00829733
1.09195	50195328.17560889
1.09469	50915268.375103295
1.09743	49899636.988844074
1.10018	51184460.62832171
1.10293	51919600.935487255
1.10568	50789857.43118121
1.10844	51536163.263892986
1.1112	53330166.147895865
1.11396	50059497.41495942
1.11673	50848385.99856895
1.1195	52586330.68039169
1.12228	54063817.67838149
1.12505	55458702.06808058
1.12783	55470109.791736655
1.13062	55928047.77218621
1.13341	53752477.08336588
1.1362	55167022.90772843
1.13899	57284490.8685394
1.14178	57694942.47568289
1.14458	57140432.95178823
1.14738	59077067.47297651
1.15019	59839517.62029539
1.153	60427677.26239693
1.1558	60344205.80634632
1.15862	60839442.787132226
1.16143	55808304.64211392
1.16425	59557711.32522058
1.16707	61809037.15523031
1.16989	61431906.72795614
1.17271	63219861.569030695
1.17554	62584899.96513612
1.17837	62163873.67718644
1.1812	64525247.43186729
1.18403	65340132.47824341
1.18686	63381910.21907164
1.1897	65448374.29469864
1.19253	66124632.403255954
1.19537	66961803.84158412
1.19822	66848860.55502305
1.20106	68203976.69408734
1.2039	68516520.84207945
1.20675	69120135.46443182
1.2096	69227279.07156444
1.21245	70006555.7309943
1.2153	70547805.47706701
1.21815	71052472.66678347
1.221	71613530.24518003
1.22385	71765929.56099601
1.22671	72878112.89978415
1.22957	72982483.43710011
1.23242	73585326.64111334
1.23528	73914784.33796899
1.23814	74178249.3335468
1.241	74501755.37438568
1.24387	74915478.99641335
1.24673	75563150.54821803
1.24959	75752365.03101827
1.25245	75964513.65379459
1.25532	76536179.68652524
1.25818	77292262.38810696
1.26105	77691837.65215452
1.26392	78017598.04919338
1.26678	78610717.70520663
1.26965	79264089.18325353
1.27252	79679833.2318961
1.27538	80040495.70488252
1.27825	80021030.74956995
1.28112	80321241.26651996
1.28399	80993671.65367524
1.28686	81537117.726324
1.28973	81904047.29768047
1.2926	82291433.33598718
1.29546	81722676.45393798
1.29833	82420283.15883271
1.3012	83626886.46464437
1.30407	80927458.50264235
1.30694	80929384.4425688
1.30981	84461069.98588231
1.31267	84303623.31721196
1.31554	83431486.20753685
1.31841	84950812.75951466
1.32128	85672236.31632482
1.32414	85145186.016057
1.32701	86080920.42745882
1.32987	84806147.95480634
1.33274	73658146.11839601
1.3356	78513353.26403405
1.33847	68060065.01996937
1.34133	66719890.450759776
1.34419	72391187.16476962
1.34705	72595302.04407677
1.34991	80793960.38669625
1.35277	86211083.14328037
1.35563	75550875.45503643
1.35849	75906386.3155577
1.36135	69800008.72249673
1.3642	74638169.0466845
1.36706	77877360.96216096
1.36991	82167267.98780583
1.37277	79764155.70726722
1.37562	81171066.18344186
1.37847	74567654.08275804
1.38132	70678621.33938803
1.38417	51526149.35662207
1.38701	53585395.29783271
1.38986	82524825.8828005
1.39271	83141262.91948268
1.39555	83937971.60981233
1.39839	88284940.27020177
1.40123	86175573.17895308
1.40407	78501267.11469394
1.40691	75285427.93901995
1.40974	57232806.48375729
1.41258	79222691.29237339
1.41541	83357326.65698443
1.41824	72333438.85858391
1.42107	68661810.22445166
1.4239	71847466.59492171
1.42673	73360269.92482543
1.42955	79051136.69185007
1.43237	81595516.25709575
1.43519	80424982.96104923
1.43801	86923339.75981307
1.44083	91040467.63394666
1.44365	88635644.54530492
1.44646	88598201.23356599
1.44927	91231701.77724858
1.45208	88651997.33804479
1.45489	85056674.32911064
1.45769	93063513.30224857
1.4605	92056515.86240646
1.4633	77865415.78188704
1.4661	81354051.55956301
1.4689	79636113.87049784
1.47169	87775589.36139195
1.47449	85994236.41971458
1.47728	88985012.17384651
1.48007	86853833.8957355
1.48286	89184712.32666913
1.48564	85825303.37053831
1.48842	89816902.94249108
1.4912	93206190.76454051
1.49398	97218360.4270036
1.49676	95004541.68229438
1.49953	92631629.86357084
1.5023	91255390.30898981
1.50507	98537412.48033139
1.50784	100201196.95499535
1.51061	100983472.44430353
1.51337	98244507.24141325
1.51613	99182840.5463278
1.51888	97905227.69439346
1.52164	96931709.99507008
1.52439	100741799.59235886
1.52714	94854385.69440441
1.52989	95575482.79327042
1.53263	103302950.69194064
1.53538	103267476.62409231
1.53812	100224423.29106428
1.54086	98134033.89088872
1.54359	102518986.10675018
1.54632	104816763.9685152
1.54905	104173027.42464198
1.55178	105294749.96607287
1.5545	106296842.0426328
1.55723	104912382.6041807
1.55995	104203950.43703014
1.56266	106505145.23212895
1.56538	106983731.00961305
1.56809	107792216.7103328
1.5708	108244780.56727773
1.57351	107985914.94956265
1.57621	109303824.28603964
1.57891	109459754.5914023
1.58161	109068454.38810208
1.5843	108912392.88413839
1.587	109313838.62376769
1.58969	110248433.41797091
1.59238	110222160.75240427
1.59506	110360627.25308424
1.59774	110160417.2150865
1.60042	110675866.41950397
1.6031	111733035.61178826
1.60577	111536930.42656706
1.60844	111168782.48892136
1.61111	111984224.84961775
1.61378	112365721.31928377
1.61644	112423149.81104898
1.6191	112772574.10585319
1.62176	112876254.6842612
1.62441	113061798.56157272
1.62707	112931475.43519701
1.62971	112843771.14857042
1.63236	113271454.59840572
1.635	113178398.14799911
1.63764	113153132.17528795
1.64028	113427617.26977411
1.64292	113735407.15436485
1.64555	114191216.30903265
1.64818	113423757.69435556
1.65081	112005639.15552473
1.65343	114068365.72902134
1.65605	114212252.1690747
1.65867	111595156.0257061
1.66128	112710313.23591414
1.6639	114695888.09280601
1.66651	114553694.8154274
1.66911	115008055.74601202
1.67172	115232792.59770693
1.67432	115044347.11235604
1.67692	114331129.31581444
1.67951	115329596.5959238
1.68211	115816359.94891526
1.6847	115800157.38970968
1.68728	115130860.55758527
1.68987	114728305.51340899
1.69245	115455228.18203737
1.69503	113539424.41960493
1.6976	111739450.84389766
1.70018	114652221.35341763
1.70275	115842773.28742714
1.70531	116216402.13815425
1.70788	116049536.7615236
1.71044	114610646.63405098
1.713	115173522.26408388
1.71556	116070709.8027265
1.71811	115463324.286156
1.72066	114764353.86665915
1.72321	114140762.74555585
1.72575	115097172.50447206
1.7283	114934758.61038645
1.73084	113005775.05264397
1.73337	113876015.88386895
1.73591	115573802.61519334
1.73844	115015079.93969606
1.74097	113382979.81980103
1.74349	112739987.55166896
1.74602	113843763.83573073
1.74854	115314421.16359296
1.75105	113543236.55916557
1.75357	100698197.02869068
1.75608	97732828.12810202
1.75859	96972328.01256445
1.7611	101638033.85451727
1.7636	107380124.78908731
1.7661	104075776.6814755
1.7686	107252215.85696699
1.7711	113247755.83776732
1.77359	107688144.2664909
1.77608	88851740.13900663
1.77857	82464608.81800592
1.78105	82045139.89047639
1.78354	85821799.1482044
1.78602	83406177.70366187
1.78849	89255453.45144083
1.79097	93045492.6591765
1.79344	92685805.14190626
1.79591	97647057.89593014
1.79837	100704759.95911574
1.80084	92468451.1090816
1.8033	97567516.76851068
1.80576	102949380.53438908
1.80821	98826949.34171747
1.81067	95303205.45560035
1.81312	97845700.96726108
1.81557	100722344.4277421
1.81801	87562028.6345981
1.82046	88565680.3463084
1.8229	93042617.97548033
1.82533	103201721.05420776
1.82777	100024740.40180394
1.8302	97891849.14317738
1.83263	87985008.40883476
1.83506	71292171.05575465
1.83749	84179004.50726384
1.83991	100572924.10652879
1.84233	107766179.16111603
1.84475	105659532.1199773
1.84716	100256378.89153636
1.84957	103050805.84343657
1.85198	109682519.50784577
1.85439	107675877.11294112
1.8568	102122197.82009211
1.8592	97736180.85260132
1.8616	80869655.76339936
1.864	66446940.5967182
1.86639	61483038.85166598
1.86878	65514856.59920354
1.87118	83162643.81971617
1.87356	90302854.26253955
1.87595	91994780.55785051
1.87833	96030652.05011627
1.88071	101121239.4154395
1.88309	96542232.64979696
1.88547	94566484.36086087
1.88784	101502748.78602935
1.89021	106596126.77672441
1.89258	97513158.96686421
1.89494	92050110.05864635
1.89731	95451089.83951065
1.89967	98311195.9124569
1.90203	101961999.51695065
1.90439	102627107.36888108
1.90674	106481498.03611562
1.90909	111019657.0586291
1.91144	111209518.76710047
1.91379	111323680.39737988
1.91613	112152071.63738285
1.91848	112661740.40099724
1.92082	111649293.73266414
1.92315	108594632.43152682
1.92549	106066114.51831049
1.92782	109410345.99362542
1.93015	112177481.55761987
1.93248	106938397.10819188
1.93481	94430559.65168999
1.93713	88266986.63384044
1.93945	94006241.18188101
1.94177	101018070.66494888
1.94409	99096284.52299313
1.94641	101835313.74790154
1.94872	109767457.3513053
1.95103	111382269.95618133
1.95334	106615524.65620032
1.95564	96080359.87419574
1.95795	94369083.16865408
1.96025	98307644.21317567
1.96255	98823552.4686991
1.96484	95624618.71857834
1.96714	94558181.553081
1.96943	98639382.36248302
1.97172	105078320.45274845
1.97401	105263505.77744916
1.97629	101834505.01829983
1.97858	101270978.73628959
1.98086	98082191.11020829
1.98314	95463311.91401537
1.98541	97713319.83480968
1.98769	104067558.84717299
1.98996	108804093.6765961
1.99223	108365113.56876501
1.9945	110216530.9313911
1.99677	111162929.19170171
1.99903	105940084.28219351
2.00129	101522554.79246973
2.00355	105212475.4459842
2.00581	107404963.2522531
2.00806	103696978.69779946
2.01031	100546927.50769639
2.01256	103816085.83973785
2.01481	107602226.14892522
2.01706	106418221.88741252
2.0193	104374556.46871702
2.02154	106194438.15173876
2.02378	108049688.84354362
2.02602	105145634.41841355
2.02825	104070587.75414263
2.03049	108658954.36162648
2.03272	110178926.56535587
2.03494	103989180.5237947
2.03717	96534886.80377911
2.03939	97859097.64865102
2.04162	106197781.9679805
2.04384	110866195.94400136
2.04605	108780955.39811306
2.04827	105312957.93456851
2.05048	106350472.7442124
2.05269	109031872.44472653
2.0549	111723109.81225166
2.05711	113391648.79607615
2.05931	111706482.38906102
2.06151	107181754.76083556
2.06371	106181393.55314153
2.06591	109814990.6535249
2.06811	111801153.76591706
2.0703	110590880.12256126
2.07249	110520026.4904582
2.07468	111632410.6942057
2.07686	112007032.87076806
2.07905	111992759.556586
2.08123	112076529.62306835
2.08341	112044552.97457592
2.08559	112025515.70012403
2.08776	112099550.94195966
2.08994	111712089.6992197
2.09211	110905429.48080601
2.09428	110129833.77383652
2.09645	110502839.53467661
2.09861	111983918.35845771
2.10077	112930615.53001226
2.10293	113070254.25877999
2.10509	112861111.35786447
2.10725	112520654.41577238
2.1094	112274129.12944506
2.11155	112080519.90889253
2.1137	111313156.45015775
2.11585	110472976.6731458
2.11799	110129779.54304923
2.12013	110386464.65740108
2.12227	111490788.00395414
2.12441	112483721.08881882
2.12655	112523413.68502566
2.12868	112000165.83740413
2.13081	111973870.14965121
2.13294	112440817.42896236
2.13507	112623187.50651039
2.13719	112510224.28356358
2.13931	112536762.3274344
2.14143	112756695.29122935
2.14355	112702888.13269012
2.14567	112404020.45399636
2.14778	112199755.26213305
2.14989	111512332.83213507
2.152	110045533.83316158
2.1541	109635392.74799459
2.15621	110833566.43352467
2.15831	111518249.21963263
2.16041	111114567.38285609
2.16251	110673489.34535639
2.1646	110625652.24757126
2.1667	110786355.87326093
2.16879	111228695.36395045
2.17087	111615522.45761123
2.17296	111574870.8298498
2.17504	111351186.92712803
2.17713	111178539.93135856
2.1792	111198849.49527507
2.18128	111365321.03665069
2.18336	111480226.02819423
2.18543	111447050.81337793
2.1875	111260685.11082865
2.18957	111088424.88736476
2.19163	110835801.40570675
2.1937	110204063.11888811
2.19576	109615519.23124059
2.19782	109670720.0275877
2.19987	110082358.33200131
2.20193	110105579.17908205
2.20398	109842168.7403442
2.20603	109622845.34276599
2.20808	109750121.7741756
2.21012	109974216.45360605
2.21217	109595524.70046286
2.21421	108868462.64390066
2.21625	108546577.02636772
2.21828	108814095.22171777
2.22032	109329973.65778306
2.22235	109477492.51977776
2.22438	109008404.40656772
2.22641	108354204.6244563
2.22843	108067550.68631554
2.23046	108416292.70889069
2.23248	109005593.26999627
2.2345	109213174.37270431
2.23651	109030752.2107329
2.23853	108545112.5235612
2.24054	108030118.26763564
2.24255	107314892.0238818
2.24456	106734166.33477625
2.24657	106699021.52969079
2.24857	107200221.05923562
2.25057	107772098.66304097
2.25257	107995062.03286748
2.25457	108097972.594865
2.25656	108248745.0471381
2.25856	108419762.8758747
2.26055	108389419.82689734
2.26254	108176503.61544098
2.26453	107990074.06634231
2.26651	107943106.08470029
2.2685	107879300.37784281
2.27048	107580417.32029688
2.27246	107122219.31616405
2.27443	106763401.7801335
2.27641	106690769.48943746
2.27838	106859470.68994515
2.28036	106010785.82375756
2.28233	102557913.55329332
2.28429	100035822.23432417
2.28626	101395335.01114412
2.28823	104267012.6566403
2.29019	104638241.70070553
2.29215	104286626.96346155
2.29411	104635110.40633167
2.29607	105047941.4243645
2.29802	104608750.3715479
2.29998	103978317.06500983
2.30193	104269369.46961349
2.30388	105137917.16435497
2.30583	105762431.9299598
2.30778	105311016.02112761
2.30972	103180213.76149422
2.31167	99889971.49843915
2.31361	98418865.47698155
2.31555	100027497.70008972
2.31749	102221055.50309847
2.31943	102199463.38193028
2.32137	99961650.02579601
2.32331	97087376.10749657
2.32524	93665096.5882607
2.32718	90514877.32263269
2.32911	91097028.99363546
2.33104	95294713.99670064
2.33297	98771631.28824551
2.3349	100362047.72129808
2.33683	100093348.15556958
2.33876	98627954.17590831
2.34068	97934336.49500486
2.34261	98782641.35781398
2.34453	99992012.02997842
2.34646	100224536.50214732
2.34838	99073375.7014221
2.3503	96932012.7031602
2.35223	94518172.69214934
2.35415	93471073.17386985
2.35607	94897729.99534936
2.35799	97788893.68605645
2.35991	99793300.25145766
2.36183	100696857.21375786
2.36375	99129273.99738279
2.36566	92909661.72236492
2.36758	87966661.64931013
2.3695	89709111.81484273
2.37142	96294273.1816892
2.37334	99755932.17148335
2.37526	98035088.63558668
2.37718	92144329.5689981
2.3791	88544794.26831499
2.38101	90864506.37995584
2.38293	96033227.49382204
2.38485	98051724.54919326
2.38677	97594534.93592097
2.3887	95965500.18885294
2.39062	92290810.0424676
2.39254	89245980.70985459
2.39446	90277056.48047185
2.39639	94233826.95863664
2.39831	96852922.98319745
2.40024	97285811.36634232
2.40216	97248466.9364915
2.40409	96120984.5413735
2.40602	90530763.41115879
2.40795	80508080.96878709
2.40989	74790721.13265835
2.41182	77416587.86747244
2.41376	84066901.31011508
2.4157	89109562.78588891
2.41764	92278959.24473771
2.41958	92092756.47776903
2.42152	87100048.84149703
2.42347	82176771.51003361
2.42542	80509021.77813162
2.42737	80802675.4588698
