#wavelength	surface flux
0.676892	2056233.2453174314
0.678297	2068824.3012850503
0.679702	2144231.474261555
0.681109	2191626.804816808
0.682517	2239724.942921246
0.683926	2287903.2431295053
0.685337	2327482.2264928496
0.686749	2370713.7937002648
0.688164	2419780.390351421
0.689581	2467654.6909993454
0.691	2515591.821913067
0.692422	2564282.848040508
0.693847	2632476.7372240867
0.695274	2697620.9084510864
0.696705	2747086.8164625773
0.698139	2786879.140800788
0.699576	2849092.0130721712
0.701017	2908808.438995185
0.702461	2991626.1978418925
0.70391	3065745.368448116
0.705362	3120754.959585645
0.706819	3171763.0784076066
0.70828	3247686.2052165256
0.709745	3313454.615991915
0.711216	3380068.698375313
0.71269	3428688.0209249523
0.71417	3507930.610474477
0.715655	3601192.168024357
0.717145	3672265.775626114
0.71864	3751914.5037456597
0.72014	3820832.6180511704
0.721647	3902873.7771733804
0.723158	3977967.3116875333
0.724676	4069252.355308478
0.726199	4151225.110104106
0.727728	4213536.232413176
0.729264	4293878.694614388
0.730805	4394107.954511193
0.732353	4488671.778046118
0.733907	4274455.915206102
0.735468	4122897.7991252746
0.737035	4298997.604023547
0.738609	4158240.6833514157
0.74019	4165617.7011105088
0.741777	4129734.635081762
0.743372	4278032.440083827
0.744973	4184462.6398176574
0.746582	4309746.515337797
0.748197	4467544.497185786
0.74982	4660203.701123543
0.751451	4705296.274199494
0.753088	4959380.2183732195
0.754734	5130919.965604692
0.756386	5329974.773270693
0.758047	5465218.270262994
0.759715	5664981.205591005
0.76139	5838964.460125465
0.763074	5900920.294111937
0.764765	5291571.694917193
0.766464	2987900.3260002392
0.768172	4311047.209014414
0.769887	3682006.283972939
0.77161	5432490.550087097
0.773341	6475740.930935766
0.775081	6931663.608882498
0.776829	7177386.641759725
0.778585	7216426.383070314
0.780349	6186770.02885077
0.782121	7640322.9092892585
0.783902	7909467.016737459
0.785691	8070150.053027129
0.787489	8176516.257055213
0.789295	8291898.233880604
0.79111	8340448.527831746
0.792933	8305421.698790178
0.794764	8278561.916362196
0.796604	8568258.156805778
0.798453	8643549.963267282
0.80031	8928996.078402735
0.802176	8810177.820377063
0.804051	9059211.31669367
0.805934	9278840.92411391
0.807826	9617966.58076957
0.809727	10034142.473300481
0.811636	10351466.091986075
0.813554	10755904.693843108
0.81548	11121254.976923836
0.817416	11542518.916606579
0.81936	11619093.419189207
0.821313	12066450.88725421
0.823274	12600383.537541853
0.825244	12931336.849735431
0.827223	13094585.613364724
0.829211	13336219.77184091
0.831208	13618658.302163653
0.833213	13875646.61157628
0.835227	14215737.622475926
0.837249	14500398.82982291
0.83928	14849141.322354397
0.841321	15142532.5337163
0.843369	15127811.175188841
0.845427	15039786.73263798
0.847493	15310917.422439527
0.849567	15667807.777941335
0.851651	15823692.57117083
0.853742	14666573.964666639
0.855843	15083578.144391853
0.857952	15166884.766513791
0.86007	14580322.100879604
0.862196	15008881.433021314
0.864331	14892683.121957535
0.866474	15046065.683005802
0.868626	15127213.610235453
0.870786	15622460.940196605
0.872955	16129417.306306502
0.875132	16363430.746594511
0.877317	17059950.68595173
0.879511	18100655.766734254
0.881713	18612488.570148826
0.883923	19342971.92748629
0.886142	20283399.85427165
0.888369	20618826.294516288
0.890604	21679144.6206639
0.892847	22060802.913609907
0.895099	21679171.912906867
0.897358	23240910.260419372
0.899626	24150614.197440702
0.901901	25276672.62620863
0.904185	26329941.565250695
0.906476	26594076.7099184
0.908776	26610686.662401777
0.911083	27952402.98486755
0.913398	28906992.808584973
0.915721	32677787.76899653
0.918051	33377527.83225198
0.92039	32367814.633912664
0.922736	30077440.062256813
0.925089	30235045.268400993
0.927451	29611510.943309743
0.929819	29784312.583408196
0.932195	30368030.34721016
0.934579	30272941.314100243
0.93697	31847733.58776206
0.939369	32257706.656009845
0.941774	33648401.60359009
0.944187	33976601.102420196
0.946607	37771028.12990344
0.949035	38550441.89471815
0.951469	38468514.7629086
0.953911	40348363.46594715
0.956359	42957220.01514207
0.958814	42951723.4658842
0.961277	42225163.361035995
0.963746	41663210.824664176
0.966222	43267139.81391002
0.968705	44915545.18330678
0.971194	44941809.12195553
0.97369	46172561.95425358
0.976193	46445034.61198106
0.978702	49025898.00049362
0.981217	48536245.874325804
0.983739	49359627.23999842
0.986268	54500170.23696985
0.988802	50369897.13837614
0.991343	43442362.56830621
0.99389	46371388.37371175
0.996444	50223322.717338815
0.999003	45278150.21815587
1.00157	49732105.82410372
1.00414	50737556.09852343
1.00672	50656358.135614626
1.0093	51805850.69211098
1.01189	52221168.090893656
1.01448	52942567.35852197
1.01708	50570279.66317586
1.01969	58192304.65750806
1.0223	59021619.47286791
1.02492	57096567.06893674
1.02754	53182847.504346125
1.03017	60284846.849844985
1.0328	64451568.054510586
1.03544	64900230.37002262
1.03808	67176993.38938609
1.04073	71364627.63742298
1.04339	69680473.53069232
1.04604	70426799.12059739
1.04871	72645136.73057427
1.05138	70374965.22075944
1.05405	72540950.13661718
1.05673	70022304.69652297
1.05941	74888179.57863379
1.0621	76837369.37670897
1.06479	79671405.0874444
1.06749	82601016.51618615
1.07019	96318988.46387944
1.07289	95725663.61092927
1.0756	95175199.26767588
1.07832	97589163.89585197
1.08104	87194831.15902948
1.08376	103805922.777772
1.08649	91576289.38683657
1.08922	104378074.2172617
1.09195	95845621.55273233
1.09469	104444777.49304716
1.09743	93220467.54418384
1.10018	92772261.37067051
1.10293	96178636.4484879
1.10568	89875592.42561932
1.10844	90984967.0666461
1.1112	94735615.32411785
1.11396	94561571.48256466
1.11673	95921633.46514288
1.1195	97191617.95631823
1.12228	96334895.5843316
1.12505	106058110.52826339
1.12783	103553941.54938968
1.13062	110452088.83893546
1.13341	101346780.8622207
1.1362	99738302.20773707
1.13899	94390198.86457653
1.14178	101900885.37893827
1.14458	111468826.64082873
1.14738	117881707.69907932
1.15019	131654101.3805427
1.153	126943439.31097643
1.1558	123038324.99268734
1.15862	131271484.39902367
1.16143	110192073.08796446
1.16425	117142716.1536796
1.16707	117042961.85990044
1.16989	101747665.2070649
1.17271	119532800.30922884
1.17554	107880966.60776486
1.17837	97551564.47641395
1.1812	122042303.19681777
1.18403	135013321.35421103
1.18686	125621528.7664552
1.1897	130053060.89851913
1.19253	128528264.58515182
1.19537	136967019.040301
1.19822	126585365.7842243
1.20106	146014065.14626315
1.2039	138125931.5991111
1.20675	145317910.81835392
1.2096	147980843.19727737
1.21245	151933749.60244843
1.2153	162901987.0054359
1.21815	161281627.87361228
1.221	161428217.85624492
1.22385	158720320.85321975
1.22671	181635380.703327
1.22957	168185453.05353865
1.23242	176518822.42464563
1.23528	172340093.08310336
1.23814	180225161.66283423
1.241	157605571.97552356
1.24387	150591454.94428042
1.24673	177923890.45768318
1.24959	170448483.26629037
1.25245	147297705.58941343
1.25532	162125047.85098156
1.25818	181398762.4946379
1.26105	185203661.93207532
1.26392	179043602.28285372
1.26678	195927312.1390334
1.26965	209538186.76121148
1.27252	202084266.53995872
1.27538	204669457.24436954
1.27825	195423214.74970502
1.28112	200285608.94692183
1.28399	200468916.26032484
1.28686	200583277.06555137
1.28973	197432369.8968717
1.2926	198296117.74274758
1.29546	207403967.57713962
1.29833	213087416.673448
1.3012	217691066.43840575
1.30407	217438292.19893643
1.30694	197572124.6811621
1.30981	211478770.90150636
1.31267	210847176.28035775
1.31554	203854965.58029568
1.31841	216970593.82373393
1.32128	220867660.18805584
1.32414	194654817.36832473
1.32701	180902119.51716524
1.32987	185194791.83168915
1.33274	141954070.22537264
1.3356	137726019.71994826
1.33847	116062034.70504491
1.34133	103357329.73317161
1.34419	117626055.88345923
1.34705	119826799.891011
1.34991	138971154.76037255
1.35277	150092491.87675956
1.35563	125875822.55921447
1.35849	124943990.16467002
1.36135	117752911.17000532
1.3642	124491786.21110354
1.36706	127191614.02734275
1.36991	133450546.8123624
1.37277	130572503.98911195
1.37562	131892004.31559141
1.37847	123466653.04919542
1.38132	122127220.00832468
1.38417	101177779.26828341
1.38701	99239643.27495608
1.38986	131141280.65139316
1.39271	128856261.53818563
1.39555	129939985.47348797
1.39839	142724311.73818538
1.40123	138497955.69008258
1.40407	131230664.24151994
1.40691	122746668.05280285
1.40974	101012234.62859075
1.41258	125367366.22732215
1.41541	133694761.9916442
1.41824	117042633.82231481
1.42107	113750413.94507724
1.4239	118115818.34872155
1.42673	120480903.91924623
1.42955	129746407.29726446
1.43237	130405097.90340684
1.43519	125670095.02160028
1.43801	142795125.27649748
1.44083	143753161.20754787
1.44365	135929945.40922576
1.44646	137217039.60058385
1.44927	143852517.28688392
1.45208	146015888.82714748
1.45489	139195076.90573248
1.45769	149171645.5962647
1.4605	146724708.97219098
1.4633	127231643.88236587
1.4661	128496506.75913276
1.4689	124708902.34667408
1.47169	136496490.75254136
1.47449	134383000.8315004
1.47728	139700651.1385791
1.48007	138697872.15753508
1.48286	146969002.51238918
1.48564	148831226.80377468
1.48842	145444599.91184038
1.4912	144880211.32640964
1.49398	153936289.53229496
1.49676	148440482.70637667
1.49953	145549995.91443244
1.5023	146442626.70430192
1.50507	164244600.64780593
1.50784	166580040.32865036
1.51061	171657667.82205564
1.51337	165009161.74853954
1.51613	166588514.93023193
1.51888	164826365.364725
1.52164	160963190.28106377
1.52439	169887606.52399617
1.52714	161251080.8722166
1.52989	162193742.1633587
1.53263	174899548.35773993
1.53538	177160998.94488516
1.53812	167612708.25017267
1.54086	157561042.9937216
1.54359	172852929.50464764
1.54632	187965089.18203837
1.54905	175156431.32811213
1.55178	182930178.33082426
1.5545	192400382.64909536
1.55723	187447943.35081542
1.55995	183532370.7508857
1.56266	184837475.35472405
1.56538	187701604.81983265
1.56809	202211106.91984138
1.5708	207978570.9649717
1.57351	205029504.6180622
1.57621	220894817.3643922
1.57891	219200445.55296972
1.58161	209250258.4124557
1.5843	202240002.21058235
1.587	217549690.56267828
1.58969	225665480.09047154
1.59238	218059895.6533375
1.59506	225639343.5673007
1.59774	228092259.95583636
1.60042	234696808.12381837
1.6031	249990433.5669288
1.60577	242005453.12562677
1.60844	230799200.73205113
1.61111	241047416.17182347
1.61378	247842631.8459309
1.61644	250499107.70017183
1.6191	256849223.4237066
1.62176	254766085.77403456
1.62441	254738781.26727712
1.62707	252962585.10450333
1.62971	256926381.7416376
1.63236	264944294.3795959
1.635	265207717.8492282
1.63764	261580732.3331203
1.64028	259812681.52530876
1.64292	266956814.76528102
1.64555	275486928.54463774
1.64818	270732871.22073364
1.65081	257197261.90595418
1.65343	278972221.8384503
1.65605	280785030.30412793
1.65867	263602396.81092545
1.66128	273442595.16767865
1.6639	288440429.38767636
1.66651	279976181.439866
1.66911	284209457.44316727
1.67172	286072310.87524647
1.67432	283891448.9562033
1.67692	277325771.1390857
1.67951	292053741.6587928
1.68211	299543804.13461363
1.6847	293893201.3058972
1.68728	281402849.58961385
1.68987	281587987.7889019
1.69245	278118602.297915
1.69503	263435896.56677526
1.6976	249237017.58430603
1.70018	254461005.55626866
1.70275	270292796.6632448
1.70531	272912368.39851934
1.70788	276365218.2042534
1.71044	255585313.03999826
1.713	243971836.17453575
1.71556	248076002.77028358
1.71811	240246583.68949482
1.72066	237212763.57352388
1.72321	228310579.65946463
1.72575	231674297.74075297
1.7283	230086286.43530396
1.73084	218839192.37383327
1.73337	215158753.70252222
1.73591	225309675.9007843
1.73844	224776619.03802216
1.74097	211188515.31998032
1.74349	203504542.13287678
1.74602	205839556.61656213
1.74854	221346846.3190185
1.75105	220955884.54400906
1.75357	188302752.371538
1.75608	166351154.6066843
1.75859	158246733.93870464
1.7611	171094646.7492608
1.7636	179573841.4388263
1.7661	171095305.65866613
1.7686	178342931.6550777
1.7711	191719808.04704604
1.77359	178401819.46797663
1.77608	149139129.74088237
1.77857	146806178.68188375
1.78105	147785766.76114267
1.78354	148594216.34837618
1.78602	144912705.1243403
1.78849	158434624.5645808
1.79097	161351448.30589172
1.79344	156344878.45063242
1.79591	164502423.62269032
1.79837	166129925.94935685
1.80084	149036492.81598622
1.8033	160607030.28403285
1.80576	164711124.41051292
1.80821	155879247.3491144
1.81067	158085294.33007565
1.81312	163042689.93522012
1.81557	165471761.5938456
1.81801	142685926.91716322
1.82046	144061892.4950876
1.8229	155601408.76425442
1.82533	167712085.75492007
1.82777	158315725.07903302
1.8302	156531198.83533636
1.83263	143261806.75813112
1.83506	119787863.81499782
1.83749	135493296.85103855
1.83991	157987463.67227548
1.84233	166394798.14833313
1.84475	161321134.85723457
1.84716	154086938.5837971
1.84957	160404316.34031454
1.85198	169132983.1562936
1.85439	162220005.9637991
1.8568	151833370.69938698
1.8592	147728228.33758512
1.8616	132592668.36920336
1.864	122055569.05938317
1.86639	119827588.45090097
1.86878	121351440.86842094
1.87118	141074286.42827585
1.87356	147716905.647786
1.87595	148870343.46949333
1.87833	156619815.95422697
1.88071	168911791.66164008
1.88309	167996267.0516027
1.88547	162320792.0692635
1.88784	166197620.15350914
1.89021	168288971.84627345
1.89258	154869783.07684755
1.89494	149216287.52319163
1.89731	151729788.4210109
1.89967	153484213.34729734
1.90203	162282447.96838048
1.90439	163375598.5998493
1.90674	168476267.81105262
1.90909	178783551.2597882
1.91144	178598749.64708912
1.91379	177203986.20347354
1.91613	177534177.09217462
1.91848	181242585.32417136
1.92082	180071815.9235663
1.92315	172517987.9680304
1.92549	167369104.1935885
1.92782	172195399.7848687
1.93015	178307086.93810824
1.93248	172265665.12117356
1.93481	152365833.02598006
1.93713	141044998.8615367
1.93945	149585491.12317297
1.94177	161790004.87963083
1.94409	160455981.31835648
1.94641	163795979.7848613
1.94872	175229854.4384291
1.95103	178810362.14046237
1.95334	173675228.18289644
1.95564	157521655.38950694
1.95795	152149863.62841675
1.96025	157000580.23084748
1.96255	158021318.09892994
1.96484	152839510.24015585
1.96714	149557604.29492238
1.96943	153533586.29372022
1.97172	164673258.3246198
1.97401	164718968.34352905
1.97629	158084302.77427566
1.97858	159364175.92360735
1.98086	154333489.80192095
1.98314	148879034.80867085
1.98541	153414520.8123918
1.98769	165085761.96978685
1.98996	171781424.11665773
1.99223	171890930.59743556
1.9945	177415961.80485904
1.99677	179468480.1819732
1.99903	169359398.70299202
2.00129	158023782.78178105
2.00355	159873353.20341533
2.00581	162494982.4373303
2.00806	156678890.2225029
2.01031	154320463.04334116
2.01256	165741012.68893552
2.01481	173158508.4541331
2.01706	164291120.80393112
2.0193	156736371.9733255
2.02154	163225939.48042905
2.02378	170758687.51603034
2.02602	164023012.03320754
2.02825	160668940.16029415
2.03049	172201224.5276023
2.03272	175446802.79483002
2.03494	159483441.11969727
2.03717	144437435.78920478
2.03939	149666127.05685228
2.04162	165508191.44467232
2.04384	175243017.9715311
2.04605	173333185.47958064
2.04827	165331760.09437597
2.05048	166876701.02772683
2.05269	173751532.13286474
2.0549	183517548.4449257
2.05711	191634164.12938476
2.05931	188414254.2686137
2.06151	177490291.8850765
2.06371	171756306.037492
2.06591	176567738.1613516
2.06811	179777896.06226295
2.0703	174967652.07883254
2.07249	177472379.35421368
2.07468	183666758.69717818
2.07686	183730759.51371083
2.07905	182503458.46779397
2.08123	182446794.01571384
2.08341	182630661.33867347
2.08559	182814515.42894188
2.08776	182318918.65518522
2.08994	180926462.6457846
2.09211	178458104.9066983
2.09428	174301228.0805056
2.09645	174734570.79863364
2.09861	182320297.00926644
2.10077	188551272.7427868
2.10293	190419834.6404193
2.10509	190624769.52945438
2.10725	190748431.55682835
2.1094	191101982.07146546
2.11155	189723448.90627474
2.1137	185091005.48768905
2.11585	181255457.78013134
2.11799	178723371.62906137
2.12013	178181685.4591478
2.12227	185065683.4999537
2.12441	195129309.3275703
2.12655	196292981.06812307
2.12868	190557699.35422358
2.13081	191169196.36676782
2.13294	198777566.9976157
2.13507	202800588.96842858
2.13719	201135877.1208609
2.13931	201621877.2094089
2.14143	206799766.40836054
2.14355	208420043.37054795
2.14567	205608735.6491814
2.14778	204259820.91571397
2.14989	201576039.60932866
2.152	195483218.8014802
2.1541	193304097.27582157
2.15621	197764110.20339522
2.15831	199484708.2036711
2.16041	195684277.39457464
2.16251	193539438.57176358
2.1646	194732481.0832915
2.1667	197484485.51584467
2.16879	202196027.42493024
2.17087	205821376.6768444
2.17296	205771233.68241104
2.17504	203128262.4464276
2.17713	202373020.4188897
2.1792	206231209.1114783
2.18128	211002337.02734303
2.18336	213614141.14212286
2.18543	212922106.30325136
2.1875	209763077.32368302
2.18957	207875012.34597328
2.19163	206262494.00722104
2.1937	202434895.9991831
2.19576	199534337.27901068
2.19782	200894510.33778554
2.19987	203985765.40381882
2.20193	203570003.63841128
2.20398	201998351.2818711
2.20603	201901191.52502844
2.20808	204405418.277546
2.21012	207626084.9769752
2.21217	206606491.9855642
2.21421	204071889.921561
2.21625	202629928.566252
2.21828	201442063.87144843
2.22032	202574647.3286434
2.22235	203817143.71496812
2.22438	200744076.76494116
2.22641	195737126.6681193
2.22843	193722623.9048471
2.23046	197393021.59856427
2.23248	202447561.9898216
2.2345	203915161.61553025
2.23651	202765527.28117362
2.23853	199492195.04956546
2.24054	197631206.71032023
2.24255	196252298.1992056
2.24456	194246312.63910392
2.24657	192710830.08477736
2.24857	193631336.76513115
2.25057	197460073.29841408
2.25257	200355875.61967164
2.25457	201576009.94711533
2.25656	201983978.00704366
2.25856	203716295.56190243
2.26055	204385506.60576192
2.26254	201025813.03329298
2.26453	198044637.07499474
2.26651	199708665.4777454
2.2685	202238104.3083046
2.27048	200154275.99386796
2.27246	195250205.43927997
2.27443	192158908.0775682
2.27641	192291436.96349058
2.27838	194835568.1822802
2.28036	197067744.6741868
2.28233	192368219.8440207
2.28429	186375330.40638918
2.28626	186144004.59871545
2.28823	187464625.61283004
2.29019	182465426.39097342
2.29215	177605774.35328257
2.29411	176985113.3159973
2.29607	178109406.6183256
2.29802	177158332.0592386
2.29998	174610819.6108792
2.30193	176789157.38144788
2.30388	183103511.32278088
2.30583	188592672.7344625
2.30778	187708674.3165468
2.30972	179856280.6950433
2.31167	169358505.20113388
2.31361	165532962.01905397
2.31555	170569508.06242806
2.31749	175979625.66799518
2.31943	173342199.00260708
2.32137	163068045.9314191
2.32331	153036734.7129678
2.32524	147359156.43535706
2.32718	144017804.3941596
2.32911	144570812.184137
2.33104	150335053.69759545
2.33297	156658723.92669022
2.3349	160885674.305466
2.33683	160648589.127839
2.33876	158358736.53052306
2.34068	159766743.10190186
2.34261	163021136.8910043
2.34453	164415050.90455508
2.34646	163480884.65221006
2.34838	159788618.8297509
2.3503	153212913.68909675
2.35223	147246772.07707962
2.35415	146057290.61260656
2.35607	149892555.4181168
2.35799	155353263.58790618
2.35991	158540993.33297375
2.36183	161504487.50873718
2.36375	162311661.64743227
2.36566	154248558.50541127
2.36758	144966283.14505956
2.3695	146064506.7146908
2.37142	157557212.37716603
2.37334	165267591.93504775
2.37526	162217566.50068942
2.37718	150960832.67478177
2.3791	143693729.09929994
2.38101	146409186.51042917
2.38293	153187796.9216722
2.38485	155449086.1034987
2.38677	156440375.57531098
2.3887	157393725.3271916
2.39062	153109399.72561404
2.39254	147453637.7039478
2.39446	147586222.07985225
2.39639	151910873.85670826
2.39831	152656558.0917595
2.40024	150163348.1744237
2.40216	149558588.8965745
2.40409	149458963.31289583
2.40602	142468685.45275688
2.40795	127709260.64155708
2.40989	117755084.26481813
2.41182	119865467.64645635
2.41376	129365816.23230845
2.4157	138179142.77001214
