#wavelength	surface flux
0.6450077295303345	398766.3936005033
0.6472567915916443	413539.5505025788
0.6494921445846558	428571.20758574543
0.6517150402069092	444072.55567126884
0.6539263725280762	460639.95243077073
0.6561272740364075	476925.42165604065
0.6583186388015747	493479.44480364735
0.6605015397071838	510355.0913432332
0.6626768708229065	525142.2674153508
0.6648455858230591	547289.6512397234
0.6670085787773132	566019.7815282051
0.6691668033599854	585001.7860256417
0.6713210344314575	593753.7167543622
0.6734722256660461	622898.2334259539
0.6756211519241333	642140.6675777913
0.6777685880661011	626092.69684745
0.6799154281616211	670547.6100942157
0.6820623278617859	696827.741394105
0.6842101216316223	719874.2310652047
0.6863595843315125	743104.6998119812
0.688511312007904	766332.4421749426
0.6906660795211792	789763.3155189045
0.6928245425224304	812178.9167017891
0.6949873566627502	835861.9371833252
0.6971551775932312	859372.0076970168
0.6993286609649658	883109.5816754363
0.7015084028244019	908376.5041148053
0.7036949396133423	935015.8573178955
0.7058889269828796	962002.4835013861
0.7080909013748169	989391.6954119691
0.710301399230957	1017306.2475643904
0.712520956993103	1023728.1396432153
0.7147500514984131	1070240.9905775872
0.7169892191886902	1102392.1581629512
0.7192389369010925	1139431.7364051547
0.7214996814727783	1173912.0966655896
0.723771870136261	1193174.434706809
0.7260559797286987	1238148.534087144
0.7283523678779602	1269223.9378483747
0.7306615710258484	1275500.2648164637
0.7329838871955872	1342911.1099167033
0.7353196740150452	1357404.2505879703
0.7376693487167358	1419688.843687493
0.7400332689285278	1464039.0529748995
0.7424117922782898	1512135.5347443174
0.7448052167892456	1556628.773031595
0.7472138404846191	1596121.4554406998
0.7496379613876343	1634007.1950010885
0.7520779371261597	1673320.8079584134
0.7545340061187744	1710814.422590528
0.7570064663887024	1675356.8931961816
0.7594954967498779	1787383.8095251976
0.7620013952255249	1812797.7809456578
0.7645244002342224	1481235.162982506
0.7670646905899048	293248.7252362121
0.7696225643157959	513375.4212550567
0.7721980810165405	1596549.3151676368
0.7747915983200073	2063073.0594222015
0.7774031162261963	2178757.2691855463
0.7800329327583313	1839033.088044444
0.7826811671257019	2320506.0970241856
0.7853479981422424	2387848.543703083
0.7880334854125977	2456320.4913443136
0.7907378077507019	2524204.8656711536
0.7934610247612	2582031.6767159435
0.7962033748626709	2641879.79283851
0.7989648580551147	2726218.8592873747
0.801745593547821	2804933.188754246
0.8045456409454346	2882475.540707082
0.8073651194572449	2956693.8702930026
0.8102040886878967	3029955.5586271137
0.8130625486373901	3105857.8382157474
0.8159406185150146	3189088.034679202
0.8188382983207703	3275011.1508882795
0.8217556476593018	3345672.7603645693
0.8246926665306091	3419678.9421373806
0.8276493549346924	3516479.2549810307
0.8306257724761963	3600943.540246376
0.8336219191551208	3712795.158226139
0.8366377949714661	3754166.2687671524
0.8396733403205872	3906745.2211500355
0.8427285552024841	3991982.641574483
0.8458034992218018	4103741.8993708426
0.8488980531692505	4223650.355279785
0.8520121574401855	4346577.227473141
0.8551458716392517	4464804.651976625
0.8582990765571594	4584397.5053151855
0.8614717125892639	4698047.832065921
0.8646637797355652	4846640.914190298
0.8678751587867737	4944497.210569274
0.8711057901382446	5083956.176720894
0.8743556141853333	5226083.147649871
0.87762451171875	5316476.733146386
0.8809124231338501	5425977.296441855
0.8842192888259888	5563763.572096585
0.8875449895858765	5695301.5990734575
0.8908893465995789	5830809.368098472
0.894252359867096	5733358.297007209
0.8976338505744934	6129996.4907409735
0.9010337591171265	6200769.1941584265
0.9044519662857056	6381639.287297245
0.9078882932662964	6426732.121957899
0.9113426208496094	6658952.440688126
0.914814829826355	6867952.943480423
0.9183048605918884	6964831.567107399
0.9218124747276306	7124800.07223435
0.925337553024292	7203379.706495912
0.9288799166679382	7208818.345651087
0.9324395060539246	7266762.3179766955
0.9360161423683167	7247914.473011429
0.9396095871925354	7867120.562725911
0.943219780921936	7555905.318662553
0.9468464851379395	8097442.300814852
0.9504896402359009	7272795.151280188
0.9541489481925964	8640983.607229015
0.9578243494033813	8795388.020586986
0.9615156054496765	8649052.839276046
0.9652225375175476	8868068.245112507
0.9689450263977051	9320324.806818403
0.9726828336715698	9510141.618502734
0.9764357805252075	9789194.042937016
0.9802037477493286	9987526.194247412
0.983986496925354	10219386.472327977
0.9877838492393494	10461990.70291972
0.9915955662727356	10550251.314243535
0.9954215884208679	10841439.668723663
0.9992615580558777	11017978.278761474
1.0031154155731201	11264733.140825892
1.0069829225540161	11550108.363141393
1.0108637809753418	11753495.27369845
1.0147579908370972	11970046.548660016
1.018665075302124	12179074.25805351
1.022585153579712	12419990.463767676
1.0265177488327026	12664382.858590156
1.0304628610610962	12877556.534620343
1.0344202518463135	13115825.209841873
1.0383895635604858	13361025.406060556
1.0423706769943237	13605346.506086443
1.0463634729385376	13878193.388169559
1.0503677129745483	14102420.561189253
1.0543830394744873	14342135.201181032
1.058409333229065	14591093.840784697
1.0624464750289917	14843664.045705829
1.0664942264556885	15065883.024239277
1.0705522298812866	15316349.46667511
1.0746204853057861	15593063.308996454
1.0786986351013184	15861801.259195713
1.0827864408493042	16153466.579831392
1.086883783340454	16388105.822528468
1.0909905433654785	16641457.314575307
1.0951062440872192	16899052.041135315
1.0992310047149658	16801127.585865468
1.10336434841156	17457769.076135986
1.1075061559677124	16693673.783089198
1.1116561889648438	17972618.755080145
1.115814208984375	15315624.87224181
1.1199802160263062	17130096.295063104
1.124153733253479	18517462.242580533
1.1283347606658936	18341080.917412084
1.1325229406356812	18264390.994557362
1.1367181539535522	18540729.619262934
1.1409201622009277	19881407.900298193
1.145128846168518	19461212.60116506
1.1493438482284546	20341597.618721005
1.1535650491714478	20793388.196599867
1.1577922105789185	20872874.78376887
1.1620250940322876	17890587.19264941
1.1662636995315552	21015333.54784681
1.170507550239563	21614164.746023558
1.174756646156311	21995068.452915337
1.1790107488632202	22136862.741600692
1.1832695007324219	22808880.12317289
1.1875330209732056	22226546.78970181
1.191800832748413	23330854.509142745
1.1960728168487549	23730122.445609406
1.2003488540649414	24154353.7125566
1.2046287059783936	24468298.97657473
1.2089121341705322	24505065.63134676
1.2131990194320679	25065217.626080625
1.2174891233444214	25349153.6685846
1.2217823266983032	25666433.727706235
1.2260783910751343	25932187.507412452
1.230377197265625	26203343.4627264
1.2346785068511963	26624300.66202858
1.238982081413269	26821795.365489114
1.2432878017425537	27194598.917237416
1.2475954294204712	27460359.93963181
1.2519049644470215	27784789.511971634
1.256216049194336	28099576.454914376
1.2605286836624146	28412775.38335504
1.2648425102233887	28692359.645635642
1.2691574096679688	29012106.338232037
1.2734732627868652	29328999.549158618
1.2777899503707886	29550879.379202068
1.2821072340011597	29829631.255240384
1.2864248752593994	30207668.196519338
1.2907428741455078	30528732.52385288
1.2950609922409058	30206873.683861535
1.2993791103363037	30928118.992690377
1.303696870803833	28899383.187412374
1.3080145120620728	29928371.215497516
1.3123314380645752	31623373.400708064
1.3166478872299194	31569270.93207522
1.3209635019302368	31863968.13950211
1.3252781629562378	32628135.457963992
1.3295916318893433	32659887.896323897
1.3339040279388428	27709332.423750006
1.3382149934768677	27082225.343804363
1.3425244092941284	28352651.126833145
1.3468321561813354	26390089.92316578
1.3511382341384888	33723436.05083404
1.3554422855377197	30543856.690906323
1.3597444295883179	27575386.745060857
1.3640443086624146	27063530.59331439
1.3683418035507202	30610676.596935134
1.3726370334625244	29747935.196558163
1.3769296407699585	31110094.978713877
1.381219506263733	26393369.289028235
1.3855066299438477	11117215.465429984
1.3897908926010132	32563364.573253978
1.3940720558166504	33827105.94927099
1.3983501195907593	35515121.30390944
1.4026249647140503	32837090.96146485
1.4068963527679443	29607896.412165903
1.4111642837524414	24760728.109959505
1.4154287576675415	31989553.48850487
1.419689416885376	26008439.199246645
1.4239463806152344	24638841.88780672
1.4281994104385376	27361515.463634595
1.4324485063552856	32584229.9945388
1.436693549156189	31418673.452497
1.440934419631958	37934066.06709435
1.4451709985733032	37254152.25181943
1.449403166770935	39040482.4047436
1.453631043434143	34841156.310287714
1.4578542709350586	39898977.10057654
1.4620729684829712	35332254.881368965
1.4662868976593018	34053666.442880586
1.4704961776733398	34107697.79821894
1.4747005701065063	33589576.60493213
1.4788999557495117	35220184.78735069
1.4830944538116455	36949692.97854512
1.4872838258743286	37211307.69550869
1.491468071937561	41506270.652553625
1.4956470727920532	42976035.04595223
1.4998208284378052	39961714.427726835
1.5039892196655273	41506059.02906692
1.5081522464752197	45062271.97830699
1.5123097896575928	43532643.03593082
1.5164618492126465	43360279.53344103
1.5206083059310913	41560748.22496808
1.5247491598129272	44438033.39088962
1.5288842916488647	37873909.79020231
1.5330137014389038	46920211.684712835
1.5371372699737549	45937218.76400311
1.541254997253418	44803255.508173026
1.545366883277893	47028190.62352413
1.5494728088378906	48213025.422918625
1.5535727739334106	47727938.608645976
1.5576666593551636	46368424.10262975
1.561754584312439	47853623.01304396
1.5658363103866577	49155142.42506808
1.5699119567871094	48761345.96715859
1.5739814043045044	48974368.66499195
1.5780447721481323	49069989.40232669
1.582101821899414	49681829.96606526
1.5861525535583496	49783198.63723603
1.5901970863342285	49844844.16778739
1.5942351818084717	50123588.04761403
1.5982669591903687	49902453.62968668
1.6022924184799194	49961820.449261725
1.606311559677124	50347384.370704204
1.6103241443634033	50597859.72962267
1.6143304109573364	50650161.710696764
1.6183301210403442	50681503.6591987
1.6223233938217163	50924103.247744516
1.6263102293014526	51057224.66236022
1.6302905082702637	51206890.89563799
1.634264349937439	51304948.18790757
1.638231635093689	51533085.721251935
1.6421923637390137	51835547.96917383
1.646146535873413	51720073.822913684
1.6500942707061768	51029836.21605778
1.6540353298187256	51968913.09856707
1.6579699516296387	50919611.511624746
1.661897897720337	51380858.773737006
1.6658192873001099	52580116.93132888
1.6697341203689575	52676422.074143045
1.6736423969268799	52841731.56674646
1.677544116973877	52689089.616347924
1.6814392805099487	52968133.89139331
1.6853278875350952	53232945.10471918
1.6892099380493164	52419729.64301699
1.6930854320526123	53322914.78595763
1.696954369544983	49162246.93523215
1.7008168697357178	53781186.069457486
1.7046726942062378	54202172.36096788
1.708522081375122	54106793.77182059
1.712364912033081	54425118.28544384
1.7162011861801147	54647589.17560735
1.7200311422348022	54621622.96748323
1.723854422569275	54427577.81556464
1.7276713848114014	54928030.23071567
1.731481909751892	53297960.650171585
1.7352858781814575	55548928.03098849
1.7390835285186768	55075017.99832972
1.7428747415542603	54692146.44341428
1.7466596364974976	55761422.17024926
1.7504380941390991	55022220.33794682
1.7542102336883545	45588798.7405734
1.7579760551452637	44206241.77671098
1.7617355585098267	48964839.78023077
1.7654887437820435	53048718.646245904
1.7692357301712036	54896214.801447034
1.7729763984680176	54684203.533639506
1.776710867881775	39854640.27912986
1.7804391384124756	35134958.520205714
1.7841613292694092	38476662.84334652
1.7878772020339966	40515098.80295551
1.7915871143341064	45734940.55050784
1.7952908277511597	46915220.92953726
1.7989884614944458	49487333.9661396
1.8026801347732544	46056234.326856546
1.806365728378296	51301164.02195162
1.8100452423095703	46533847.94901467
1.8137187957763672	48304504.374531
1.817386507987976	43820827.016755484
1.8210482597351074	43748302.05356739
1.8247040510177612	50786109.20760754
1.828354001045227	49122117.0112755
1.8319982290267944	43797272.613753766
1.8356364965438843	32578867.2766298
1.8392690420150757	49950372.94694864
1.8428958654403687	56955462.21483675
1.8465168476104736	53059892.00308165
1.8501322269439697	54081323.604893066
1.8537418842315674	57639106.87644434
1.8573459386825562	54567430.375894226
1.860944390296936	40477496.95680925
1.864537239074707	25306463.514200397
1.8681244850158691	27524603.593482234
1.871706247329712	42358797.12517504
1.8752825260162354	45876448.278794065
1.8788533210754395	48970769.37763246
1.8824186325073242	46402240.79412924
1.8859784603118896	44899776.21812754
1.8895330429077148	54979920.76005056
1.8930821418762207	48402990.49335933
1.8966259956359863	46773219.171111226
1.9001644849777222	50535434.98753301
1.9036977291107178	53887719.09636918
1.9072256088256836	57238892.86841068
1.9107483625411987	59516915.02417143
1.9142658710479736	59840436.29115839
1.9177782535552979	60055959.43869663
1.9212853908538818	58564820.45222675
1.9247875213623047	52491638.34432139
1.9282845258712769	57735685.56003741
1.9317764043807983	56814139.20957841
1.9352631568908691	42725646.157679394
1.9387450218200684	47984896.17022207
1.942221760749817	52106468.30196495
1.9456936120986938	48950765.86273163
1.9491604566574097	57188317.98546703
1.952622413635254	56372517.87953776
1.956079363822937	49340220.63653793
1.959531545639038	48432669.07552825
1.962978720664978	50886320.832270816
1.966421127319336	48868391.968295544
1.9698586463928223	52623246.10470795
1.9732913970947266	56710343.696821004
1.9767193794250488	53649920.348020606
1.9801424741744995	50892788.076982655
1.9835609197616577	48591117.40054506
1.9869745969772339	52871616.027168
1.990383505821228	59472745.17780337
1.9937876462936401	59286687.62905058
1.9971871376037598	59132938.36546606
2.000581979751587	53116477.62842297
2.003972291946411	57922816.10391306
2.007357597351074	59187916.2298253
2.0107386112213135	54960971.928567395
2.0141148567199707	55966397.70674779
2.017486572265625	57914498.45316641
2.0208535194396973	57595791.47459476
2.0242159366607666	57272369.8297187
2.027573823928833	56282715.076486774
2.0309269428253174	59738712.77389074
2.034275770187378	57928684.40049658
2.0376198291778564	50668475.98077268
2.040959596633911	54929363.25898271
2.044294595718384	60580158.14553413
2.0476250648498535	57873833.452905685
2.0509510040283203	58337930.20643
2.054272413253784	60271330.56835511
2.057589530944824	60904672.54199822
2.0609018802642822	56406205.43055391
2.0642096996307373	55998069.46915177
2.0675129890441895	61129983.9304797
2.0708119869232178	61409336.22320485
2.074106216430664	61082015.11870173
2.0773961544036865	61555429.794581264
2.080681324005127	62121587.108584166
2.0839622020721436	61771006.2435309
2.087238311767578	61688016.54822947
2.090510129928589	61507795.75274203
2.0937774181365967	60392948.29770839
2.0970399379730225	61420308.191351235
2.1002981662750244	61883721.04034111
2.1035518646240234	61918278.958713755
2.1068007946014404	61801007.65953764
2.1100454330444336	61436193.41863944
2.1132853031158447	60886718.12275977
2.116520881652832	60511289.65692396
2.1197516918182373	61303514.20538917
2.1229779720306396	61739882.51361569
2.12619948387146	61512600.461405486
2.1294167041778564	61880916.736389
2.132629156112671	61631480.34647636
2.1358368396759033	61380631.18040652
2.139039993286133	61297574.237619855
2.1422386169433594	60987753.75711102
2.145432472229004	61266214.2887795
2.1486217975616455	61174609.41281037
2.151806354522705	59798597.282763906
2.1549863815307617	59645250.835935876
2.1581614017486572	61056381.99628041
2.16133189201355	61558104.19896163
2.1644976139068604	61431552.9372183
2.167658567428589	61175836.95200854
2.1708147525787354	60881697.12055833
2.173966407775879	60886571.57053851
2.1771130561828613	60900896.03825859
2.1802549362182617	60807368.709878884
2.183391809463501	60629057.37112809
2.1865241527557373	60619328.47442412
2.1896514892578125	60799559.43846354
2.1927738189697266	60705563.47186467
2.1958916187286377	60503876.825453945
2.1990041732788086	60717124.74614736
2.2021119594573975	60785973.5069533
2.2052149772644043	60583878.61714194
2.208312749862671	60381996.33529355
2.2114057540893555	60125222.720290095
2.214493751525879	59068198.03104282
2.217576742172241	59475342.813546196
2.2206547260284424	60465582.00009923
2.2237277030944824	60558107.57414864
2.2267956733703613	60670906.25741346
2.2298583984375	60691906.28919872
2.2329163551330566	60576061.009978406
2.235969066619873	60408829.833673954
2.2390167713165283	60443047.012244694
2.2420592308044434	59841268.713581346
2.2450966835021973	59015709.41033969
2.248128890991211	59688531.49516426
2.2511560916900635	60321498.38463925
2.254178285598755	60257087.81746985
2.257194995880127	60077415.37836596
2.260206699371338	60015868.62294684
2.2632133960723877	60042221.23231009
2.266214609146118	59995615.6190374
2.2692108154296875	59948056.94565939
2.2722020149230957	59998094.598716535
2.2751877307891846	60297084.605217725
2.278168201446533	60419884.776880436
2.2811436653137207	57625882.672334634
2.284113883972168	53347138.156775154
2.287078857421875	56468782.33544779
2.290038824081421	59742982.729941025
2.2929933071136475	59879216.138109095
2.295942783355713	59847634.08888271
2.298887014389038	59958790.999963
2.301826238632202	59890074.74174959
2.304760217666626	59589908.85003731
2.3076889514923096	59139286.11255351
2.310612440109253	57935228.096652724
2.3135311603546143	57668901.54469864
2.3164443969726562	58540750.722423606
2.319352865219116	59132046.34580725
2.322256088256836	58528253.78834718
2.3251543045043945	56375648.86071695
2.328047275543213	54883002.777158946
2.330935478210449	57629032.36340199
2.3338186740875244	59523226.86632526
2.3366971015930176	59425729.41843279
2.3395702838897705	58616866.84246819
2.3424389362335205	58424273.663992524
2.3453025817871094	58578350.15141197
2.348161458969116	57970801.33362418
2.351015567779541	55622915.92774492
2.353865146636963	52233852.00147248
2.3567099571228027	54476446.52701436
2.3595502376556396	58764839.37450575
2.3623859882354736	58919436.5050865
2.3652172088623047	54676526.21618263
2.368043899536133	50564641.232291214
2.370866537094116	54955514.99631024
2.3736846446990967	57580690.74350502
2.3764986991882324	53480760.69562193
2.3793084621429443	50575520.78717297
2.3821144104003906	55249366.16370044
2.384916305541992	57368740.54887871
2.387714147567749	55210276.250726424
2.3905084133148193	51829146.15152666
2.393299102783203	50583954.8067604
2.3960859775543213	54366309.32246582
2.398869514465332	57148780.89780329
2.4016497135162354	58138107.419079244
2.4044265747070312	56078351.886930585
2.407200336456299	47704942.912802815
2.409970998764038	41672827.64048235
2.4127390384674072	45660298.767504185
2.415503978729248	49882110.91957651
2.418266534805298	53087591.18006899
2.4210267066955566	51670329.74521092
2.4237842559814453	47406725.161071844
2.426539897918701	46685534.08745038
2.429293394088745	46790294.68077821
2.4320452213287354	49344626.52594758
2.4347951412200928	53554871.80913041
2.4375438690185547	54405871.73551409
2.440291166305542	48127911.47234335
2.443037271499634	44669518.94204639
2.445782423019409	47407106.69225818
2.4485268592834473	51048483.22892161
2.451270818710327	50680962.30789822
2.454014539718628	45586745.28320164
2.4567582607269287	42912683.77972177
2.4595019817352295	42469987.50021981
2.4622461795806885	47019451.8022635
2.4649908542633057	50768485.73333121
2.4677364826202393	45791753.912186764
2.4704833030700684	40670476.41239255
2.473231554031372	44991374.59333291
2.4759814739227295	49273299.33003322
2.4787333011627197	44906756.38840123
2.481487512588501	39482613.58676061
2.4842441082000732	44360687.98405244
