#wavelength	surface flux
0.6450077295303345	17630.864642248664
0.6472567915916443	21672.010702016567
0.6494921445846558	26557.1897537067
0.6517150402069092	32237.624036587007
0.6539263725280762	39239.38497873409
0.6561272740364075	47241.39941610854
0.6583186388015747	56219.29046657285
0.6605015397071838	66511.58006171291
0.6626768708229065	78753.8129348778
0.6648455858230591	93776.6790645438
0.6670085787773132	109743.99798637594
0.6691668033599854	127848.34932076784
0.6713210344314575	143944.1680399421
0.6734722256660461	168803.47048196255
0.6756211519241333	192156.33822291816
0.6777685880661011	204670.62270238667
0.6799154281616211	231994.99859487746
0.6820623278617859	244526.34491740342
0.6842101216316223	250639.25381687313
0.6863595843315125	243807.00550664848
0.688511312007904	229624.80732576072
0.6906660795211792	210587.39732496825
0.6928245425224304	194844.47751461546
0.6949873566627502	188222.50895845293
0.6971551775932312	187237.83515558523
0.6993286609649658	192638.4776310517
0.7015084028244019	209409.10796711606
0.7036949396133423	224862.76413343498
0.7058889269828796	233332.6238105166
0.7080909013748169	237304.03994854193
0.710301399230957	242033.77724788382
0.712520956993103	251754.28970611087
0.7147500514984131	254297.42293097632
0.7169892191886902	250313.81731506632
0.7192389369010925	247651.36151570332
0.7214996814727783	239611.04358441918
0.723771870136261	233888.83641264949
0.7260559797286987	223256.81153257395
0.7283523678779602	212866.74488828346
0.7306615710258484	201844.03198255665
0.7329838871955872	191552.2276301058
0.7353196740150452	178823.31475518263
0.7376693487167358	177494.63908194352
0.7400332689285278	165698.7820382577
0.7424117922782898	162949.16046496545
0.7448052167892456	154061.62438508996
0.7472138404846191	163605.8999526561
0.7496379613876343	139668.26164199534
0.7520779371261597	128575.5915543913
0.7545340061187744	111764.87236431488
0.7570064663887024	81525.29333201592
0.7594954967498779	49949.79675376933
0.7620013952255249	21676.462291902662
0.7645244002342224	8827.015424465802
0.7670646905899048	5257.41760495974
0.7696225643157959	6388.100435921081
0.7721980810165405	13919.511060305253
0.7747915983200073	39226.10448179224
0.7774031162261963	76355.4772038202
0.7800329327583313	68232.47774378027
0.7826811671257019	143842.76391394885
0.7853479981422424	190697.00935497828
0.7880334854125977	238239.39682014656
0.7907378077507019	295388.77929637535
0.7934610247612	325252.93037226197
0.7962033748626709	373404.9000048131
0.7989648580551147	545561.1573802349
0.801745593547821	660502.031874158
0.8045456409454346	787344.5285312814
0.8073651194572449	915106.8240241829
0.8102040886878967	1072827.3585482652
0.8130625486373901	1236951.1999347368
0.8159406185150146	1430900.5409389
0.8188382983207703	1638348.6770313354
0.8217556476593018	1873848.0124512992
0.8246926665306091	2116207.8797403662
0.8276493549346924	2415549.3669329165
0.8306257724761963	2675503.0034013176
0.8336219191551208	3024792.255418511
0.8366377949714661	3319802.628397636
0.8396733403205872	3784559.494836695
0.8427285552024841	4212692.769490715
0.8458034992218018	4649826.300139861
0.8488980531692505	5095538.02235559
0.8520121574401855	4170666.532106428
0.8551458716392517	6208440.387394082
0.8582990765571594	6957259.352286643
0.8614717125892639	7521091.181236717
0.8646637797355652	8185555.059558746
0.8678751587867737	8945241.788684515
0.8711057901382446	9725281.693911036
0.8743556141853333	10619559.055219464
0.87762451171875	11671683.284276133
0.8809124231338501	12706449.869976806
0.8842192888259888	13902655.046204595
0.8875449895858765	14934858.013243752
0.8908893465995789	15901870.072310226
0.894252359867096	11821276.712945692
0.8976338505744934	18020637.84824237
0.9010337591171265	20052591.57281526
0.9044519662857056	22006361.04470213
0.9078882932662964	22885260.00969968
0.9113426208496094	24769085.32910937
0.914814829826355	26328612.24910793
0.9183048605918884	27573516.789262902
0.9218124747276306	30380489.603457265
0.925337553024292	29420217.540535495
0.9288799166679382	24149911.452052493
0.9324395060539246	20753675.849532466
0.9360161423683167	30016839.096847933
0.9396095871925354	35282036.176257014
0.943219780921936	32974056.23595245
0.9468464851379395	36660714.867977425
0.9504896402359009	32470337.411474608
0.9541489481925964	36426539.2632902
0.9578243494033813	41048629.6893845
0.9615156054496765	33857722.57983226
0.9652225375175476	40540769.38948212
0.9689450263977051	45294510.29921805
0.9726828336715698	44918109.874581024
0.9764357805252075	53192044.46935902
0.9802037477493286	52603009.19288319
0.983986496925354	55008258.676313564
0.9877838492393494	59915662.165201224
0.9915955662727356	58989619.04742757
0.9954215884208679	63225524.87175002
0.9992615580558777	58532825.25618606
1.0031154155731201	61185192.580420285
1.0069829225540161	64513660.47470635
1.0108637809753418	67806176.9476505
1.0147579908370972	70480751.1444971
1.018665075302124	72604966.56717665
1.022585153579712	74777690.52640724
1.0265177488327026	76468345.50393368
1.0304628610610962	78563589.84259568
1.0344202518463135	79688962.50454947
1.0383895635604858	81787493.93573585
1.0423706769943237	82938302.62516426
1.0463634729385376	84704082.30602047
1.0503677129745483	85583963.18006633
1.0543830394744873	87616617.59745815
1.058409333229065	88463714.3957064
1.0624464750289917	89727130.7855429
1.0664942264556885	90121989.54253468
1.0705522298812866	91492377.36210921
1.0746204853057861	93208075.20036545
1.0786986351013184	94256368.47740296
1.0827864408493042	95556568.7580869
1.086883783340454	93194223.74227798
1.0909905433654785	90516061.90469979
1.0951062440872192	85080756.36034413
1.0992310047149658	77600971.52673757
1.10336434841156	72646779.09536746
1.1075061559677124	55618570.592206076
1.1116561889648438	58350833.19211371
1.115814208984375	42474647.67718938
1.1199802160263062	55216852.46588964
1.124153733253479	40902416.82133516
1.1283347606658936	49709543.674085364
1.1325229406356812	38581157.89763817
1.1367181539535522	38696889.27783121
1.1409201622009277	65451034.578473456
1.145128846168518	50278512.424258105
1.1493438482284546	52516261.28065173
1.1535650491714478	39467714.720089
1.1577922105789185	48156714.29579549
1.1620250940322876	25862810.669024218
1.1662636995315552	34810072.94788811
1.170507550239563	42584530.589523226
1.174756646156311	57605276.0630102
1.1790107488632202	53395728.538462795
1.1832695007324219	76585713.7707579
1.1875330209732056	72080386.39226052
1.191800832748413	83095761.34622253
1.1960728168487549	98996769.09080964
1.2003488540649414	97854156.89584634
1.2046287059783936	103566906.40084751
1.2089121341705322	105868584.67565536
1.2131990194320679	111190271.0207785
1.2174891233444214	113750517.69803227
1.2217823266983032	117182567.22552045
1.2260783910751343	123194479.04324155
1.230377197265625	123664077.88129115
1.2346785068511963	120495118.56488763
1.238982081413269	125494424.78339848
1.2432878017425537	122384498.94684832
1.2475954294204712	129055016.37232429
1.2519049644470215	121926185.93128212
1.256216049194336	133517432.23149292
1.2605286836624146	133008692.24767597
1.2648425102233887	130983094.18825778
1.2691574096679688	133721157.10704659
1.2734732627868652	132031662.29661891
1.2777899503707886	133404906.43490766
1.2821072340011597	131408900.18920505
1.2864248752593994	128197436.28342041
1.2907428741455078	130207961.89375381
1.2950609922409058	122859611.83344366
1.2993791103363037	122650625.0237413
1.303696870803833	122390986.1595483
1.3080145120620728	114981175.49047063
1.3123314380645752	118669455.08696632
1.3166478872299194	111357715.7427159
1.3209635019302368	115697540.97248851
1.3252781629562378	99685182.7934544
1.3295916318893433	52981420.954606734
1.3339040279388428	35242385.287970595
1.3382149934768677	13063694.33274328
1.3425244092941284	9160782.947940314
1.3468321561813354	8100753.1830163365
1.3511382341384888	11067889.52610145
1.3554422855377197	4516635.434989903
1.3597444295883179	5068754.556620424
1.3640443086624146	9345889.48345618
1.3683418035507202	10466976.455466527
1.3726370334625244	7967506.921717718
1.3769296407699585	10002414.502492022
1.381219506263733	7761782.824448019
1.3855066299438477	2335050.3903072756
1.3897908926010132	7230450.392188827
1.3940720558166504	7245592.300711822
1.3983501195907593	7621522.179991174
1.4026249647140503	7664500.625894531
1.4068963527679443	6697313.587436489
1.4111642837524414	5981466.245916051
1.4154287576675415	10058727.602709334
1.419689416885376	5499396.021642967
1.4239463806152344	4440959.228739019
1.4281994104385376	10353448.13153609
1.4324485063552856	10625286.064750573
1.436693549156189	14663619.618797183
1.440934419631958	14970511.372365413
1.4451709985733032	14979461.846795388
1.449403166770935	21757231.555204853
1.453631043434143	25446611.51644402
1.4578542709350586	32733468.308171425
1.4620729684829712	22413068.815201044
1.4662868976593018	28742796.789246947
1.4704961776733398	27923612.718747884
1.4747005701065063	27542984.152019236
1.4788999557495117	29087592.34766384
1.4830944538116455	35154345.452086434
1.4872838258743286	38448711.2003211
1.491468071937561	38431180.62442334
1.4956470727920532	44811479.291177094
1.4998208284378052	46828829.49786992
1.5039892196655273	55652350.169170074
1.5081522464752197	56385251.84873258
1.5123097896575928	64256729.28909282
1.5164618492126465	58422627.14920818
1.5206083059310913	60417678.882558554
1.5247491598129272	74896060.24148767
1.5288842916488647	64911194.51930458
1.5330137014389038	83120117.80935486
1.5371372699737549	88696293.65137371
1.541254997253418	79694827.10464773
1.545366883277893	95761344.31629129
1.5494728088378906	95296883.81524496
1.5535727739334106	108199061.9673484
1.5576666593551636	108889255.9143577
1.561754584312439	109939961.47695032
1.5658363103866577	107380254.47871768
1.5699119567871094	123429314.38217176
1.5739814043045044	123186173.10217153
1.5780447721481323	126455336.79566559
1.582101821899414	117932473.72548711
1.5861525535583496	113992676.08939031
1.5901970863342285	115470983.7238209
1.5942351818084717	114176732.11377464
1.5982669591903687	119101219.90288076
1.6022924184799194	120328168.48573929
1.606311559677124	112432123.05577986
1.6103241443634033	107358174.90420963
1.6143304109573364	106059091.39086112
1.6183301210403442	93863487.4039489
1.6223233938217163	108289180.24577266
1.6263102293014526	112943281.75690746
1.6302905082702637	103263089.37772153
1.634264349937439	103186782.88293563
1.638231635093689	99501080.05000564
1.6421923637390137	91356926.76799701
1.646146535873413	83799991.22779375
1.6500942707061768	95361975.9985502
1.6540353298187256	100170217.35121775
1.6579699516296387	82683031.27755514
1.661897897720337	95323702.2208071
1.6658192873001099	78831727.37242632
1.6697341203689575	70681450.21257664
1.6736423969268799	78507929.76356874
1.677544116973877	88559766.57713579
1.6814392805099487	84943105.11699598
1.6853278875350952	59355600.95544784
1.6892099380493164	58177869.365711294
1.6930854320526123	57825935.3017169
1.696954369544983	54455566.77710996
1.7008168697357178	63884191.47963408
1.7046726942062378	67577135.78207777
1.708522081375122	71273884.48471038
1.712364912033081	68474876.68099517
1.7162011861801147	73025693.30976738
1.7200311422348022	61414406.61549383
1.723854422569275	51809789.236573264
1.7276713848114014	57813757.66943851
1.731481909751892	55609095.251360334
1.7352858781814575	50170661.07897665
1.7390835285186768	47740130.22591147
1.7428747415542603	42737501.40237815
1.7466596364974976	38808459.41806313
1.7504380941390991	43814526.42011854
1.7542102336883545	29890211.959002595
1.7579760551452637	26833507.36972511
1.7617355585098267	31504607.94403803
1.7654887437820435	28040521.52509861
1.7692357301712036	22631822.813973594
1.7729763984680176	27648274.03190265
1.776710867881775	15730746.08586717
1.7804391384124756	16066006.334651519
1.7841613292694092	14342479.597829571
1.7878772020339966	16677409.1304997
1.7915871143341064	15166697.01946256
1.7952908277511597	17010033.331587113
1.7989884614944458	19209077.231498554
1.8026801347732544	12988688.189762888
1.806365728378296	13333002.493277946
1.8100452423095703	11985190.01525287
1.8137187957763672	15333152.054112388
1.817386507987976	14325772.5767495
1.8210482597351074	13309196.856125934
1.8247040510177612	16243982.147401188
1.828354001045227	13619083.445477458
1.8319982290267944	12940141.828429464
1.8356364965438843	11091072.719846314
1.8392690420150757	12153155.371305713
1.8428958654403687	14772502.026465742
1.8465168476104736	14165553.346923511
1.8501322269439697	15227804.110824827
1.8537418842315674	17088220.969633624
1.8573459386825562	12428075.995036667
1.860944390296936	7831464.266959944
1.864537239074707	7003142.905943921
1.8681244850158691	7512728.587226416
1.871706247329712	10663075.160816105
1.8752825260162354	10448692.517709348
1.8788533210754395	16820656.43211076
1.8824186325073242	18786575.80688935
1.8859784603118896	15378540.019275922
1.8895330429077148	17766689.19426373
1.8930821418762207	19665129.898354284
1.8966259956359863	21151318.32841435
1.9001644849777222	16650345.121312141
1.9036977291107178	17007518.43155393
1.9072256088256836	23357312.242518723
1.9107483625411987	24432437.656573374
1.9142658710479736	17402756.23730819
1.9177782535552979	25615496.837966464
1.9212853908538818	17795971.477630977
1.9247875213623047	14285245.425372848
1.9282845258712769	18184248.289710775
1.9317764043807983	15504751.060804034
1.9352631568908691	10511353.189907214
1.9387450218200684	6694654.748031339
1.942221760749817	13609876.203170387
1.9456936120986938	14902998.350604845
1.9491604566574097	15728454.647712175
1.952622413635254	18853661.35095696
1.956079363822937	13853132.609569939
1.959531545639038	12903222.798204428
1.962978720664978	12125356.904294495
1.966421127319336	13674531.776255842
1.9698586463928223	15942679.78006391
1.9732913970947266	20337875.87413395
1.9767193794250488	19481956.716532145
1.9801424741744995	17854542.12752294
1.9835609197616577	19451131.36864814
1.9869745969772339	24704816.2564715
1.990383505821228	17740529.15159635
1.9937876462936401	19574624.86698801
1.9971871376037598	24521913.39015103
2.000581979751587	21252415.550619863
2.003972291946411	24619406.838665817
2.007357597351074	23517348.72638935
2.0107386112213135	20637343.349121746
2.0141148567199707	29107911.238098994
2.017486572265625	25973077.18093136
2.0208535194396973	28091768.525450822
2.0242159366607666	33942572.55756133
2.027573823928833	29102780.913759667
2.0309269428253174	33184417.67943406
2.034275770187378	35865858.42989944
2.0376198291778564	31921850.527227085
2.040959596633911	37540729.56487448
2.044294595718384	37929480.29854428
2.0476250648498535	36247530.093965255
2.0509510040283203	37755785.462446176
2.054272413253784	40531886.17177299
2.057589530944824	46672727.636168964
2.0609018802642822	42696116.8378725
2.0642096996307373	41875453.334181346
2.0675129890441895	46682335.29061188
2.0708119869232178	44459237.25693305
2.074106216430664	44939738.848031364
2.0773961544036865	45462849.62548651
2.080681324005127	46956539.994293675
2.0839622020721436	47408477.52297375
2.087238311767578	47235885.89435835
2.090510129928589	46313184.85566419
2.0937774181365967	45312072.4591916
2.0970399379730225	45538235.977269895
2.1002981662750244	46515290.97763342
2.1035518646240234	46866379.96328183
2.1068007946014404	46617200.60019698
2.1100454330444336	45571924.81039299
2.1132853031158447	43889101.13784924
2.116520881652832	41984618.8034234
2.1197516918182373	42504784.428003006
2.1229779720306396	44670332.952203095
2.12619948387146	44860235.63578737
2.1294167041778564	44421015.39055539
2.132629156112671	44610433.450791806
2.1358368396759033	43603116.7147075
2.139039993286133	43164297.22085565
2.1422386169433594	43542472.87527103
2.145432472229004	41655451.51949049
2.1486217975616455	39777037.1520537
2.151806354522705	37407668.73407427
2.1549863815307617	36689781.476472296
2.1581614017486572	39963058.29114201
2.16133189201355	39851555.08732767
2.1644976139068604	39244740.68444503
2.167658567428589	38673564.87246315
2.1708147525787354	38468820.05828114
2.173966407775879	36574026.995493636
2.1771130561828613	36373959.5864315
2.1802549362182617	35579000.31632879
2.183391809463501	33119746.405493762
2.1865241527557373	32931044.842608873
2.1896514892578125	32708411.447030988
2.1927738189697266	31999105.251464117
2.1958916187286377	28450157.047674146
2.1990041732788086	26207319.73387533
2.2021119594573975	22952353.87646094
2.2052149772644043	20258200.93995786
2.208312749862671	21062873.86647825
2.2114057540893555	22122160.4458097
2.214493751525879	22707868.678461675
2.217576742172241	25408306.84304703
2.2206547260284424	27160310.027639795
2.2237277030944824	25323209.218412396
2.2267956733703613	21838509.436852273
2.2298583984375	21278271.70413304
2.2329163551330566	22288763.229529686
2.235969066619873	21819852.119943377
2.2390167713165283	20326722.000162423
2.2420592308044434	20491049.557096083
2.2450966835021973	20847327.791038692
2.248128890991211	20156691.414496016
2.2511560916900635	19930853.786755245
2.254178285598755	18238706.368494596
2.257194995880127	18401816.41460927
2.260206699371338	19959751.62267957
2.2632133960723877	16660596.653855572
2.266214609146118	14894567.814682595
2.2692108154296875	16225879.295657307
2.2722020149230957	17230708.202951524
2.2751877307891846	17526477.57880181
2.278168201446533	17837655.45396189
2.2811436653137207	17811076.798087448
2.284113883972168	15960089.699458191
2.287078857421875	15049435.597067442
2.290038824081421	14898415.21216171
2.2929933071136475	13796277.504173629
2.295942783355713	13167351.792113237
2.298887014389038	14428029.668459516
2.301826238632202	16169243.086264927
2.304760217666626	17309648.42911388
2.3076889514923096	18592397.37835539
2.310612440109253	18539573.621076774
2.3135311603546143	14930321.36987387
2.3164443969726562	12739051.302044416
2.319352865219116	12614599.451222705
2.322256088256836	11380042.866413625
2.3251543045043945	9540172.58477793
2.328047275543213	8902161.493207669
2.330935478210449	10094516.6731427
2.3338186740875244	11229846.209376864
2.3366971015930176	12028709.668419017
2.3395702838897705	11991648.996567493
2.3424389362335205	11633675.373362942
2.3453025817871094	12020880.152005319
2.348161458969116	12020541.377317922
2.351015567779541	11849297.465098597
2.353865146636963	12224670.930021428
2.3567099571228027	11562557.256676486
2.3595502376556396	13322817.32385403
2.3623859882354736	15289747.906513074
2.3652172088623047	15245263.693099432
2.368043899536133	12264568.586000971
2.370866537094116	11114805.188504132
2.3736846446990967	12943216.075316356
2.3764986991882324	12794555.933397798
2.3793084621429443	11589321.976446653
2.3821144104003906	11731938.077235905
2.384916305541992	11626796.004285105
2.387714147567749	12906830.402509077
2.3905084133148193	14602913.867737647
2.393299102783203	14150164.077362811
2.3960859775543213	14236820.95215435
2.398869514465332	15138833.947263815
2.4016497135162354	16536729.939783182
2.4044265747070312	16628215.41104183
2.407200336456299	13200907.986948539
2.409970998764038	12006178.118469495
2.4127390384674072	14882941.356683208
2.415503978729248	15392698.449770987
2.418266534805298	14924962.426524222
2.4210267066955566	14616013.128270779
2.4237842559814453	13754091.906098917
2.426539897918701	13083757.18096909
2.429293394088745	13277357.036878284
2.4320452213287354	14420165.90789238
2.4347951412200928	13660495.037953839
2.4375438690185547	12250674.165668972
2.440291166305542	12070675.946983613
2.443037271499634	12180519.700767275
2.445782423019409	12028589.223344658
2.4485268592834473	12516474.880902695
2.451270818710327	12138054.557610622
2.454014539718628	11692522.751597853
2.4567582607269287	12557494.901894044
2.4595019817352295	12905032.079384493
2.4622461795806885	14244545.726632576
2.4649908542633057	14891167.38778794
2.4677364826202393	12365593.551923255
2.4704833030700684	11071156.796799429
2.473231554031372	11292588.653970823
2.4759814739227295	11202584.547276393
2.4787333011627197	10372566.187035874
