#wavelength	surface flux
0.6450077295303345	179625.8897702444
0.6472567915916443	189259.49667801708
0.6494921445846558	199216.0951116707
0.6517150402069092	209066.46756604165
0.6539263725280762	219579.75857172805
0.6561272740364075	229937.22094570557
0.6583186388015747	240745.5945983688
0.6605015397071838	250926.4234039843
0.6626768708229065	259213.63897163104
0.6648455858230591	274994.01292683434
0.6670085787773132	286764.8676281787
0.6691668033599854	299087.460627429
0.6713210344314575	289713.8514005517
0.6734722256660461	324803.5769881326
0.6756211519241333	338163.170367619
0.6777685880661011	327174.44285618066
0.6799154281616211	358675.5633925956
0.6820623278617859	376783.3824019812
0.6842101216316223	393159.1639597887
0.6863595843315125	408234.93495378323
0.688511312007904	422370.96504455607
0.6906660795211792	436978.4436007721
0.6928245425224304	451424.8218196851
0.6949873566627502	467614.7035795267
0.6971551775932312	484186.36236277304
0.6993286609649658	501127.6699421543
0.7015084028244019	519842.9638518273
0.7036949396133423	539316.4587098754
0.7058889269828796	558420.4717026167
0.7080909013748169	577530.7657540941
0.710301399230957	594720.8284770646
0.712520956993103	597129.9593341108
0.7147500514984131	631306.9811938857
0.7169892191886902	653003.848437752
0.7192389369010925	678405.7067020781
0.7214996814727783	701482.5884991171
0.723771870136261	711811.1256762191
0.7260559797286987	745164.9156918627
0.7283523678779602	765932.9589406188
0.7306615710258484	764560.7479977589
0.7329838871955872	816634.8334454937
0.7353196740150452	819291.2204071489
0.7376693487167358	864318.322400606
0.7400332689285278	886318.5691526008
0.7424117922782898	911197.2331765858
0.7448052167892456	931448.315345597
0.7472138404846191	954549.8640285104
0.7496379613876343	965395.021288347
0.7520779371261597	978586.7405939599
0.7545340061187744	985982.3471368608
0.7570064663887024	932838.5984852855
0.7594954967498779	955268.5665605087
0.7620013952255249	886371.5164467886
0.7645244002342224	423633.7010857613
0.7670646905899048	28182.689192377944
0.7696225643157959	50478.20661011708
0.7721980810165405	355833.97436851554
0.7747915983200073	968295.8688704245
0.7774031162261963	1240307.1823060554
0.7800329327583313	1067897.5290849402
0.7826811671257019	1454903.9833737595
0.7853479981422424	1543909.115848104
0.7880334854125977	1625493.900882083
0.7907378077507019	1701618.1371061848
0.7934610247612	1735140.8004397745
0.7962033748626709	1779084.3467304027
0.7989648580551147	1921947.3224665716
0.801745593547821	1996306.9069710192
0.8045456409454346	2069393.5230710586
0.8073651194572449	2134803.671235732
0.8102040886878967	2206008.5038122823
0.8130625486373901	2276511.494396309
0.8159406185150146	2356334.346614002
0.8188382983207703	2440108.690528247
0.8217556476593018	2505010.772437043
0.8246926665306091	2573882.2137338268
0.8276493549346924	2669749.849724675
0.8306257724761963	2746867.276922504
0.8336219191551208	2856301.420807961
0.8366377949714661	2879366.5130432304
0.8396733403205872	3030417.1074490706
0.8427285552024841	3099654.6740499064
0.8458034992218018	3200066.0022297134
0.8488980531692505	3309166.015080867
0.8520121574401855	3414274.727466884
0.8551458716392517	3535742.576729361
0.8582990765571594	3649851.038251759
0.8614717125892639	3761327.6450204737
0.8646637797355652	3862041.1876439955
0.8678751587867737	3999692.3797748946
0.8711057901382446	4099741.9034907557
0.8743556141853333	4195926.3685642
0.87762451171875	4335081.621352379
0.8809124231338501	4456565.08915947
0.8842192888259888	4583490.39408932
0.8875449895858765	4704351.787466019
0.8908893465995789	4827767.404929444
0.894252359867096	4296193.485697623
0.8976338505744934	5089306.914439486
0.9010337591171265	5169785.889377889
0.9044519662857056	5357387.476878065
0.9078882932662964	5382158.567170931
0.9113426208496094	5637770.236310318
0.914814829826355	5816440.771007151
0.9183048605918884	5941494.341136159
0.9218124747276306	6098964.625147701
0.925337553024292	6144647.560667095
0.9288799166679382	6084298.147427427
0.9324395060539246	6122080.763753859
0.9360161423683167	6134462.207896476
0.9396095871925354	6792297.025063137
0.943219780921936	6438062.477805718
0.9468464851379395	7018558.946836132
0.9504896402359009	6222772.001026725
0.9541489481925964	7620350.9788469765
0.9578243494033813	7785815.273553263
0.9615156054496765	7525544.341670073
0.9652225375175476	7826045.902410226
0.9689450263977051	8331514.7577035
0.9726828336715698	8511884.648268513
0.9764357805252075	8839094.588921605
0.9802037477493286	9041541.05193666
0.983986496925354	9283357.971873645
0.9877838492393494	9584820.821219623
0.9915955662727356	9636953.61166549
0.9954215884208679	9984278.283242432
0.9992615580558777	10156080.295674609
1.0031154155731201	10462921.295143435
1.0069829225540161	10797993.087095222
1.0108637809753418	11057269.204252634
1.0147579908370972	11280724.903612154
1.018665075302124	11490177.02642021
1.022585153579712	11760908.187365001
1.0265177488327026	12029515.800371239
1.0304628610610962	12253267.122419959
1.0344202518463135	12503105.743196627
1.0383895635604858	12772073.76578886
1.0423706769943237	13037917.65684736
1.0463634729385376	13354105.240181075
1.0503677129745483	13577363.391262949
1.0543830394744873	13844315.525105078
1.058409333229065	14105873.822856981
1.0624464750289917	14382498.713899521
1.0664942264556885	14610500.350775085
1.0705522298812866	14872810.808289703
1.0746204853057861	15183445.715290459
1.0786986351013184	15472363.640640054
1.0827864408493042	15798139.7825594
1.086883783340454	16003646.316704039
1.0909905433654785	16259706.990253026
1.0951062440872192	16487168.662988119
1.0992310047149658	16220395.834727434
1.10336434841156	17069912.8598998
1.1075061559677124	15737323.143905897
1.1116561889648438	17642977.33246532
1.115814208984375	14816459.404950274
1.1199802160263062	16227746.302370323
1.124153733253479	18077351.79762975
1.1283347606658936	17765442.335026585
1.1325229406356812	17487344.507905543
1.1367181539535522	17810633.302620124
1.1409201622009277	19611345.65638541
1.145128846168518	18971690.932894513
1.1493438482284546	20092171.484786715
1.1535650491714478	20693271.993788157
1.1577922105789185	20684963.381470434
1.1620250940322876	17393939.67558652
1.1662636995315552	20674094.456893727
1.170507550239563	21278312.517872274
1.174756646156311	21893530.160549477
1.1790107488632202	22083750.60784421
1.1832695007324219	22948947.846469022
1.1875330209732056	22013383.16503691
1.191800832748413	23234119.650741503
1.1960728168487549	23844759.052782595
1.2003488540649414	24319833.331979424
1.2046287059783936	24750588.640544593
1.2089121341705322	24652186.475976154
1.2131990194320679	25452335.850101475
1.2174891233444214	25692235.485060498
1.2217823266983032	26101690.22561153
1.2260783910751343	26425935.14957437
1.230377197265625	26725850.202694047
1.2346785068511963	27177046.046731025
1.238982081413269	27345671.387543302
1.2432878017425537	27867146.78476276
1.2475954294204712	28079950.413240585
1.2519049644470215	28511310.20371191
1.256216049194336	28859848.05584632
1.2605286836624146	29185731.76925479
1.2648425102233887	29425024.2042857
1.2691574096679688	29853738.708272744
1.2734732627868652	30194858.566746417
1.2777899503707886	30341257.75624004
1.2821072340011597	30651492.298840936
1.2864248752593994	31126757.491472095
1.2907428741455078	31498520.451030627
1.2950609922409058	30882879.37604858
1.2993791103363037	31834287.569961946
1.303696870803833	29071310.360572584
1.3080145120620728	30207091.127459016
1.3123314380645752	32394573.382839024
1.3166478872299194	32013705.04258561
1.3209635019302368	32457647.270175517
1.3252781629562378	33381416.86623004
1.3295916318893433	33332583.148307443
1.3339040279388428	27677347.78020243
1.3382149934768677	26041632.824963517
1.3425244092941284	24981692.778341834
1.3468321561813354	24225770.39401458
1.3511382341384888	34009379.906838074
1.3554422855377197	29268510.62150346
1.3597444295883179	25421049.073424604
1.3640443086624146	25570567.213775486
1.3683418035507202	29173860.570400044
1.3726370334625244	28429738.73259176
1.3769296407699585	28405213.838539444
1.381219506263733	23514563.474436786
1.3855066299438477	8381472.757867496
1.3897908926010132	30419207.120131962
1.3940720558166504	31327313.845586
1.3983501195907593	34198104.15772338
1.4026249647140503	31492077.17598826
1.4068963527679443	27183587.82168854
1.4111642837524414	22719872.6213015
1.4154287576675415	30021045.192991436
1.419689416885376	20830717.625577305
1.4239463806152344	21580815.889748808
1.4281994104385376	25234742.591771815
1.4324485063552856	30264380.76466652
1.436693549156189	29135673.317108955
1.440934419631958	36550206.57542657
1.4451709985733032	34220345.636951044
1.449403166770935	37613329.251646526
1.453631043434143	32910028.61730766
1.4578542709350586	39065570.87429844
1.4620729684829712	33892186.695360236
1.4662868976593018	32208065.33677254
1.4704961776733398	31507377.40539035
1.4747005701065063	30151639.764636073
1.4788999557495117	33023915.053476945
1.4830944538116455	35171733.53885036
1.4872838258743286	36009797.26388628
1.491468071937561	39785165.42116311
1.4956470727920532	41864971.24170359
1.4998208284378052	37885620.561849676
1.5039892196655273	40530991.95111426
1.5081522464752197	44922163.721425235
1.5123097896575928	43067396.56615716
1.5164618492126465	42482775.093567275
1.5206083059310913	39997938.272264704
1.5247491598129272	44440475.80089085
1.5288842916488647	36365000.05871496
1.5330137014389038	47641036.62022796
1.5371372699737549	45968791.35567041
1.541254997253418	43756362.07477972
1.545366883277893	47594830.095801294
1.5494728088378906	48606023.242441304
1.5535727739334106	48895441.30231269
1.5576666593551636	46549453.48051478
1.561754584312439	48720318.001562566
1.5658363103866577	50334645.78647621
1.5699119567871094	50117783.91247946
1.5739814043045044	50301676.34064042
1.5780447721481323	50932511.49382298
1.582101821899414	51241616.58654028
1.5861525535583496	51164529.51314622
1.5901970863342285	51638050.50606983
1.5942351818084717	51848812.89397293
1.5982669591903687	51287031.73255513
1.6022924184799194	51892364.12241393
1.606311559677124	52179066.4100156
1.6103241443634033	52549004.65896778
1.6143304109573364	52723852.757170744
1.6183301210403442	52767729.74469451
1.6223233938217163	53057093.0789353
1.6263102293014526	53162470.322857976
1.6302905082702637	53139390.167210974
1.634264349937439	53251873.00109412
1.638231635093689	53396599.956703275
1.6421923637390137	53828592.33830341
1.646146535873413	53868296.59898821
1.6500942707061768	52129964.20298649
1.6540353298187256	53994637.81845527
1.6579699516296387	52085987.79192725
1.661897897720337	52919540.4158845
1.6658192873001099	54444492.71110853
1.6697341203689575	54764928.91090937
1.6736423969268799	54902382.3499975
1.677544116973877	54378014.194225855
1.6814392805099487	55014255.154328115
1.6853278875350952	55254142.836648814
1.6892099380493164	53975302.29200473
1.6930854320526123	55146734.626600526
1.696954369544983	49749843.078044705
1.7008168697357178	55498306.724564746
1.7046726942062378	56234757.37721196
1.708522081375122	55911490.45343434
1.712364912033081	56057431.17718414
1.7162011861801147	56700012.02673658
1.7200311422348022	56172391.4512013
1.723854422569275	55690222.25638112
1.7276713848114014	56651684.02277769
1.731481909751892	54012373.98432543
1.7352858781814575	57378112.07255649
1.7390835285186768	56426582.09839062
1.7428747415542603	55517965.96649624
1.7466596364974976	57327716.10390103
1.7504380941390991	56864082.51479561
1.7542102336883545	45933879.57793455
1.7579760551452637	41929060.58022603
1.7617355585098267	48355779.98522188
1.7654887437820435	50365993.43989671
1.7692357301712036	54139054.709212095
1.7729763984680176	55418963.07964669
1.776710867881775	37695364.516744785
1.7804391384124756	32728632.02513259
1.7841613292694092	36225268.39143645
1.7878772020339966	39915523.5711792
1.7915871143341064	43704478.829178356
1.7952908277511597	45063197.850183934
1.7989884614944458	46910157.07122645
1.8026801347732544	43570715.2990371
1.806365728378296	46927627.40677776
1.8100452423095703	41245296.07417423
1.8137187957763672	45191335.66273235
1.817386507987976	41053845.74987072
1.8210482597351074	41696268.233205706
1.8247040510177612	50293851.04386453
1.828354001045227	45938862.90864512
1.8319982290267944	39736216.76046618
1.8356364965438843	29579525.236756563
1.8392690420150757	44974754.554460615
1.8428958654403687	55070420.450160496
1.8465168476104736	50647193.09902534
1.8501322269439697	53390589.635499634
1.8537418842315674	56321183.59881119
1.8573459386825562	49099147.74663785
1.860944390296936	35157624.94980001
1.864537239074707	21383393.046249203
1.8681244850158691	26396137.92642178
1.871706247329712	41093570.183687575
1.8752825260162354	43651139.52591782
1.8788533210754395	48312405.10136124
1.8824186325073242	45449523.43891924
1.8859784603118896	43748141.534722984
1.8895330429077148	54389885.60585066
1.8930821418762207	47277816.61690217
1.8966259956359863	44131960.455543496
1.9001644849777222	46371301.23547818
1.9036977291107178	48497312.501397386
1.9072256088256836	54389282.128461525
1.9107483625411987	57849870.963013515
1.9142658710479736	58470904.394778185
1.9177782535552979	59979100.053292826
1.9212853908538818	57611380.598593034
1.9247875213623047	48679388.80049337
1.9282845258712769	56676388.94771864
1.9317764043807983	55799965.069853015
1.9352631568908691	36511919.678880505
1.9387450218200684	37955845.675188184
1.942221760749817	47642414.22175593
1.9456936120986938	46309140.39138877
1.9491604566574097	56205705.79037977
1.952622413635254	55284591.66083682
1.956079363822937	48011342.23699893
1.959531545639038	45821610.63434078
1.962978720664978	47375498.07128655
1.966421127319336	46471272.00071461
1.9698586463928223	50443843.4106249
1.9732913970947266	54893915.82739127
1.9767193794250488	50217380.825131215
1.9801424741744995	48734657.89833141
1.9835609197616577	45961791.67031566
1.9869745969772339	51619842.885347664
1.990383505821228	58832290.093336135
1.9937876462936401	58653580.612388074
1.9971871376037598	59227476.126901306
2.000581979751587	51121273.08459053
2.003972291946411	56937575.29153687
2.007357597351074	56944221.787002
2.0107386112213135	51406317.24128721
2.0141148567199707	54837832.66232655
2.017486572265625	56571636.07664061
2.0208535194396973	55707445.88363108
2.0242159366607666	56580593.03160845
2.027573823928833	54796885.981505856
2.0309269428253174	59133364.87990909
2.034275770187378	57070232.7523839
2.0376198291778564	47960373.265835345
2.040959596633911	54132760.94386712
2.044294595718384	61041932.847554326
2.0476250648498535	56702852.39029126
2.0509510040283203	57220750.218090326
2.054272413253784	60340533.0858561
2.057589530944824	61632815.090901256
2.0609018802642822	56163617.824621335
2.0642096996307373	55276425.81168241
2.0675129890441895	61508756.64624083
2.0708119869232178	61509977.578275986
2.074106216430664	61382827.469107695
2.0773961544036865	62172222.50831946
2.080681324005127	62749241.7917893
2.0839622020721436	62252779.324719116
2.087238311767578	62233809.51327935
2.090510129928589	62013604.20008165
2.0937774181365967	60509370.78144266
2.0970399379730225	61842885.361650564
2.1002981662750244	62672665.397850245
2.1035518646240234	62638174.95790657
2.1068007946014404	62413576.36853655
2.1100454330444336	62004955.854579486
2.1132853031158447	61214870.03754069
2.116520881652832	60513202.43503491
2.1197516918182373	61591764.270765975
2.1229779720306396	62309504.02231405
2.12619948387146	62074434.61579345
2.1294167041778564	62468828.53776303
2.132629156112671	62122199.964504816
2.1358368396759033	61800081.235888205
2.139039993286133	61800424.76644739
2.1422386169433594	61410987.02582466
2.145432472229004	61654783.03054933
2.1486217975616455	61483927.03018468
2.151806354522705	59639534.57145022
2.1549863815307617	59473022.27320552
2.1581614017486572	61353450.77582762
2.16133189201355	61975626.48154603
2.1644976139068604	61828152.90007803
2.167658567428589	61483714.45991828
2.1708147525787354	61106080.231269315
2.173966407775879	61115003.71030881
2.1771130561828613	61153553.58365816
2.1802549362182617	61031658.06967019
2.183391809463501	60832962.32363434
2.1865241527557373	60804639.22089503
2.1896514892578125	60970495.879779495
2.1927738189697266	60825372.39232584
2.1958916187286377	60474654.32956767
2.1990041732788086	60869606.519049056
2.2021119594573975	61051849.05287861
2.2052149772644043	60753635.00253642
2.208312749862671	60450833.89047788
2.2114057540893555	60085667.43651353
2.214493751525879	58556751.634127244
2.217576742172241	59056389.521220244
2.2206547260284424	60545963.335109495
2.2237277030944824	60722323.30382413
2.2267956733703613	60859788.46148688
2.2298583984375	60849358.106927514
2.2329163551330566	60674273.7902892
2.235969066619873	60505667.873625405
2.2390167713165283	60577019.95243832
2.2420592308044434	59756054.30474597
2.2450966835021973	58665949.69882183
2.248128890991211	59526037.9485289
2.2511560916900635	60399971.738798946
2.254178285598755	60369361.17728758
2.257194995880127	60212835.94996805
2.260206699371338	60127011.495762244
2.2632133960723877	60262215.4787865
2.266214609146118	60215711.32035631
2.2692108154296875	60049276.205912925
2.2722020149230957	60163626.67354364
2.2751877307891846	60481238.43765755
2.278168201446533	60581316.36912678
2.2811436653137207	57438751.51316554
2.284113883972168	52581880.44022599
2.287078857421875	56002016.248764396
2.290038824081421	59353748.92808169
2.2929933071136475	59742905.888736606
2.295942783355713	60229354.7381164
2.298887014389038	60063154.76844613
2.301826238632202	60096107.537724406
2.304760217666626	59989911.49157701
2.3076889514923096	59236803.415360324
2.310612440109253	55847452.633715495
2.3135311603546143	53268255.565879025
2.3164443969726562	56223014.19808014
2.319352865219116	58306589.49109061
2.322256088256836	56874237.60166394
2.3251543045043945	53056928.41782116
2.328047275543213	49231491.80662532
2.330935478210449	53713337.76092039
2.3338186740875244	57752019.453664474
2.3366971015930176	58040999.78689895
2.3395702838897705	55443156.23113542
2.3424389362335205	55301324.602779776
2.3453025817871094	57350724.75646242
2.348161458969116	56735372.10168989
2.351015567779541	53618715.70351077
2.353865146636963	49750181.04255176
2.3567099571228027	52493322.36318472
2.3595502376556396	58132654.641035646
2.3623859882354736	59192114.238472596
2.3652172088623047	54248883.141278364
2.368043899536133	49225848.60675474
2.370866537094116	54498579.40633698
2.3736846446990967	57881817.14730066
2.3764986991882324	53158345.4489249
2.3793084621429443	48161545.52529498
2.3821144104003906	52887964.92815022
2.384916305541992	56731112.89643994
2.387714147567749	54496394.129940785
2.3905084133148193	49575519.30401067
2.393299102783203	46572762.341320865
2.3960859775543213	51449974.46881094
2.398869514465332	56152282.56475564
2.4016497135162354	57717624.12476025
2.4044265747070312	55727550.09098664
2.407200336456299	46708043.52514084
2.409970998764038	40030297.81757053
2.4127390384674072	43526179.153585814
2.415503978729248	47292530.14701679
2.418266534805298	51243543.138829246
2.4210267066955566	50820999.726444855
2.4237842559814453	46638106.78468914
2.426539897918701	45178411.01667445
2.429293394088745	44414482.4197892
2.4320452213287354	47101930.27211934
2.4347951412200928	51751484.813850656
2.4375438690185547	52556560.92350131
2.440291166305542	45860939.855054796
2.443037271499634	41686346.98359212
2.445782423019409	44309174.01609304
2.4485268592834473	49034066.50180392
2.451270818710327	49081682.59597038
2.454014539718628	43187102.31359741
2.4567582607269287	40397319.35921814
2.4595019817352295	40340204.614901826
2.4622461795806885	44887206.06838495
2.4649908542633057	48253714.71364303
2.4677364826202393	42751665.01786974
2.4704833030700684	37429066.01163698
2.473231554031372	41588718.387093775
2.4759814739227295	45716902.287351884
2.4787333011627197	40961545.338413216
2.481487512588501	34892804.09567666
2.4842441082000732	39919945.67486171
