#wavelength	surface flux
0.6450077295303345	381240.2393458069
0.6472567915916443	396915.3640752371
0.6494921445846558	413017.1363545875
0.6517150402069092	429364.4638458853
0.6539263725280762	446281.03338761313
0.6561272740364075	463367.7893746571
0.6583186388015747	480970.87140056444
0.6605015397071838	498830.06880587887
0.6626768708229065	514982.3987620113
0.6648455858230591	536497.6220712903
0.6670085787773132	555771.3048739386
0.6691668033599854	575475.0973555732
0.6713210344314575	556465.8731776885
0.6734722256660461	617030.8686262944
0.6756211519241333	638445.1152669882
0.6777685880661011	629625.9417865839
0.6799154281616211	676609.461555861
0.6820623278617859	703740.1744584221
0.6842101216316223	728782.7736572968
0.6863595843315125	753352.2927946958
0.688511312007904	777820.0657930997
0.6906660795211792	802991.6191776976
0.6928245425224304	828441.275661084
0.6949873566627502	855250.1149549601
0.6971551775932312	882576.2356319183
0.6993286609649658	910522.0511982718
0.7015084028244019	939526.2621328036
0.7036949396133423	969594.0813765078
0.7058889269828796	999916.3611519492
0.7080909013748169	1030920.2925254945
0.710301399230957	1062213.416018721
0.712520956993103	1081008.1611340768
0.7147500514984131	1123559.6216804062
0.7169892191886902	1158351.4265591595
0.7192389369010925	1196870.5752690842
0.7214996814727783	1234083.3847537742
0.723771870136261	1262677.3378322725
0.7260559797286987	1308165.6113603269
0.7283523678779602	1344709.6917770996
0.7306615710258484	1365995.2495208967
0.7329838871955872	1427936.2796829585
0.7353196740150452	1449736.7123189725
0.7376693487167358	1508317.1887109345
0.7400332689285278	1548263.8406491838
0.7424117922782898	1591715.1095189385
0.7448052167892456	1634151.3074287274
0.7472138404846191	1681193.2733024582
0.7496379613876343	1727929.1370081373
0.7520779371261597	1773000.4515293578
0.7545340061187744	1820371.0318526537
0.7570064663887024	1810572.4855902088
0.7594954967498779	1901499.8347598023
0.7620013952255249	1920764.9096370188
0.7645244002342224	1551550.6977450154
0.7670646905899048	374864.23351944203
0.7696225643157959	593955.1431020667
0.7721980810165405	1635843.1995719653
0.7747915983200073	2184021.9601568687
0.7774031162261963	2341537.3163424167
0.7800329327583313	1992096.9500397323
0.7826811671257019	2520128.0103292395
0.7853479981422424	2604055.7178023593
0.7880334854125977	2687365.595743164
0.7907378077507019	2769273.730752678
0.7934610247612	2832351.1235671956
0.7962033748626709	2905080.32828882
0.7989648580551147	3024564.0963208796
0.801745593547821	3111868.4315527463
0.8045456409454346	3203186.101033943
0.8073651194572449	3294649.3347134157
0.8102040886878967	3389478.464232298
0.8130625486373901	3485804.4250046564
0.8159406185150146	3587814.193962871
0.8188382983207703	3692202.148331155
0.8217556476593018	3787203.00152126
0.8246926665306091	3887801.2286574156
0.8276493549346924	4003294.6843634113
0.8306257724761963	4110886.5734963175
0.8336219191551208	4237964.587220049
0.8366377949714661	4315425.552271647
0.8396733403205872	4470521.555261764
0.8427285552024841	4578519.898138101
0.8458034992218018	4705197.59001931
0.8488980531692505	4841843.8643917125
0.8520121574401855	4974998.590428252
0.8551458716392517	5109379.651905668
0.8582990765571594	5247233.603306509
0.8614717125892639	5384475.330235564
0.8646637797355652	5509134.131970588
0.8678751587867737	5666312.244272472
0.8711057901382446	5807118.653621854
0.8743556141853333	5948134.1633206485
0.87762451171875	6127492.4723269595
0.8809124231338501	6297494.920232579
0.8842192888259888	6460599.707062323
0.8875449895858765	6624708.200745038
0.8908893465995789	6791124.518069127
0.894252359867096	6504395.010160669
0.8976338505744934	7127867.880005733
0.9010337591171265	7282649.311432501
0.9044519662857056	7490764.3433213215
0.9078882932662964	7607482.208548748
0.9113426208496094	7859638.5279176375
0.914814829826355	8054265.534579447
0.9183048605918884	8248328.235626402
0.9218124747276306	8447340.841551011
0.925337553024292	8579308.966922784
0.9288799166679382	8605093.350206397
0.9324395060539246	8764555.7717053
0.9360161423683167	8814673.028557269
0.9396095871925354	9408222.979909822
0.943219780921936	9230466.90818258
0.9468464851379395	9782310.126589255
0.9504896402359009	9151158.637528028
0.9541489481925964	10389872.338926755
0.9578243494033813	10612680.5212968
0.9615156054496765	10576497.827382894
0.9652225375175476	10829890.906095887
0.9689450263977051	11305052.10218782
0.9726828336715698	11550465.74709974
0.9764357805252075	11890459.307489913
0.9802037477493286	12141008.19235931
0.983986496925354	12409725.493603863
0.9877838492393494	12748788.517434316
0.9915955662727356	12908690.099005582
0.9954215884208679	13261810.211212415
0.9992615580558777	13491621.926630905
1.0031154155731201	13827040.626852384
1.0069829225540161	14156325.84565279
1.0108637809753418	14455302.537340842
1.0147579908370972	14774719.714989098
1.018665075302124	15051681.079288952
1.022585153579712	15374207.789414724
1.0265177488327026	15694077.45852786
1.0304628610610962	16014362.600459265
1.0344202518463135	16325222.466865188
1.0383895635604858	16653149.545000842
1.0423706769943237	16980273.9227498
1.0463634729385376	17309217.642227024
1.0503677129745483	17641877.2818889
1.0543830394744873	17968831.70148631
1.058409333229065	18313204.43394097
1.0624464750289917	18656228.618336394
1.0664942264556885	18978856.054126482
1.0705522298812866	19315780.966398835
1.0746204853057861	19695253.719287697
1.0786986351013184	20054144.10373111
1.0827864408493042	20431948.993415024
1.086883783340454	20731382.30959296
1.0909905433654785	21074522.959050223
1.0951062440872192	21361196.50315841
1.0992310047149658	21349344.390906904
1.10336434841156	22125474.06857011
1.1075061559677124	21362421.13057338
1.1116561889648438	22871611.006573737
1.115814208984375	19904175.334174097
1.1199802160263062	22213634.70032022
1.124153733253479	23755102.946883965
1.1283347606658936	23739606.229833093
1.1325229406356812	23742558.800206758
1.1367181539535522	24152009.03018888
1.1409201622009277	25409821.243246038
1.145128846168518	25248663.283289857
1.1493438482284546	26201290.99209279
1.1535650491714478	26774216.540336493
1.1577922105789185	26973984.40402648
1.1620250940322876	24080587.293747373
1.1662636995315552	27331233.769468
1.170507550239563	27841358.55446099
1.174756646156311	28522055.119036324
1.1790107488632202	28715309.889385507
1.1832695007324219	29746778.320218515
1.1875330209732056	29089179.735028856
1.191800832748413	30145574.077279307
1.1960728168487549	30856901.11869851
1.2003488540649414	31319463.385627255
1.2046287059783936	31868608.73948557
1.2089121341705322	32121220.150467977
1.2131990194320679	32846316.243262146
1.2174891233444214	33150722.16558631
1.2217823266983032	33671931.4512219
1.2260783910751343	34193100.756538555
1.230377197265625	34634524.38285438
1.2346785068511963	35091941.92842907
1.238982081413269	35447868.11221571
1.2432878017425537	36079952.47017565
1.2475954294204712	36410230.03827361
1.2519049644470215	36967882.57309613
1.256216049194336	37434050.942606315
1.2605286836624146	37865285.03597154
1.2648425102233887	38208386.27103373
1.2691574096679688	38773993.606320314
1.2734732627868652	39213362.2034082
1.2777899503707886	39494738.7890812
1.2821072340011597	39956217.89762124
1.2864248752593994	40530802.35548763
1.2907428741455078	41014408.562708974
1.2950609922409058	40793296.20596958
1.2993791103363037	41675048.93703095
1.303696870803833	39915255.53657485
1.3080145120620728	40833954.50392402
1.3123314380645752	42725921.216571204
1.3166478872299194	42490105.24763837
1.3209635019302368	43266596.82163707
1.3252781629562378	43852177.90003855
1.3295916318893433	43777451.374648586
1.3339040279388428	37789847.34933081
1.3382149934768677	36297798.212776154
1.3425244092941284	37286955.16695878
1.3468321561813354	36617494.39249119
1.3511382341384888	45181512.67791205
1.3554422855377197	40745233.33324031
1.3597444295883179	37341371.197411485
1.3640443086624146	37710683.73485754
1.3683418035507202	41347586.22350487
1.3726370334625244	41127549.05160879
1.3769296407699585	42214560.55707263
1.381219506263733	36632709.005987585
1.3855066299438477	19182424.06718825
1.3897908926010132	43585123.0453692
1.3940720558166504	44710507.09059553
1.3983501195907593	47737950.134296454
1.4026249647140503	44030547.39878547
1.4068963527679443	39969829.73843931
1.4111642837524414	34047230.09554531
1.4154287576675415	44186763.71624369
1.419689416885376	36663790.58875826
1.4239463806152344	35739079.81876655
1.4281994104385376	38756060.79974787
1.4324485063552856	44118850.91206761
1.436693549156189	43361818.93157037
1.440934419631958	50708192.877656065
1.4451709985733032	49109868.214255996
1.449403166770935	51546487.853258066
1.453631043434143	47269456.9952995
1.4578542709350586	52696012.185534105
1.4620729684829712	47630046.07031957
1.4662868976593018	45182311.63389488
1.4704961776733398	45986927.23902349
1.4747005701065063	46526155.6947675
1.4788999557495117	48188560.30727635
1.4830944538116455	50040994.34462494
1.4872838258743286	49762383.929549314
1.491468071937561	54179915.16365577
1.4956470727920532	55948545.756859586
1.4998208284378052	52845743.4211545
1.5039892196655273	54978774.17220241
1.5081522464752197	59203028.53147878
1.5123097896575928	58153744.97755898
1.5164618492126465	58046802.578851275
1.5206083059310913	56327292.3973374
1.5247491598129272	59550498.812269434
1.5288842916488647	52624509.15698972
1.5330137014389038	62291777.952597775
1.5371372699737549	60920076.994427815
1.541254997253418	58612493.49243568
1.545366883277893	62880110.73318895
1.5494728088378906	63134283.446689636
1.5535727739334106	64604010.077413514
1.5576666593551636	62853468.969536684
1.561754584312439	64521333.14797443
1.5658363103866577	65683990.64643304
1.5699119567871094	66322450.53208008
1.5739814043045044	66345402.96882129
1.5780447721481323	67591797.78612359
1.582101821899414	67431944.28587906
1.5861525535583496	67380989.58865759
1.5901970863342285	68407013.0935964
1.5942351818084717	68592877.42494017
1.5982669591903687	68343523.46422419
1.6022924184799194	69498532.15468943
1.606311559677124	69598961.77010936
1.6103241443634033	70082424.41556488
1.6143304109573364	70576680.67409424
1.6183301210403442	70894110.13521278
1.6223233938217163	71223506.14845158
1.6263102293014526	71450373.81969874
1.6302905082702637	71420471.0686987
1.634264349937439	71723998.63415843
1.638231635093689	71823061.3207882
1.6421923637390137	72336118.04802585
1.646146535873413	72868977.52726397
1.6500942707061768	70932403.44490868
1.6540353298187256	73127551.77041137
1.6579699516296387	71233235.97437584
1.661897897720337	72360857.80094053
1.6658192873001099	73596133.23770633
1.6697341203689575	74229219.10795651
1.6736423969268799	74363756.54442869
1.677544116973877	73743189.02176583
1.6814392805099487	74924496.82314841
1.6853278875350952	75053775.61849818
1.6892099380493164	74050735.69680862
1.6930854320526123	74886389.9604722
1.696954369544983	70763566.50663546
1.7008168697357178	75030028.01935436
1.7046726942062378	76125672.78903934
1.708522081375122	75883018.56506658
1.712364912033081	75580409.08400592
1.7162011861801147	76645111.11079982
1.7200311422348022	75895283.79869825
1.723854422569275	75670552.84080525
1.7276713848114014	76406108.67969568
1.731481909751892	74059217.50567046
1.7352858781814575	76968415.17976855
1.7390835285186768	76181926.2958678
1.7428747415542603	75041393.96521139
1.7466596364974976	76776020.081611
1.7504380941390991	76813012.5462309
1.7542102336883545	63808188.18142516
1.7579760551452637	61485468.04478522
1.7617355585098267	68043493.82650235
1.7654887437820435	71207494.98203678
1.7692357301712036	74605273.64653946
1.7729763984680176	74974924.79707325
1.776710867881775	54956737.0249565
1.7804391384124756	50673936.02908509
1.7841613292694092	54431519.817792
1.7878772020339966	56864838.01327686
1.7915871143341064	62924171.04839526
1.7952908277511597	64594468.00109372
1.7989884614944458	67092660.28841577
1.8026801347732544	63157750.78982429
1.806365728378296	68740982.68115695
1.8100452423095703	64138952.96944795
1.8137187957763672	67190813.5818576
1.817386507987976	60018818.28152396
1.8210482597351074	59781001.84891717
1.8247040510177612	69438606.18434215
1.828354001045227	67011217.20048409
1.8319982290267944	60734177.11886481
1.8356364965438843	45133377.14442001
1.8392690420150757	66723526.26509876
1.8428958654403687	75166438.9255331
1.8465168476104736	70395809.31912749
1.8501322269439697	72628547.26177801
1.8537418842315674	75869845.59451805
1.8573459386825562	70727320.91494463
1.860944390296936	56404139.063927315
1.864537239074707	38446385.193941824
1.8681244850158691	39045582.79643134
1.871706247329712	57200728.619312376
1.8752825260162354	62048099.83862659
1.8788533210754395	66931357.41789286
1.8824186325073242	66089488.50449225
1.8859784603118896	63524926.198943034
1.8895330429077148	74343620.6814235
1.8930821418762207	64691127.63858767
1.8966259956359863	63639638.52249778
1.9001644849777222	68069072.43467973
1.9036977291107178	72312876.9590418
1.9072256088256836	76333621.28678699
1.9107483625411987	80434495.67362441
1.9142658710479736	80247937.26780652
1.9177782535552979	80284085.61109285
1.9212853908538818	79158607.010873
1.9247875213623047	72997330.91580346
1.9282845258712769	77555416.9062401
1.9317764043807983	77401754.02640495
1.9352631568908691	61197921.926735505
1.9387450218200684	65430144.73508775
1.942221760749817	71222671.06171075
1.9456936120986938	68230370.94963636
1.9491604566574097	78553651.72820799
1.952622413635254	76887727.13000125
1.956079363822937	66651540.029379256
1.959531545639038	66789812.62218567
1.962978720664978	69286003.6767365
1.966421127319336	66421109.45596866
1.9698586463928223	70514520.99305013
1.9732913970947266	75621086.37399381
1.9767193794250488	71952552.97233373
1.9801424741744995	69665922.76090789
1.9835609197616577	65775593.5590419
1.9869745969772339	71323591.1057641
1.990383505821228	79825864.018001
1.9937876462936401	80491279.41905667
1.9971871376037598	80606777.47086295
2.000581979751587	72396652.39490275
2.003972291946411	77090902.47149527
2.007357597351074	77624443.01560181
2.0107386112213135	73482495.85456236
2.0141148567199707	76841647.44758077
2.017486572265625	77215528.21963513
2.0208535194396973	76155265.7254181
2.0242159366607666	77697740.89656243
2.027573823928833	74982139.7622394
2.0309269428253174	80436748.27636756
2.034275770187378	76995481.42111582
2.0376198291778564	67093524.21223317
2.040959596633911	74375448.11083254
2.044294595718384	81794951.06637755
2.0476250648498535	76949785.61781682
2.0509510040283203	77436965.0032803
2.054272413253784	81220159.46104373
2.057589530944824	83737752.03657123
2.0609018802642822	78236144.9807029
2.0642096996307373	76559479.0909504
2.0675129890441895	82323385.10358365
2.0708119869232178	81218183.86866108
2.074106216430664	82057730.93380432
2.0773961544036865	82896392.52574989
2.080681324005127	83055166.39417857
2.0839622020721436	82932407.35696292
2.087238311767578	83185282.50387758
2.090510129928589	82718110.15401757
2.0937774181365967	81145105.82861067
2.0970399379730225	82188945.30861187
2.1002981662750244	84325049.70469114
2.1035518646240234	84497682.03225142
2.1068007946014404	84075755.11937827
2.1100454330444336	83753189.02021483
2.1132853031158447	82868651.09325275
2.116520881652832	81740577.7383436
2.1197516918182373	82173880.00910218
2.1229779720306396	83795768.8668487
2.12619948387146	84392625.33561233
2.1294167041778564	83955293.62540078
2.132629156112671	84323617.0271334
2.1358368396759033	84497942.64579839
2.139039993286133	84507285.61029069
2.1422386169433594	84692386.07237367
2.145432472229004	84460169.17693572
2.1486217975616455	84097946.60024345
2.151806354522705	81957615.29630333
2.1549863815307617	81863802.58736949
2.1581614017486572	83838377.37163039
2.16133189201355	83382413.87491964
2.1644976139068604	83197452.54420318
2.167658567428589	83525399.30788434
2.1708147525787354	84146884.31111659
2.173966407775879	84086217.79052584
2.1771130561828613	83880196.39317118
2.1802549362182617	83961993.57774952
2.183391809463501	84191357.06515262
2.1865241527557373	84199701.18745156
2.1896514892578125	84092110.50535215
2.1927738189697266	83616359.59274909
2.1958916187286377	82697037.15682378
2.1990041732788086	83111293.10127191
2.2021119594573975	83390668.30382808
2.2052149772644043	83035460.77850793
2.208312749862671	83124391.31314087
2.2114057540893555	83051289.89958191
2.214493751525879	81622282.4092812
2.217576742172241	81676977.71784393
2.2206547260284424	82945035.11219916
2.2237277030944824	82922882.24068172
2.2267956733703613	82090778.52632338
2.2298583984375	82121918.13561393
2.2329163551330566	82983250.40941536
2.235969066619873	83058271.87762924
2.2390167713165283	82412883.61188182
2.2420592308044434	81427832.72274642
2.2450966835021973	80511200.26520327
2.248128890991211	81256930.60944332
2.2511560916900635	82186965.76349255
2.254178285598755	82417426.13944782
2.257194995880127	82692047.0712472
2.260206699371338	82822663.41361496
2.2632133960723877	82743913.9534505
2.266214609146118	82675306.55275428
2.2692108154296875	82525417.2024352
2.2722020149230957	82081366.91688333
2.2751877307891846	81614422.04698114
2.278168201446533	81840220.47341707
2.2811436653137207	79485082.75957622
2.284113883972168	74450983.33043084
2.287078857421875	77535746.8401012
2.290038824081421	80589209.72906892
2.2929933071136475	80800722.33715072
2.295942783355713	81475713.65944727
2.298887014389038	81252060.44071835
2.301826238632202	81169752.04031888
2.304760217666626	81616060.44533357
2.3076889514923096	81173829.41423951
2.310612440109253	78577964.02851444
2.3135311603546143	77085065.02091135
2.3164443969726562	78616343.07526442
2.319352865219116	79267289.69792013
2.322256088256836	76810410.32005426
2.3251543045043945	73545452.32539065
2.328047275543213	71693317.6571607
2.330935478210449	75481915.30122763
2.3338186740875244	78822048.53649844
2.3366971015930176	78817763.15929034
2.3395702838897705	77416636.66158327
2.3424389362335205	77399949.28574647
2.3453025817871094	77661698.65994547
2.348161458969116	76674125.67512357
2.351015567779541	73198634.43460086
2.353865146636963	69730534.87097055
2.3567099571228027	73063944.73850805
2.3595502376556396	78200716.57844706
2.3623859882354736	78697046.72024018
2.3652172088623047	72910228.46938273
2.368043899536133	66719943.159987405
2.370866537094116	73116238.66128881
2.3736846446990967	77858490.1499573
2.3764986991882324	72665743.17606142
2.3793084621429443	68025301.06412777
2.3821144104003906	73369675.47565892
2.384916305541992	76282844.95239924
2.387714147567749	74191572.23936915
2.3905084133148193	70204582.29269856
2.393299102783203	68422506.2229965
2.3960859775543213	73120728.01242718
2.398869514465332	75765298.58804025
2.4016497135162354	76032597.67671718
2.4044265747070312	74072819.52407764
2.407200336456299	64192465.14503254
2.409970998764038	55572853.9840377
2.4127390384674072	60240325.53362695
2.415503978729248	67003549.72040625
2.418266534805298	71279910.84593613
2.4210267066955566	68773461.43925376
2.4237842559814453	62745020.89147793
2.426539897918701	61623364.592717424
2.429293394088745	61669833.17748294
2.4320452213287354	64569453.44258439
2.4347951412200928	69744164.63412052
2.4375438690185547	70534535.5241882
2.440291166305542	62496602.43360433
2.443037271499634	58599001.965316154
2.445782423019409	62405197.547428265
2.4485268592834473	67066070.25586885
2.451270818710327	66461535.99057366
2.454014539718628	60413236.20408813
2.4567582607269287	57657227.98877757
2.4595019817352295	56787434.05252912
2.4622461795806885	61976293.96694337
2.4649908542633057	67229388.95625357
2.4677364826202393	62117445.41648844
2.4704833030700684	56014556.18912348
2.473231554031372	59871404.38072543
2.4759814739227295	64221948.27672171
2.4787333011627197	58976680.70646481
2.481487512588501	52590583.8805161
2.4842441082000732	58594375.74395643
2.4870035648345947	62519351.94986004
2.4897661209106445	59949106.95458533
2.492532253265381	60703850.01977535
