#wavelength	surface flux
0.6450077295303345	234428.55529404958
0.6472567915916443	244449.7490203802
0.6494921445846558	254511.8268727967
0.6517150402069092	265269.3160657531
0.6539263725280762	276138.6213061191
0.6561272740364075	287129.99220351333
0.6583186388015747	298588.8608470635
0.6605015397071838	310398.9349517652
0.6626768708229065	321923.1493509356
0.6648455858230591	334643.76140214305
0.6670085787773132	347479.81628109876
0.6691668033599854	361312.3226136255
0.6713210344314575	366804.96430366876
0.6734722256660461	390142.7055935126
0.6756211519241333	405394.5552785418
0.6777685880661011	411257.5764868829
0.6799154281616211	435802.51916638145
0.6820623278617859	453088.83182915446
0.6842101216316223	470284.88791534747
0.6863595843315125	487717.50051813526
0.688511312007904	505711.5848773373
0.6906660795211792	524276.0944005214
0.6928245425224304	543311.5551143003
0.6949873566627502	562991.2271754325
0.6971551775932312	583070.1840065819
0.6993286609649658	603797.051628506
0.7015084028244019	624785.557011522
0.7036949396133423	646640.5080196887
0.7058889269828796	668133.3024487882
0.7080909013748169	690833.0259787762
0.710301399230957	714491.2988163849
0.712520956993103	735709.4035408484
0.7147500514984131	762369.0448229366
0.7169892191886902	787785.4056831691
0.7192389369010925	814466.4275731851
0.7214996814727783	841610.0169197908
0.723771870136261	867813.7063602475
0.7260559797286987	897641.4019589372
0.7283523678779602	926260.5167350329
0.7306615710258484	953301.1271229588
0.7329838871955872	986463.4773043108
0.7353196740150452	1001287.5509610956
0.7376693487167358	1038196.9114524993
0.7400332689285278	1062536.9799823302
0.7424117922782898	1091909.8941520737
0.7448052167892456	1122700.2743304952
0.7472138404846191	1163032.543205274
0.7496379613876343	1207715.9412880375
0.7520779371261597	1246814.0749056237
0.7545340061187744	1294943.404026361
0.7570064663887024	1329033.1604331883
0.7594954967498779	1388782.1550769722
0.7620013952255249	1436825.1970960647
0.7645244002342224	1461306.3246632852
0.7670646905899048	1106461.041024375
0.7696225643157959	1301974.3249769122
0.7721980810165405	1614082.273359496
0.7747915983200073	1685667.8411098728
0.7774031162261963	1742126.4179465284
0.7800329327583313	1486611.667796537
0.7826811671257019	1856276.4487976104
0.7853479981422424	1915363.0917599988
0.7880334854125977	1974848.7651303047
0.7907378077507019	2034569.6000952637
0.7934610247612	2092984.8180115463
0.7962033748626709	2159416.398202472
0.7989648580551147	2225660.436152254
0.801745593547821	2289899.6481436854
0.8045456409454346	2362115.2326686215
0.8073651194572449	2440438.9472596133
0.8102040886878967	2520762.187300163
0.8130625486373901	2600762.9733854104
0.8159406185150146	2683266.3738527433
0.8188382983207703	2767393.4924794235
0.8217556476593018	2850872.5527542904
0.8246926665306091	2937809.4954473893
0.8276493549346924	3028004.4657337433
0.8306257724761963	3119137.7386958003
0.8336219191551208	3215209.759521366
0.8366377949714661	3304225.598221408
0.8396733403205872	3408517.6700212955
0.8427285552024841	3506971.4117631596
0.8458034992218018	3609392.1027487493
0.8488980531692505	3717390.1435293276
0.8520121574401855	3825389.239522038
0.8551458716392517	3926197.3979236465
0.8582990765571594	4036333.6437207395
0.8614717125892639	4148097.28184914
0.8646637797355652	4259532.783896204
0.8678751587867737	4374177.33569549
0.8711057901382446	4508443.656977434
0.8743556141853333	4641698.515201984
0.87762451171875	4780745.959840404
0.8809124231338501	4925971.804041463
0.8842192888259888	5066490.565278366
0.8875449895858765	5209649.141709862
0.8908893465995789	5355648.1883700695
0.894252359867096	5485334.672477824
0.8976338505744934	5651822.815915995
0.9010337591171265	5801031.098980016
0.9044519662857056	5962321.575911058
0.9078882932662964	6108874.313528727
0.9113426208496094	6282699.552523472
0.914814829826355	6454282.814363895
0.9183048605918884	6624266.413431111
0.9218124747276306	6795404.928218555
0.925337553024292	6961464.321863491
0.9288799166679382	7104586.323450881
0.9324395060539246	7281299.4810040025
0.9360161423683167	7425842.607271123
0.9396095871925354	7706972.076393048
0.943219780921936	7813889.242246237
0.9468464851379395	8090952.535702243
0.9504896402359009	8073832.348417803
0.9541489481925964	8530336.993628554
0.9578243494033813	8739072.36294636
0.9615156054496765	8902695.000931244
0.9652225375175476	9108515.77964059
0.9689450263977051	9385010.20774715
0.9726828336715698	9612855.827215211
0.9764357805252075	9858951.175581472
0.9802037477493286	10092837.76584891
0.983986496925354	10330167.751225216
0.9877838492393494	10588966.26537283
0.9915955662727356	10814248.665087942
0.9954215884208679	11079559.60676689
0.9992615580558777	11319897.509962166
1.0031154155731201	11588725.485127449
1.0069829225540161	11856309.047664972
1.0108637809753418	12119000.106539045
1.0147579908370972	12386861.660651693
1.018665075302124	12650918.354831878
1.022585153579712	12931786.188295245
1.0265177488327026	13206723.169835858
1.0304628610610962	13489593.317497058
1.0344202518463135	13775194.939920228
1.0383895635604858	14063973.633486656
1.0423706769943237	14354963.68159595
1.0463634729385376	14650058.451022128
1.0503677129745483	14948979.591625638
1.0543830394744873	15246014.674911452
1.058409333229065	15550254.63527402
1.0624464750289917	15858948.842369836
1.0664942264556885	16164602.171122365
1.0705522298812866	16479711.590201009
1.0746204853057861	16798571.58527151
1.0786986351013184	17110394.03679236
1.0827864408493042	17440163.335558023
1.086883783340454	17749973.798467033
1.0909905433654785	18073486.095557306
1.0951062440872192	18380125.905475024
1.0992310047149658	18633591.12851038
1.10336434841156	19050120.39244768
1.1075061559677124	19159058.15513322
1.1116561889648438	19721994.760213476
1.115814208984375	18684391.908496737
1.1199802160263062	20103144.39052441
1.124153733253479	20718830.717331935
1.1283347606658936	20983595.066472154
1.1325229406356812	21248911.758773476
1.1367181539535522	21611228.020050686
1.1409201622009277	22126720.06250302
1.145128846168518	22356391.098433197
1.1493438482284546	22842879.515573837
1.1535650491714478	23227826.767394185
1.1577922105789185	23554654.697780035
1.1620250940322876	22849398.570016064
1.1662636995315552	24161129.709789485
1.170507550239563	24559332.770867422
1.174756646156311	24963356.723315466
1.1790107488632202	25265381.83742375
1.1832695007324219	25764720.161974695
1.1875330209732056	25874908.50085103
1.191800832748413	26412461.80133019
1.1960728168487549	26836313.826872572
1.2003488540649414	27198969.273395024
1.2046287059783936	27581056.034155205
1.2089121341705322	27929421.17599897
1.2131990194320679	28336958.112157103
1.2174891233444214	28678908.54238396
1.2217823266983032	29055802.623715244
1.2260783910751343	29439059.383644283
1.230377197265625	29803793.60440143
1.2346785068511963	30166412.6446143
1.238982081413269	30518704.687597945
1.2432878017425537	30898471.38112958
1.2475954294204712	31246992.298196584
1.2519049644470215	31620505.44061738
1.256216049194336	31984160.939030092
1.2605286836624146	32349100.81564806
1.2648425102233887	32700772.994706944
1.2691574096679688	33078478.51219546
1.2734732627868652	33430453.835778277
1.2777899503707886	33766986.44328011
1.2821072340011597	34122067.278405696
1.2864248752593994	34489829.16642167
1.2907428741455078	34848192.10463396
1.2950609922409058	35096979.82239901
1.2993791103363037	35526191.20843135
1.303696870803833	35453434.82705434
1.3080145120620728	35910907.150628194
1.3123314380645752	36533932.971815936
1.3166478872299194	36766133.6860518
1.3209635019302368	37180930.567878395
1.3252781629562378	37531312.18863415
1.3295916318893433	37629982.80356986
1.3339040279388428	35290684.53957569
1.3382149934768677	34063877.78796112
1.3425244092941284	36983573.91750925
1.3468321561813354	36921500.5565883
1.3511382341384888	39269129.648468874
1.3554422855377197	36449586.30317033
1.3597444295883179	36740648.70265776
1.3640443086624146	37389551.97666649
1.3683418035507202	39307251.02471043
1.3726370334625244	39464458.06445669
1.3769296407699585	40227759.8345238
1.381219506263733	36513002.78935391
1.3855066299438477	29470151.91942063
1.3897908926010132	41093534.02290084
1.3940720558166504	41838125.58178561
1.3983501195907593	42668641.36848793
1.4026249647140503	40902607.32200142
1.4068963527679443	39472292.57390749
1.4111642837524414	35569578.83797626
1.4154287576675415	42615711.84754787
1.419689416885376	40472097.72848467
1.4239463806152344	40259001.157623254
1.4281994104385376	40899591.5849461
1.4324485063552856	42799273.1235387
1.436693549156189	43237093.40658189
1.440934419631958	45547496.573139824
1.4451709985733032	45610387.43175369
1.449403166770935	46069051.06558352
1.453631043434143	45170238.21693391
1.4578542709350586	46721269.86748282
1.4620729684829712	45294788.472581826
1.4662868976593018	44193884.00211492
1.4704961776733398	45645627.254506655
1.4747005701065063	46571143.63122169
1.4788999557495117	46720068.988578245
1.4830944538116455	46958381.9899306
1.4872838258743286	46651903.55492451
1.491468071937561	48791816.9907078
1.4956470727920532	49335541.96269839
1.4998208284378052	48776312.61356118
1.5039892196655273	49261570.68524819
1.5081522464752197	50408285.24893703
1.5123097896575928	50429127.111863665
1.5164618492126465	50650205.44957085
1.5206083059310913	50582323.07042966
1.5247491598129272	51159930.43915702
1.5288842916488647	49832331.91060881
1.5330137014389038	52005749.326201096
1.5371372699737549	52037186.14294945
1.541254997253418	51941990.123127334
1.545366883277893	52677835.67499605
1.5494728088378906	52998768.723988496
1.5535727739334106	53228472.358783945
1.5576666593551636	53251587.4728438
1.561754584312439	53638094.29508008
1.5658363103866577	53983941.782870345
1.5699119567871094	54189628.56238798
1.5739814043045044	54392668.04203217
1.5780447721481323	54648999.27962363
1.582101821899414	54880582.24069125
1.5861525535583496	55088226.50670437
1.5901970863342285	55325701.71103305
1.5942351818084717	55540825.25962547
1.5982669591903687	55721976.950268514
1.6022924184799194	55958653.773263924
1.606311559677124	56165810.88935245
1.6103241443634033	56378292.45153959
1.6143304109573364	56596161.5822247
1.6183301210403442	56794692.53049103
1.6223233938217163	57003394.90002758
1.6263102293014526	57195488.15282015
1.6302905082702637	57390355.91110999
1.634264349937439	57591178.910302
1.638231635093689	57785197.45267575
1.6421923637390137	57998372.70748089
1.646146535873413	58180922.43038986
1.6500942707061768	58240110.83545263
1.6540353298187256	58556030.63291188
1.6579699516296387	58563607.729549415
1.661897897720337	58825074.85021876
1.6658192873001099	59126832.107935704
1.6697341203689575	59312718.49258036
1.6736423969268799	59496790.574502096
1.677544116973877	59617827.8581856
1.6814392805099487	59860810.9131412
1.6853278875350952	60027467.91874036
1.6892099380493164	60092584.336645044
1.6930854320526123	60314159.09660389
1.696954369544983	59865287.71420117
1.7008168697357178	60655818.18320669
1.7046726942062378	60912805.08908125
1.708522081375122	61044851.961000465
1.712364912033081	61180440.700258985
1.7162011861801147	61357441.5855766
1.7200311422348022	61485031.632552154
1.723854422569275	61621408.53204582
1.7276713848114014	61800846.440015145
1.731481909751892	61727389.59441997
1.7352858781814575	62143262.10774509
1.7390835285186768	62235437.70486296
1.7428747415542603	62287859.67657529
1.7466596364974976	62549625.74497085
1.7504380941390991	62261710.322946474
1.7542102336883545	57145479.27852121
1.7579760551452637	59579759.320698835
1.7617355585098267	60984328.039839976
1.7654887437820435	62533555.43068831
1.7692357301712036	63040047.14067627
1.7729763984680176	62620823.089219935
1.776710867881775	54215974.34570482
1.7804391384124756	54605124.96600246
1.7841613292694092	55876848.71360827
1.7878772020339966	52827236.06713208
1.7915871143341064	56087059.90832626
1.7952908277511597	59932936.09689775
1.7989884614944458	61767442.824499205
1.8026801347732544	59599177.52178906
1.806365728378296	63532310.66665052
1.8100452423095703	61600966.45496125
1.8137187957763672	61911918.85534236
1.817386507987976	57700340.77828711
1.8210482597351074	57018690.4074145
1.8247040510177612	61076632.7603435
1.828354001045227	62582882.28275617
1.8319982290267944	60294459.757438816
1.8356364965438843	51147083.739097126
1.8392690420150757	63346290.03405727
1.8428958654403687	65556208.79594392
1.8465168476104736	63850682.84906699
1.8501322269439697	64054947.67334467
1.8537418842315674	66004530.37401536
1.8573459386825562	65701837.93836677
1.860944390296936	59677850.79762314
1.864537239074707	49337196.4151943
1.8681244850158691	42736430.09396344
1.871706247329712	53707165.23184044
1.8752825260162354	58254386.93514179
1.8788533210754395	60604597.28615443
1.8824186325073242	62117156.74410008
1.8859784603118896	60832824.220817566
1.8895330429077148	65358928.95999731
1.8930821418762207	59974873.04265008
1.8966259956359863	61272513.01928908
1.9001644849777222	65403076.45581792
1.9036977291107178	66429656.44692718
1.9072256088256836	67244784.15458989
1.9107483625411987	67837451.85528083
1.9142658710479736	67944371.0539371
1.9177782535552979	67982377.58120981
1.9212853908538818	67890847.94661336
1.9247875213623047	67188906.00848806
1.9282845258712769	67879673.79019658
1.9317764043807983	67616552.99458285
1.9352631568908691	63886552.58488938
1.9387450218200684	65843408.69248758
1.942221760749817	66627666.5877784
1.9456936120986938	65176793.78060294
1.9491604566574097	68241377.46338175
1.952622413635254	67524994.20542221
1.956079363822937	61019510.304728106
1.959531545639038	64260855.27211284
1.962978720664978	65508633.63346748
1.966421127319336	63878277.22804616
1.9698586463928223	66642351.4078491
1.9732913970947266	68279806.71402116
1.9767193794250488	67772039.28022376
1.9801424741744995	66573312.02522526
1.9835609197616577	65560476.37911392
1.9869745969772339	66816514.56722393
1.990383505821228	69031726.5495894
1.9937876462936401	69271212.43194066
1.9971871376037598	69538972.51926303
2.000581979751587	68001437.13272288
2.003972291946411	69049224.40753627
2.007357597351074	69277297.88655028
2.0107386112213135	68098802.50186633
2.0141148567199707	68977555.90321834
2.017486572265625	69364143.93007813
2.0208535194396973	69447295.07810347
2.0242159366607666	69473168.33524102
2.027573823928833	68834879.25774357
2.0309269428253174	70159390.34474044
2.034275770187378	69463672.68406045
2.0376198291778564	67019728.9227644
2.040959596633911	68468436.85998815
2.044294595718384	70455126.05263239
2.0476250648498535	69664265.2118292
2.0509510040283203	69988628.71244617
2.054272413253784	70709583.00255215
2.057589530944824	71050051.99533492
2.0609018802642822	69955077.17995104
2.0642096996307373	69743584.23182511
2.0675129890441895	70933307.1278325
2.0708119869232178	70929039.0702527
2.074106216430664	71117640.14353572
2.0773961544036865	71253765.67054543
2.080681324005127	71325906.72206335
2.0839622020721436	71348917.19804396
2.087238311767578	71394212.26029825
2.090510129928589	71356000.96510169
2.0937774181365967	71178879.16809005
2.0970399379730225	71396601.54523595
2.1002981662750244	71735553.90967463
2.1035518646240234	71775200.809617
2.1068007946014404	71822697.04960768
2.1100454330444336	71873527.61694819
2.1132853031158447	71766971.97615954
2.116520881652832	71620156.93553571
2.1197516918182373	71661949.46298721
2.1229779720306396	72018532.33185391
2.12619948387146	72241913.83764549
2.1294167041778564	72112252.71054561
2.132629156112671	72225289.8966314
2.1358368396759033	72331763.66665146
2.139039993286133	72423040.94175328
2.1422386169433594	72595990.67431301
2.145432472229004	72553347.07635316
2.1486217975616455	72526963.61054604
2.151806354522705	72245330.82610537
2.1549863815307617	72265977.19222195
2.1581614017486572	72575313.58536838
2.16133189201355	72530253.51726097
2.1644976139068604	72599954.69412087
2.167658567428589	72714517.71315221
2.1708147525787354	72914756.80901024
2.173966407775879	72941394.48928103
2.1771130561828613	72918425.97369339
2.1802549362182617	73090210.73106676
2.183391809463501	73285015.76437023
2.1865241527557373	73320387.75798883
2.1896514892578125	73252933.77158695
2.1927738189697266	73184192.90934734
2.1958916187286377	73049869.9125458
2.1990041732788086	73247064.20548534
2.2021119594573975	73359209.88864459
2.2052149772644043	73346028.64889741
2.208312749862671	73408640.38595043
2.2114057540893555	73529048.87976766
2.214493751525879	73364552.35784328
2.217576742172241	73309336.4416531
2.2206547260284424	73538872.78702663
2.2237277030944824	73581472.58021714
2.2267956733703613	73401612.0095764
2.2298583984375	73444508.04556742
2.2329163551330566	73746174.62145407
2.235969066619873	73863391.87262374
2.2390167713165283	73697088.78116189
2.2420592308044434	73515581.79280517
2.2450966835021973	73408187.10212943
2.248128890991211	73614418.08866227
2.2511560916900635	73925960.42787342
2.254178285598755	74065935.03005727
2.257194995880127	74213060.35424328
2.260206699371338	74337951.92143941
2.2632133960723877	74327053.08959545
2.266214609146118	74371899.84052123
2.2692108154296875	74449442.23333105
2.2722020149230957	74344254.67831564
2.2751877307891846	74078204.48507218
2.278168201446533	74119963.94805959
2.2811436653137207	73557044.95658569
2.284113883972168	71787477.63022652
2.287078857421875	72738111.18436383
2.290038824081421	73913870.76266257
2.2929933071136475	74271358.85413408
2.295942783355713	74624425.67495874
2.298887014389038	74628745.18825379
2.301826238632202	74701820.28834662
2.304760217666626	74931117.96001475
2.3076889514923096	74775348.94657302
2.310612440109253	73967878.76179068
2.3135311603546143	73674826.252598
2.3164443969726562	74126405.80013958
2.319352865219116	74162794.44278558
2.322256088256836	72993494.45682012
2.3251543045043945	71754739.14037961
2.328047275543213	71490818.38403833
2.330935478210449	73042746.64946404
2.3338186740875244	74297204.84304123
2.3366971015930176	74248717.6537997
2.3395702838897705	74075449.76923932
2.3424389362335205	74213688.8760695
2.3453025817871094	73942954.86183235
2.348161458969116	73481566.94213204
2.351015567779541	72228075.29270446
2.353865146636963	71199939.54908857
2.3567099571228027	72491199.6045426
2.3595502376556396	74200267.10593541
2.3623859882354736	74151326.1568998
2.3652172088623047	70741802.86882713
2.368043899536133	66994585.49021633
2.370866537094116	70962870.68190236
2.3736846446990967	74196401.47282305
2.3764986991882324	71714447.24932075
2.3793084621429443	69580315.67842934
2.3821144104003906	72328586.3335357
2.384916305541992	73789846.4701743
2.387714147567749	73304608.71544683
2.3905084133148193	72030477.07259941
2.393299102783203	71592574.19555089
2.3960859775543213	73385536.72955407
2.398869514465332	73939345.9973232
2.4016497135162354	73585034.95737979
2.4044265747070312	72390525.5945485
2.407200336456299	66346214.19126023
2.409970998764038	60020176.98310789
2.4127390384674072	63936925.29758112
2.415503978729248	70010098.20175645
2.418266534805298	71987753.29577976
2.4210267066955566	68662976.11891998
2.4237842559814453	64294913.874384
2.426539897918701	65098427.83179363
2.429293394088745	66481004.38735883
2.4320452213287354	68243960.85217218
2.4347951412200928	70774950.46806213
2.4375438690185547	70423638.17886122
2.440291166305542	65392749.43855428
2.443037271499634	64497135.52889066
2.445782423019409	67927283.57644866
2.4485268592834473	70256689.98844038
2.451270818710327	69480484.83972126
2.454014539718628	66317243.593823515
2.4567582607269287	64868258.263867654
2.4595019817352295	63777114.86632219
2.4622461795806885	66523275.95631212
2.4649908542633057	70370184.45143072
2.4677364826202393	68215569.80424325
2.4704833030700684	64893105.60984453
2.473231554031372	66927232.14621399
2.4759814739227295	69008097.46346766
2.4787333011627197	65590003.05906945
2.481487512588501	62289948.29276017
2.4842441082000732	66005207.15237767
2.4870035648345947	67526811.08731693
2.4897661209106445	65322801.640023574
