#wavelength	surface flux
0.676892	1803761.7262815293
0.678297	1814528.8453923136
0.679702	1877889.278353324
0.681109	1915132.8215279796
0.682517	1958832.0832656368
0.683926	2001016.5692435026
0.685337	2023950.6614225414
0.686749	2058811.2033757041
0.688164	2096567.5886224208
0.689581	2140922.443172085
0.691	2179721.3186549773
0.692422	2229001.741340984
0.693847	2308747.774202403
0.695274	2384699.0367039065
0.696705	2427204.112755839
0.698139	2446772.729778632
0.699576	2496077.715743689
0.701017	2562852.9814406917
0.702461	2662079.235799791
0.70391	2756539.242377198
0.705362	2817520.9229817814
0.706819	2818763.9012477826
0.70828	2894028.4771106075
0.709745	2950811.2250972115
0.711216	3011411.3996932474
0.71269	3040498.258848012
0.71417	3108341.7420994756
0.715655	3224878.534500091
0.717145	3280860.462472018
0.71864	3359338.1412341413
0.72014	3421754.8026160253
0.721647	3509068.578826271
0.723158	3589048.241945678
0.724676	3695322.3429784076
0.726199	3776836.4939525267
0.727728	3819733.652169049
0.729264	3924934.0646342766
0.730805	4042857.5269201924
0.732353	4157745.683848695
0.733907	3989699.7806999376
0.735468	3829623.9531637644
0.737035	3977151.3636172367
0.738609	3885444.1063340153
0.74019	3915586.5588353463
0.741777	3916596.278188633
0.743372	4034500.1434118315
0.744973	4001288.6627178923
0.746582	4105501.69675435
0.748197	4232572.430989873
0.74982	4381054.197298153
0.751451	4437675.820619932
0.753088	4625632.880832704
0.754734	4766304.3395497855
0.756386	4935996.172994975
0.758047	5041318.349117706
0.759715	5194532.934225801
0.76139	5329948.821410176
0.763074	5372178.329408501
0.764765	4968358.835780395
0.766464	2834617.994503703
0.768172	4327979.01737299
0.769887	3657831.0945976637
0.77161	5193975.49943029
0.773341	5949524.157345524
0.775081	6315262.312020216
0.776829	6573471.849361861
0.778585	6619147.072265414
0.780349	5670622.322250075
0.782121	7059464.167692078
0.783902	7311493.156553571
0.785691	7521864.420419974
0.787489	7656259.46518676
0.789295	7808005.191082811
0.79111	7856084.4127085935
0.792933	7825660.21574591
0.794764	7808496.860628876
0.796604	8114708.936521478
0.798453	8213957.358298373
0.80031	8497094.107714297
0.802176	8394220.457409108
0.804051	8666828.613709876
0.805934	8908375.982314846
0.807826	9309177.716106825
0.809727	9880802.643019335
0.811636	10370517.928791009
0.813554	11172517.492300695
0.81548	11770133.299252208
0.817416	12287257.800034773
0.81936	11671228.40246487
0.821313	12101407.486823061
0.823274	13220320.28970165
0.825244	13767991.6547992
0.827223	13483809.018227242
0.829211	13457045.100619659
0.831208	13767803.481694069
0.833213	14014008.154165573
0.835227	14454083.747582406
0.837249	14797621.008389805
0.83928	15299255.891438883
0.841321	15667369.195399849
0.843369	14963381.59371953
0.845427	14275791.057921594
0.847493	14514894.830085577
0.849567	14971065.21335681
0.851651	15223989.962391699
0.853742	14201515.613792801
0.855843	14809509.691000473
0.857952	14808550.783532234
0.86007	14139344.619088655
0.862196	14587604.425936796
0.864331	14473021.496404735
0.866474	14585407.603126852
0.868626	14659897.684817167
0.870786	15134061.984089054
0.872955	15722274.418638296
0.875132	15906271.910853066
0.877317	16843408.190765213
0.879511	18753151.5763234
0.881713	19712122.310550466
0.883923	21335655.788625218
0.886142	22120910.909027047
0.888369	20209599.689529683
0.890604	21794482.2445709
0.892847	22234979.14781283
0.895099	22307467.041504208
0.897358	24188238.12772091
0.899626	25430511.564361654
0.901901	27834788.517864704
0.904185	30004838.30678629
0.906476	30493850.644986507
0.908776	30389669.630639236
0.911083	33222685.955371477
0.913398	35207597.11318253
0.915721	42350690.159703076
0.918051	43778600.73517062
0.92039	40945709.71560132
0.922736	33754618.22691697
0.925089	33129966.715909034
0.927451	31655624.703256316
0.929819	31113315.606093664
0.932195	31339984.18453996
0.934579	31877402.60374557
0.93697	34120063.00961243
0.939369	35302508.93093635
0.941774	37896112.8741029
0.944187	38549044.45800365
0.946607	45567945.547335505
0.949035	46759157.87845242
0.951469	46623370.81808218
0.953911	49417454.853283845
0.956359	53781146.6287932
0.958814	56772185.40749131
0.961277	53156753.56154047
0.963746	51104193.26022392
0.966222	55251856.74760701
0.968705	57040342.78287249
0.971194	55708200.0194778
0.97369	55438891.95325921
0.976193	58089201.658860855
0.978702	61318523.15190197
0.981217	59220000.50035355
0.983739	59559585.96397978
0.986268	69575371.18076287
0.988802	63902191.16908062
0.991343	46504202.58038521
0.99389	52434194.8246827
0.996444	59457831.71764509
0.999003	48926388.83390716
1.00157	57557576.86939504
1.00414	59255227.80323487
1.00672	58753685.994273126
1.0093	61383992.68071582
1.01189	63346170.208006635
1.01448	62290602.38279728
1.01708	56532894.56308351
1.01969	70224493.90261757
1.0223	72272457.34249514
1.02492	67305048.66478942
1.02754	60154461.61379468
1.03017	72831840.7222723
1.0328	80051546.83434173
1.03544	80919661.72781855
1.03808	85707147.34687349
1.04073	92479581.05086678
1.04339	88003291.99634995
1.04604	90019558.1904001
1.04871	96200521.94988625
1.05138	89022522.7633668
1.05405	93786253.83152121
1.05673	89368261.37504326
1.05941	96573075.23695132
1.0621	103177838.24713112
1.06479	108412362.10349986
1.06749	113554430.41133402
1.07019	132533541.00441909
1.07289	129574377.26072992
1.0756	129803282.95735465
1.07832	132084426.5529562
1.08104	117844396.76183653
1.08376	143884891.13540927
1.08649	120640908.79859038
1.08922	138801390.64236262
1.09195	122868000.03143764
1.09469	133782267.83097252
1.09743	114808264.12543263
1.10018	114729458.67258695
1.10293	116791780.79095125
1.10568	102961345.41398652
1.10844	103057290.6853681
1.1112	107874263.44843167
1.11396	105723178.03742698
1.11673	108977975.91554339
1.1195	113945654.1109158
1.12228	109637501.53182688
1.12505	122760883.9900066
1.12783	124452595.9491324
1.13062	131331559.62388547
1.13341	112934174.56153937
1.1362	112754073.36005121
1.13899	106546386.34287319
1.14178	118058730.84617892
1.14458	128680825.8163536
1.14738	136307146.91341227
1.15019	156269270.005549
1.153	151183060.6394773
1.1558	141307479.58483362
1.15862	155575434.3210835
1.16143	123873755.21194036
1.16425	131207927.76535666
1.16707	133901314.63438903
1.16989	112850884.95977187
1.17271	140995541.85404462
1.17554	124038911.82604918
1.17837	106625268.96426523
1.1812	145696902.77601317
1.18403	164767187.1787262
1.18686	145690394.25736842
1.1897	151305760.85993466
1.19253	148112023.7264259
1.19537	163344704.4181288
1.19822	146962439.27820778
1.20106	172783481.76505867
1.2039	162874819.36489895
1.20675	177105461.1291853
1.2096	177541049.0744562
1.21245	179950455.99267358
1.2153	197458231.07324725
1.21815	193272538.67419037
1.221	194116815.1568011
1.22385	193166007.82255784
1.22671	218114389.9283026
1.22957	205025422.08024678
1.23242	213304062.67152315
1.23528	207207236.19291073
1.23814	219946482.2426128
1.241	194934719.6877931
1.24387	181889047.0089778
1.24673	218840447.92247996
1.24959	211231443.9013122
1.25245	174817457.78011775
1.25532	202190751.597356
1.25818	226478320.36266443
1.26105	229030682.56446394
1.26392	222086171.95825604
1.26678	239672591.2663085
1.26965	254494899.57232088
1.27252	245216573.0058121
1.27538	252518825.1612074
1.27825	240652440.83996254
1.28112	249245883.6837913
1.28399	244271774.23011762
1.28686	245210741.02146903
1.28973	245438626.0136581
1.2926	245889288.5627013
1.29546	252923540.58846468
1.29833	255185711.31655043
1.3012	265439651.2632719
1.30407	260838781.70873663
1.30694	227338395.96262985
1.30981	250063458.64126375
1.31267	254504260.4748467
1.31554	237580789.27910146
1.31841	250023402.44259545
1.32128	258228698.2372752
1.32414	220763635.76330128
1.32701	196587265.91681272
1.32987	199915224.21944636
1.33274	139425659.12227592
1.3356	132781935.04133348
1.33847	108691934.01273753
1.34133	95435625.1588629
1.34419	110225196.31283048
1.34705	111709927.81227587
1.34991	130906181.25427625
1.35277	141880745.67460924
1.35563	115621119.36357525
1.35849	115139199.4251976
1.36135	109226693.19970949
1.3642	116456606.22759941
1.36706	120067393.77344957
1.36991	125014934.20433465
1.37277	121539213.42849943
1.37562	122936068.26514421
1.37847	115131366.37618475
1.38132	112802475.4928078
1.38417	91657724.38401835
1.38701	89704258.80359623
1.38986	122065700.26642986
1.39271	120081837.34639801
1.39555	120850313.99943018
1.39839	133228719.20265833
1.40123	130034388.07561226
1.40407	122006501.39542454
1.40691	113791336.94813897
1.40974	91532473.71597333
1.41258	116349317.65474615
1.41541	124710495.22689936
1.41824	107852139.8436768
1.42107	104663030.47698447
1.4239	108542649.83266947
1.42673	111568870.75858031
1.42955	120535768.89420459
1.43237	121105509.22312027
1.43519	116833881.20303096
1.43801	133811664.8564214
1.44083	133969427.7501696
1.44365	126665637.86270382
1.44646	127795123.41753851
1.44927	134487143.9458324
1.45208	137698910.53205264
1.45489	130553027.18621033
1.45769	140682425.4421699
1.4605	138471031.94841033
1.4633	118653175.29038493
1.4661	120050624.14189248
1.4689	116591311.22766656
1.47169	128575944.99221258
1.47449	125830084.49243635
1.47728	130896324.65623459
1.48007	130149535.7112542
1.48286	138611259.2077962
1.48564	140695890.21803355
1.48842	138004175.6011993
1.4912	136270559.18134883
1.49398	145446980.3824457
1.49676	140654182.94205952
1.49953	137292934.16173998
1.5023	138146284.9284766
1.50507	156599200.21241635
1.50784	158637665.08658013
1.51061	163935352.32971257
1.51337	157629719.94741875
1.51613	158848503.67049477
1.51888	156375420.9306865
1.52164	153129680.1579267
1.52439	162931696.70346934
1.52714	153970777.52736893
1.52989	154860128.00388813
1.53263	167659431.83755863
1.53538	170620465.09895912
1.53812	160486298.08843037
1.54086	150145543.71906984
1.54359	165594477.05312565
1.54632	182056243.1610321
1.54905	169123504.92718047
1.55178	177315711.52881908
1.5545	187113287.667469
1.55723	185227436.79541546
1.55995	182727533.61738673
1.56266	179857957.70555055
1.56538	183533156.72775617
1.56809	200540258.22355756
1.5708	205934822.64705756
1.57351	202589478.69191307
1.57621	218747025.5169153
1.57891	219463303.3739832
1.58161	210314310.20211706
1.5843	200342525.0237967
1.587	215681394.1848562
1.58969	224166253.34876198
1.59238	216827386.21092665
1.59506	225831763.22581246
1.59774	231147312.03912592
1.60042	237750572.50948834
1.6031	251989230.307236
1.60577	241019342.54422584
1.60844	228936794.6592674
1.61111	239750353.34758452
1.61378	247851820.08404085
1.61644	252145148.15830976
1.6191	259220906.3255117
1.62176	257882249.26975945
1.62441	256507524.2172258
1.62707	251427262.36144385
1.62971	255217757.58651772
1.63236	262457714.83891305
1.635	262740399.62091774
1.63764	262440707.1944893
1.64028	260964040.0463707
1.64292	267505173.7763377
1.64555	274468655.75473636
1.64818	268211744.9331937
1.65081	254089340.7041967
1.65343	276586827.08320034
1.65605	277320774.56784695
1.65867	259827017.7620981
1.66128	270976461.22550404
1.6639	286349981.20046
1.66651	275781235.1767719
1.66911	278882382.76783645
1.67172	280894556.9631635
1.67432	277549694.4600998
1.67692	271662710.5674494
1.67951	286177737.8062727
1.68211	293563674.43006825
1.6847	287855388.1792193
1.68728	275577210.70623684
1.68987	272788208.7454481
1.69245	268923972.6074961
1.69503	254211368.98675072
1.6976	239606385.5146834
1.70018	246063391.6762664
1.70275	262622356.51262784
1.70531	264587272.87074012
1.70788	266858727.09107998
1.71044	246217241.3215556
1.713	233947985.3856583
1.71556	236331839.4318374
1.71811	229282757.98331207
1.72066	226577186.15261987
1.72321	216284985.44383726
1.72575	219058923.01461208
1.7283	217508833.58128262
1.73084	207461881.68116853
1.73337	202126625.965986
1.73591	211377072.47693545
1.73844	211587878.18193394
1.74097	198373370.5002645
1.74349	190083643.98590848
1.74602	191985597.4208844
1.74854	207489398.06342807
1.75105	206411657.2824263
1.75357	175041592.9241019
1.75608	154622245.31517142
1.75859	147842128.75955483
1.7611	159922347.86383915
1.7636	167371009.06311134
1.7661	159199814.35739514
1.7686	164860027.17347583
1.7711	177087001.85308546
1.77359	165087587.51689228
1.77608	137219945.87999114
1.77857	135303551.01395613
1.78105	137207167.18373132
1.78354	137908872.00646046
1.78602	132932892.14327279
1.78849	144283270.897409
1.79097	146750360.1929706
1.79344	142870060.36286715
1.79591	152232185.8020267
1.79837	154419025.5370404
1.80084	138465434.65183094
1.8033	148814489.53951243
1.80576	152813316.09076467
1.80821	144367621.50772822
1.81067	145538291.90388742
1.81312	150350995.56006974
1.81557	152843505.5941622
1.81801	130969053.08975248
1.82046	132212022.70144245
1.8229	143140447.30841598
1.82533	155160953.47070587
1.82777	147146472.61697608
1.8302	145622262.70037884
1.83263	132869429.47807652
1.83506	110024798.19056985
1.83749	125661940.64379293
1.83991	146801584.96848556
1.84233	154560272.92669192
1.84475	150037997.79220784
1.84716	142832306.52826267
1.84957	148917764.88572928
1.85198	157660224.06411237
1.85439	151275392.4735154
1.8568	141700607.689946
1.8592	137480968.93908682
1.8616	122248059.64672983
1.864	110667726.7613066
1.86639	105900586.61715698
1.86878	106649366.21111386
1.87118	127956693.49551569
1.87356	135539843.07101497
1.87595	136158702.8788214
1.87833	143485354.49702537
1.88071	155617775.2295566
1.88309	154247389.81900665
1.88547	148877951.94711918
1.88784	153417992.0425172
1.89021	156255921.3526034
1.89258	143513560.66045463
1.89494	137814005.71641842
1.89731	141313364.3363577
1.89967	143511137.76547855
1.90203	151031554.41122946
1.90439	151765899.0543461
1.90674	156583146.640105
1.90909	165750862.73807338
1.91144	165104891.50222453
1.91379	163909244.73549426
1.91613	165010072.2072582
1.91848	168572361.86337498
1.92082	167041921.91079924
1.92315	159665981.80228633
1.92549	155556547.11185542
1.92782	160826818.8572343
1.93015	166140105.6829976
1.93248	159989697.6976319
1.93481	141472211.14312685
1.93713	130733598.8717777
1.93945	138005292.64884704
1.94177	149350810.8377784
1.94409	148452610.199055
1.94641	151570796.6494956
1.94872	162148923.26370668
1.95103	165996362.60818636
1.95334	160753796.830179
1.95564	144394000.7054654
1.95795	139684568.0173255
1.96025	145099958.38836944
1.96255	145962235.12617305
1.96484	141014354.39986876
1.96714	138595886.24630925
1.96943	143071653.97259647
1.97172	153231151.62280613
1.97401	153275257.11042884
1.97629	147369156.048782
1.97858	148387516.54823902
1.98086	143779041.31194398
1.98314	139208153.50427267
1.98541	143685332.9731343
1.98769	153921699.571658
1.98996	158977169.29322127
1.99223	158385352.7298561
1.9945	163480086.6360201
1.99677	165530459.82739362
1.99903	156566693.00922027
2.00129	146755649.25257257
2.00355	148677057.78822666
2.00581	151119208.1238651
2.00806	145485954.93299612
2.01031	142819481.92751315
2.01256	153170828.15824583
2.01481	160195105.2801298
2.01706	152404682.3356841
2.0193	145773431.051562
2.02154	151959623.2998833
2.02378	158823621.71533093
2.02602	152876158.14932176
2.02825	149783219.46985802
2.03049	159653672.2232382
2.03272	162931139.69873467
2.03494	149625190.76059732
2.03717	136343637.3295866
2.03939	140644821.9594618
2.04162	154457822.963524
2.04384	162860311.53315774
2.04605	161169231.4984757
2.04827	154285494.06774235
2.05048	155751283.37446645
2.05269	161792976.4585113
2.0549	169967051.8727802
2.05711	176594660.36437827
2.05931	173666875.45862454
2.06151	164504785.50808594
2.06371	160164217.93804306
2.06591	164621766.8120144
2.06811	167445273.73388526
2.0703	163422199.93300155
2.07249	165641661.0170173
2.07468	170917984.26234365
2.07686	171158923.04090154
2.07905	170541859.51680812
2.08123	170753210.91242746
2.08341	170792099.14478788
2.08559	170762601.48673773
2.08776	170578546.77942827
2.08994	169684521.93749243
2.09211	167496353.9005083
2.09428	163914901.9234481
2.09645	164347997.5881416
2.09861	170763605.98491895
2.10077	176001252.09111497
2.10293	177385630.71628255
2.10509	177715973.0829715
2.10725	178167931.88014537
2.1094	178114499.56542236
2.11155	176322167.906252
2.1137	172176902.68671402
2.11585	168886749.17892408
2.11799	166733959.9033435
2.12013	166766356.95037636
2.12227	173048925.39725697
2.12441	181188214.66163284
2.12655	181897857.7722103
2.12868	177121167.5343355
2.13081	177098729.96174607
2.13294	182521519.30683807
2.13507	185756210.77478433
2.13719	185056480.24173597
2.13931	185977560.79949996
2.14143	190422051.27974004
2.14355	191476426.49374372
2.14567	188653916.53900313
2.14778	187178129.13209128
2.14989	184882517.62469777
2.152	180302580.14206675
2.1541	179093505.26378635
2.15621	182760553.8569762
2.15831	183786327.37178987
2.16041	180569374.43576002
2.16251	178795144.3115097
2.1646	179695374.48912504
2.1667	181758912.98282835
2.16879	185369903.4265598
2.17087	188277749.54918057
2.17296	188071689.2722725
2.17504	185754566.9462492
2.17713	185091083.6807968
2.1792	187928392.74383956
2.18128	191238500.03719586
2.18336	193017635.8493127
2.18543	192601403.47682714
2.1875	190222311.84206697
2.18957	188637757.00763083
2.19163	187351521.2684466
2.1937	184366018.12950078
2.19576	182068841.52455822
2.19782	183020605.91609588
2.19987	185175375.01253334
2.20193	184823019.19443473
2.20398	183681055.5046207
2.20603	183618437.6740078
2.20808	185671557.25443235
2.21012	187889304.15068734
2.21217	186514955.65670264
2.21421	184098827.01377264
2.21625	182808450.36373565
2.21828	182177628.92275563
2.22032	183314681.26046094
2.22235	184128902.0178737
2.22438	181617401.16526803
2.22641	177854197.54553747
2.22843	176267196.86802736
2.23046	178522014.18597594
2.23248	181946667.9804551
2.2345	183170240.0113346
2.23651	182460384.11116374
2.23853	179986169.21540257
2.24054	178251874.88925627
2.24255	177003312.62487945
2.24456	175688979.5614869
2.24657	174778704.80121645
2.24857	175481367.84488302
2.25057	177925059.62569347
2.25257	179574119.75996497
2.25457	180293624.15689212
2.25656	180733874.96360222
2.25856	182164239.94707382
2.26055	182678363.5621652
2.26254	180118817.82520032
2.26453	177726484.78065884
2.26651	178600499.58173993
2.2685	180074755.48300242
2.27048	178327546.2705574
2.27246	174971209.4039896
2.27443	173234207.45153868
2.27641	173692617.9118743
2.27838	175284078.04570445
2.28036	176012344.35866612
2.28233	171426126.41959304
2.28429	166577752.78319335
2.28626	166850751.45023564
2.28823	168753936.34756365
2.29019	165953487.95789042
2.29215	163879303.94315168
2.29411	165332309.4775515
2.29607	167354213.37995723
2.29802	166561359.45180243
2.29998	164184555.14868912
2.30193	165384155.18713802
2.30388	169570294.2029269
2.30583	173100733.96751392
2.30778	172129591.8591324
2.30972	165960002.7061412
2.31167	157977361.6267441
2.31361	155089401.02140635
2.31555	158993709.124973
2.31749	163457901.18815517
2.31943	162294605.95762601
2.32137	156105514.69090912
2.32331	150421952.52992028
2.32524	146556740.04078832
2.32718	142517385.6773658
2.32911	141051106.5692013
2.33104	144542423.2596038
2.33297	149672286.02736667
2.3349	153510430.62874195
2.33683	153413978.16916344
2.33876	151326165.67545122
2.34068	151648736.86850578
2.34261	153139391.45491457
2.34453	153415572.78787684
2.34646	152243774.24879658
2.34838	149031334.55694076
2.3503	144012721.12718853
2.35223	140136332.94654134
2.35415	140477746.44579035
2.35607	144303359.31313074
2.35799	148573012.00682083
2.35991	150716212.06712106
2.36183	152639516.60709152
2.36375	152852585.22904012
2.36566	145934788.5318262
2.36758	138344042.3868912
2.3695	139383261.38128453
2.37142	148757247.16407192
2.37334	154833078.41973716
2.37526	151900408.3438782
2.37718	141854422.35597128
2.3791	135470383.8081445
2.38101	138322777.24810398
2.38293	145110972.46403936
2.38485	147337428.92935836
2.38677	147634362.63949758
2.3887	147768864.14320537
2.39062	144402869.8790658
2.39254	140134004.05706906
2.39446	139893459.78471974
2.39639	142683159.85326898
2.39831	143228281.45623428
2.40024	141796482.32117948
2.40216	141505590.75716344
2.40409	140804218.81163162
2.40602	133702266.26129499
2.40795	119832684.89007841
2.40989	110713822.86821139
2.41182	113032058.42108327
2.41376	122188209.63611446
2.4157	130251292.13314275
