#wavelength	surface flux
0.676892	1021836.4657109743
0.678297	1021402.4422976148
0.679702	1060614.0908670037
0.681109	1077984.8367669247
0.682517	1102926.906715219
0.683926	1124856.3078865022
0.685337	1139630.3819762778
0.686749	1158274.0437707861
0.688164	1176694.2421637066
0.689581	1198635.8780977458
0.691	1220510.7787093876
0.692422	1242403.4668278222
0.693847	1278260.0646664524
0.695274	1309144.677340665
0.696705	1329719.772547725
0.698139	1340843.6993675171
0.699576	1362551.0867265295
0.701017	1389220.2892896144
0.702461	1435113.1059238347
0.70391	1460698.3319719264
0.705362	1475373.7523248892
0.706819	1491275.8716951527
0.70828	1530897.5858310878
0.709745	1555873.424925617
0.711216	1576965.2044864376
0.71269	1592188.126473534
0.71417	1626073.6419216066
0.715655	1676433.9834041528
0.717145	1704091.5325402855
0.71864	1738653.2598862052
0.72014	1764075.849489723
0.721647	1806487.6032626238
0.723158	1840169.620609105
0.724676	1890375.1496739602
0.726199	1927107.281525157
0.727728	1945461.8158557543
0.729264	1986095.6544748964
0.730805	2034205.9833274938
0.732353	2078291.9228582734
0.733907	2044325.116133654
0.735468	2012865.2524755565
0.737035	2057840.2039721813
0.738609	2077669.6546877043
0.74019	2109652.159370771
0.741777	2138648.079474774
0.743372	2182324.1303117992
0.744973	2207653.567796103
0.746582	2251513.5130667067
0.748197	2297335.849585293
0.74982	2345952.6066248445
0.751451	2384207.121813815
0.753088	2437083.4404328284
0.754734	2483964.453740741
0.756386	2523430.2062062263
0.758047	2580625.373667483
0.759715	2635825.3435472604
0.76139	2690525.979609847
0.763074	2741207.6628174772
0.764765	2740601.5523035247
0.766464	2266561.361832277
0.768172	2712239.218329073
0.769887	2547324.4873924702
0.77161	2908976.576543929
0.773341	3046718.677463474
0.775081	3125448.9858035734
0.776829	3197691.131798079
0.778585	3196011.488716741
0.780349	2747512.0877919244
0.782121	3353092.25183401
0.783902	3447245.822591417
0.785691	3507336.7621851116
0.787489	3549439.251056832
0.789295	3597856.0521005956
0.79111	3625410.4710485446
0.792933	3657481.114930189
0.794764	3706504.046270919
0.796604	3770231.8850225266
0.798453	3823850.7693919986
0.80031	3897951.5532834833
0.802176	3943172.65160382
0.804051	4014028.0932096224
0.805934	4084615.9802884455
0.807826	4163902.414650492
0.809727	4252997.891543303
0.811636	4335696.811226176
0.813554	4432563.765358264
0.81548	4536399.033153916
0.817416	4672217.789305416
0.81936	4749540.891223625
0.821313	4855897.301345954
0.823274	5026134.257601982
0.825244	5124969.643104086
0.827223	5177399.81924025
0.829211	5282446.054474754
0.831208	5381942.492872641
0.833213	5449815.756224878
0.835227	5555791.605148094
0.837249	5645098.1021909015
0.83928	5757765.268441663
0.841321	5853272.185891347
0.843369	5896518.131698551
0.845427	5906727.905057403
0.847493	6003592.713223474
0.849567	6108682.174039514
0.851651	6207211.797038929
0.853742	6096560.518813689
0.855843	6167949.883307154
0.857952	6264364.879905187
0.86007	6313470.764290234
0.862196	6423388.215700103
0.864331	6507530.756730661
0.866474	6609561.3402999155
0.868626	6707215.203782523
0.870786	6824378.365183628
0.872955	6941789.021812278
0.875132	7050552.570989489
0.877317	7179937.354010332
0.879511	7331106.557209244
0.881713	7458541.8970154105
0.883923	7601851.607898087
0.886142	7778382.927801095
0.888369	7948834.75774814
0.890604	8180814.921546163
0.892847	8343541.429956431
0.895099	8475403.270924218
0.897358	8720666.105295526
0.899626	8899151.011341462
0.901901	9201366.161521152
0.904185	9401689.67984318
0.906476	9578115.96869314
0.908776	9629615.517831067
0.911083	9860278.347589875
0.913398	10185197.438830191
0.915721	11076248.40209099
0.918051	11129621.769936217
0.92039	10883095.038719857
0.922736	10513259.745171815
0.925089	10561532.537106365
0.927451	10517484.11553362
0.929819	10745962.91309125
0.932195	10840049.196325487
0.934579	10865743.474469196
0.93697	11229961.916800337
0.939369	11422172.770434331
0.941774	11630900.05490987
0.944187	11697565.36152768
0.946607	12351211.063829822
0.949035	12379248.95264739
0.951469	12514740.204870133
0.953911	13025495.520033604
0.956359	13339393.65714182
0.958814	13474277.530952385
0.961277	13445122.629317783
0.963746	13436365.244149873
0.966222	13782926.105791923
0.968705	14109631.121154001
0.971194	14386286.760706028
0.97369	14785180.577639109
0.976193	14906326.164003951
0.978702	15667080.759537347
0.981217	15399190.549021108
0.983739	15659002.827682817
0.986268	16432242.160513718
0.988802	16153222.174352014
0.991343	16050239.144323234
0.99389	16491850.6882594
0.996444	17191874.661393974
0.999003	16503790.930418774
1.00157	17636826.962976508
1.00414	17663488.219434775
1.00672	17976008.034163002
1.0093	17951461.956996344
1.01189	18297527.051587056
1.01448	18412707.14646702
1.01708	17995451.300113373
1.01969	19676155.155871227
1.0223	20061120.89559094
1.02492	19980790.217735145
1.02754	19153407.34424654
1.03017	20720750.08496757
1.0328	21785426.0417867
1.03544	22153853.517854035
1.03808	22432066.162925437
1.04073	23528493.485922426
1.04339	23299603.45365037
1.04604	23421534.378517788
1.04871	23023441.538317945
1.05138	23930848.656262446
1.05405	24416487.869808394
1.05673	23870494.200737637
1.05941	25236040.296962097
1.0621	24968170.71771577
1.06479	25516258.589350294
1.06749	26409346.865800463
1.07019	29469108.596711528
1.07289	30311309.004082978
1.0756	30080687.99425065
1.07832	30278361.152911447
1.08104	29147680.59693156
1.08376	32161076.027344454
1.08649	30416657.722114895
1.08922	32663603.849284433
1.09195	30899050.38680643
1.09469	31050278.580262993
1.09743	30722491.437248863
1.10018	30705372.189520184
1.10293	31919811.15960205
1.10568	29924195.331034616
1.10844	29792895.38706622
1.1112	31568741.492975995
1.11396	31659894.5106761
1.11673	31405677.879903723
1.1195	32028328.100770365
1.12228	32827872.057032716
1.12505	35514698.33549031
1.12783	33843793.149032794
1.13062	35810728.02294907
1.13341	35095460.56427677
1.1362	33685538.35311011
1.13899	34449350.27610832
1.14178	36654161.15252683
1.14458	37082600.071643606
1.14738	38490166.51388775
1.15019	40775864.73840483
1.153	40659817.52989453
1.1558	39057151.28210028
1.15862	42297317.03276406
1.16143	38019266.702198975
1.16425	39897781.02927983
1.16707	41881737.34371327
1.16989	37526285.41752328
1.17271	41279230.43312998
1.17554	39654934.933322564
1.17837	37884006.51140052
1.1812	42578192.25984263
1.18403	46631947.71182546
1.18686	42943821.21734614
1.1897	45172154.04350157
1.19253	44199088.63272849
1.19537	48399569.78873982
1.19822	43811199.37511275
1.20106	49363824.40809702
1.2039	47578360.120143875
1.20675	50434652.86429432
1.2096	51080322.668414496
1.21245	53203518.07689868
1.2153	54678964.19073165
1.21815	53701195.08117627
1.221	54975300.65938149
1.22385	53617405.271600425
1.22671	62637112.85802815
1.22957	61225066.00679874
1.23242	60946004.24905673
1.23528	60998059.09544538
1.23814	63106316.5528195
1.241	61207515.20247531
1.24387	60241335.54047728
1.24673	64308095.76106049
1.24959	64854808.7395775
1.25245	61089629.558521
1.25532	62717412.69744567
1.25818	67763495.0160492
1.26105	69037483.4314364
1.26392	68898147.82983923
1.26678	72044981.98900247
1.26965	78618084.45512913
1.27252	75810514.69644962
1.27538	78167741.65314606
1.27825	74910996.08010788
1.28112	75289557.7991063
1.28399	78254476.32594715
1.28686	77935751.32214111
1.28973	78212783.89570479
1.2926	78437252.45295988
1.29546	81262973.7243492
1.29833	84100507.40249288
1.3012	85767503.85791053
1.30407	82752992.51277858
1.30694	76849480.00193827
1.30981	83136233.32805407
1.31267	85424346.5716521
1.31554	80346679.89575559
1.31841	86600026.3158259
1.32128	88768063.63456182
1.32414	78381327.92910041
1.32701	73585713.64102775
1.32987	76015945.37045282
1.33274	66351917.16215335
1.3356	65364513.975702226
1.33847	55747922.79033774
1.34133	51480078.26323057
1.34419	56697737.8962558
1.34705	57354341.341872364
1.34991	65036498.54279624
1.35277	70532181.23812303
1.35563	62106637.01882031
1.35849	60958235.86096039
1.36135	56229296.35096848
1.3642	60079086.97318064
1.36706	61429883.004377946
1.36991	63690595.02111558
1.37277	62563534.86814934
1.37562	62718870.9716122
1.37847	61374269.250336036
1.38132	58820285.034926414
1.38417	51262631.56528654
1.38701	51961240.03899077
1.38986	63204545.94739409
1.39271	63940357.89951921
1.39555	64006653.7771516
1.39839	69282935.98333113
1.40123	66528691.632056765
1.40407	64774720.27704868
1.40691	61396623.65236415
1.40974	52011853.45529815
1.41258	62926370.3223339
1.41541	66360433.835538276
1.41824	61443981.42902301
1.42107	60269292.28399054
1.4239	61917292.30324386
1.42673	62803405.22678577
1.42955	67520182.73629308
1.43237	67136806.6216922
1.43519	65768435.87546108
1.43801	72843724.36826417
1.44083	72629136.67255245
1.44365	69525433.98267427
1.44646	70325750.75781691
1.44927	73505026.91384262
1.45208	75182541.46122868
1.45489	72988288.6834671
1.45769	75059900.19138063
1.4605	73840467.52027243
1.4633	67931392.39589308
1.4661	68058047.1456809
1.4689	67294624.85809156
1.47169	70617983.68828021
1.47449	70282710.32597911
1.47728	73031991.53040604
1.48007	73843681.22901848
1.48286	76856330.1041901
1.48564	77613043.75491172
1.48842	75942578.0821217
1.4912	76133647.70608747
1.49398	79617094.02892493
1.49676	76645370.92039959
1.49953	75834231.87518962
1.5023	76415703.83774188
1.50507	84261072.88548574
1.50784	85690782.9234094
1.51061	89410778.57156199
1.51337	85249128.68979242
1.51613	87493867.5324824
1.51888	86602440.24756756
1.52164	84146745.68199663
1.52439	86228496.8350118
1.52714	85218301.16027239
1.52989	86496638.15848069
1.53263	91012762.85670951
1.53538	91118765.82184468
1.53812	87564170.67468153
1.54086	83330393.16661079
1.54359	90617273.01710822
1.54632	97867496.20422363
1.54905	90938459.22316343
1.55178	95592280.95524377
1.5545	100837192.11872031
1.55723	96176151.13828486
1.55995	93777960.52197269
1.56266	95410146.00083332
1.56538	95534199.57161464
1.56809	101714741.3455327
1.5708	107570573.49986413
1.57351	104661044.25177473
1.57621	115524006.96003179
1.57891	114070897.3840481
1.58161	106485318.09431285
1.5843	104106096.09197773
1.587	115104236.32692192
1.58969	119105301.95915456
1.59238	113153888.38306665
1.59506	116824342.93157312
1.59774	119263912.54899476
1.60042	124389791.94696096
1.6031	137132571.77878886
1.60577	129416842.38985506
1.60844	119050335.90222867
1.61111	128228571.10136773
1.61378	134172404.3915313
1.61644	135038585.47353786
1.6191	140717663.6693723
1.62176	139059264.68735072
1.62441	139424976.7263884
1.62707	136148912.23384845
1.62971	138282688.55731028
1.63236	142856776.80372846
1.635	142393566.95952657
1.63764	139979418.230806
1.64028	141231435.21973816
1.64292	147549534.91640607
1.64555	155297498.087497
1.64818	152791942.2252764
1.65081	141024594.90359074
1.65343	157526100.46971306
1.65605	156090867.61354834
1.65867	145053189.005179
1.66128	156372306.65164968
1.6639	164304452.0914101
1.66651	155550544.1417967
1.66911	161840010.8221924
1.67172	164824363.88817912
1.67432	162824568.948137
1.67692	156990262.98175704
1.67951	172160730.46975777
1.68211	178797105.28050116
1.6847	174077643.05076513
1.68728	162286385.84878516
1.68987	166589874.01851422
1.69245	161087042.09470323
1.69503	151224870.29489753
1.6976	147287039.26132503
1.70018	151651117.08984238
1.70275	167698807.28786394
1.70531	169257794.28626865
1.70788	170698438.2338197
1.71044	157640299.78995454
1.713	148014994.39967698
1.71556	149768269.04186434
1.71811	144598603.47479543
1.72066	142661802.20143723
1.72321	140613541.9329163
1.72575	144280739.6945211
1.7283	139488604.58595976
1.73084	129337151.85095415
1.73337	131315302.7582676
1.73591	140428156.59029025
1.73844	138895730.85569555
1.74097	131051782.41499431
1.74349	130100697.28754002
1.74602	129696279.88652638
1.74854	138651079.9160018
1.75105	139670731.50231653
1.75357	118412987.97631037
1.75608	101734065.79860295
1.75859	97299655.93473996
1.7611	108078909.3211718
1.7636	116215864.3791146
1.7661	110425787.36466771
1.7686	116397143.89220892
1.7711	124574691.54706068
1.77359	116299155.16800922
1.77608	98112049.89344342
1.77857	93594746.07112233
1.78105	96246905.01806168
1.78354	97569142.44491905
1.78602	94305247.35166174
1.78849	103908117.2433104
1.79097	107084844.39542222
1.79344	103996445.78504802
1.79591	107853016.53963411
1.79837	107233402.71094228
1.80084	99295632.34209222
1.8033	106673315.9409195
1.80576	107888571.39153136
1.80821	102528025.8308345
1.81067	104676345.68203917
1.81312	108800392.75769192
1.81557	110717460.91822419
1.81801	96549230.77887046
1.82046	97661776.47041777
1.8229	104413421.17820734
1.82533	111135504.77444705
1.82777	106351874.86689697
1.8302	104688479.62320952
1.83263	96729265.15610996
1.83506	81582909.2902339
1.83749	90224971.74530207
1.83991	104197172.3257021
1.84233	108098665.5589106
1.84475	105795132.93695678
1.84716	104141402.51382814
1.84957	106836401.59149957
1.85198	109584078.73146917
1.85439	107152228.93280123
1.8568	101935984.41803378
1.8592	99531218.57340631
1.8616	91324424.32709935
1.864	85488567.75925945
1.86639	82321474.9260532
1.86878	78787978.10821715
1.87118	90350770.61358629
1.87356	96412547.90904342
1.87595	98624231.3467631
1.87833	105209677.87998863
1.88071	116595409.26563242
1.88309	117271656.80493468
1.88547	112044719.77956586
1.88784	112300355.19766043
1.89021	111733722.36701216
1.89258	101057709.66121604
1.89494	96475257.23478489
1.89731	101215140.90736683
1.89967	103847938.91914174
1.90203	109650705.51712711
1.90439	111438717.35577811
1.90674	114447170.4110915
1.90909	121544399.17817357
1.91144	122607081.16942674
1.91379	121046563.84612204
1.91613	119046359.09097801
1.91848	121234719.75335331
1.92082	121407391.09436788
1.92315	116373917.5204044
1.92549	110747218.41208819
1.92782	112962085.68038961
1.93015	118580364.24246511
1.93248	115371855.54733735
1.93481	103601222.98610651
1.93713	99606833.02084711
1.93945	106063593.15317218
1.94177	111333116.40994157
1.94409	109021750.28543806
1.94641	111559346.89631769
1.94872	119994421.14224556
1.95103	121984599.7644884
1.95334	118273897.65155625
1.95564	107296448.23650262
1.95795	103649535.36155088
1.96025	107889279.29741661
1.96255	108872405.42249185
1.96484	105748348.07122838
1.96714	104450859.14065148
1.96943	106480165.44754945
1.97172	111812036.21159117
1.97401	112272343.33714944
1.97629	109991959.86018988
1.97858	113196657.5996512
1.98086	110946850.12921403
1.98314	105818026.63236289
1.98541	106446405.13658987
1.98769	112782541.9850266
1.98996	119194492.77583891
1.99223	122844141.34954888
1.9945	126904282.94152607
1.99677	127427273.31984448
1.99903	120339993.02533074
2.00129	111884815.73250987
2.00355	112142655.98078655
2.00581	113313663.2910971
2.00806	110161243.32619901
2.01031	110087670.69271183
2.01256	117343704.28183706
2.01481	122054508.8270294
2.01706	116577715.13028602
2.0193	110604048.48967126
2.02154	113014276.63495784
2.02378	118576371.86852317
2.02602	115958991.43437438
2.02825	113816425.95270976
2.03049	121389995.00129452
2.03272	123035030.2643484
2.03494	111580942.04880723
2.03717	102431966.0332572
2.03939	105953760.92328683
2.04162	115561649.30090678
2.04384	122582608.77082004
2.04605	122049937.92022339
2.04827	115619358.22678418
2.05048	113767744.8441986
2.05269	117514345.97964697
2.0549	126694019.05404046
2.05711	135438831.90336552
2.05931	134278820.58406642
2.06151	125921895.45696157
2.06371	120703500.01445088
2.06591	122487087.21056327
2.06811	122961382.72383778
2.0703	118883378.80314992
2.07249	120573553.4147071
2.07468	125611105.22366397
2.07686	126325710.53985143
2.07905	125375212.6855901
2.08123	124710308.29592894
2.08341	124291361.8100654
2.08559	124944961.74365848
2.08776	124705318.23756929
2.08994	122996411.18301904
2.09211	120569728.90412363
2.09428	117618716.18891709
2.09645	119657514.93867756
2.09861	127429379.21601708
2.10077	131634787.88972704
2.10293	131191373.69449046
2.10509	130684503.87937477
2.10725	132025200.18593474
2.1094	133929009.45856366
2.11155	133124498.84520313
2.1137	127663682.01021394
2.11585	123238583.5350884
2.11799	122031398.90436663
2.12013	122440671.68424682
2.12227	129109372.44309334
2.12441	139284171.16729784
2.12655	139656669.9506755
2.12868	132740346.58910887
2.13081	131879468.482971
2.13294	137028102.8999794
2.13507	140432944.27226183
2.13719	140328068.72824347
2.13931	143020675.73130602
2.14143	149876570.23941267
2.14355	150335843.3439346
2.14567	144978614.31804016
2.14778	143183754.28961375
2.14989	141189619.90891838
2.152	135812332.17216
2.1541	134225192.3008229
2.15621	138486800.41170385
2.15831	139442449.52635992
2.16041	135165275.55405694
2.16251	134294397.73294184
2.1646	136706649.63565233
2.1667	139176955.48793507
2.16879	144432358.81704617
2.17087	149204329.73755243
2.17296	148789413.35983434
2.17504	145175775.09161916
2.17713	144387365.95294136
2.1792	148592070.66088858
2.18128	154165154.134791
2.18336	158890250.39741907
2.18543	159444929.82699952
2.1875	154809155.26490006
2.18957	151480624.09142584
2.19163	149896018.8315773
2.1937	145982879.81484315
2.19576	142709912.86395788
2.19782	144769564.84011853
2.19987	149267973.75984347
2.20193	149437398.94918996
2.20398	148726823.14711612
2.20603	150269463.51805714
2.20808	153181243.83005184
2.21012	155902969.20848244
2.21217	153723038.86314818
2.21421	149421770.26685295
2.21625	146362631.67764527
2.21828	145446264.7505093
2.22032	149331878.76306057
2.22235	152335916.11091816
2.22438	148465276.27314737
2.22641	142006975.3867706
2.22843	139078453.22858766
2.23046	143418695.18744642
2.23248	150262880.88493744
2.2345	153497151.81614265
2.23651	153114797.00058264
2.23853	148364820.6530213
2.24054	145853361.08739278
2.24255	146237282.3955352
2.24456	145941732.9454288
2.24657	144208831.66028595
2.24857	144814314.82912123
2.25057	149730411.26335564
2.25257	153026479.05883536
2.25457	153933041.2907019
2.25656	155236984.9518685
2.25856	158037297.7728583
2.26055	159103460.6605797
2.26254	156344554.6888779
2.26453	153996299.93256688
2.26651	155625111.65063578
2.2685	157859888.66527012
2.27048	155937021.15672284
2.27246	150307233.20144278
2.27443	144239952.63605008
2.27641	140924254.62285715
2.27838	143911994.6635371
2.28036	151358389.9841599
2.28233	151577274.9623615
2.28429	144876631.50906542
2.28626	140397517.55625197
2.28823	139544316.46630847
2.29019	137505357.3059518
2.29215	137924421.08574352
2.29411	141006518.2619157
2.29607	143009262.7047235
2.29802	142340260.81070933
2.29998	139859540.73828337
2.30193	141797947.5582462
2.30388	147594939.53213987
2.30583	152292435.393058
2.30778	150147901.6829617
2.30972	140841424.9261131
2.31167	129585227.70612274
2.31361	124885349.65439968
2.31555	128651181.4023608
2.31749	134480590.1085379
2.31943	134185318.25850804
2.32137	126125876.98747616
2.32331	117436296.02386853
2.32524	113345758.40885483
2.32718	111402694.89360368
2.32911	111501395.87738746
2.33104	115837789.1681657
2.33297	121895095.52381085
2.3349	125777056.91829617
2.33683	124659732.99514467
2.33876	122627263.13932008
2.34068	125182400.36945505
2.34261	128261523.0615679
2.34453	128273414.6036556
2.34646	126201119.27765878
2.34838	122776974.76754856
2.3503	116881070.40338907
2.35223	111699350.31497115
2.35415	110758204.6422728
2.35607	114556053.32023273
2.35799	119698256.21053892
2.35991	122652002.81142786
2.36183	124795633.80825856
2.36375	124721404.98392369
2.36566	116724998.22049133
2.36758	108169572.97701362
2.3695	110243792.72678284
2.37142	122916032.14836596
2.37334	132467432.28482006
2.37526	131163976.58428016
2.37718	122089580.94314525
2.3791	115810645.30832385
2.38101	117013385.51221919
2.38293	120861745.46841732
2.38485	121372581.2140545
2.38677	121900453.29555632
2.3887	123609865.97158436
2.39062	121563092.99168341
2.39254	117697542.64005187
2.39446	117775969.79459688
2.39639	120832336.24231791
2.39831	120522744.9462116
2.40024	117441057.54412624
2.40216	116419135.12413634
2.40409	116535790.93859212
2.40602	111384175.51475331
2.40795	99406704.90152386
2.40989	90567399.43467106
2.41182	92065482.34792808
2.41376	100090414.54267253
2.4157	107030825.57964903
2.41764	111019891.90415402
2.41958	111309914.65666263
