#wavelength	surface flux
0.6450077295303345	255585.90753003684
0.6472567915916443	267249.83839347196
0.6494921445846558	279181.09005095524
0.6517150402069092	291585.10070064245
0.6539263725280762	304302.3066996087
0.6561272740364075	317393.0546562995
0.6583186388015747	330895.6547484398
0.6605015397071838	344803.7549745064
0.6626768708229065	359010.8523868702
0.6648455858230591	373795.64752022695
0.6670085787773132	389024.41669108556
0.6691668033599854	404981.98876457656
0.6713210344314575	414123.7300981983
0.6734722256660461	438577.5717195568
0.6756211519241333	456187.3545794178
0.6777685880661011	472290.3459403625
0.6799154281616211	492785.59343721514
0.6820623278617859	512204.03551681974
0.6842101216316223	532136.163069499
0.6863595843315125	552598.9755832414
0.688511312007904	573733.4757027877
0.6906660795211792	595486.0216038594
0.6928245425224304	617892.3445977281
0.6949873566627502	641155.3161544806
0.6971551775932312	665018.3582207251
0.6993286609649658	689725.7926479491
0.7015084028244019	715201.7645475272
0.7036949396133423	741645.6430996947
0.7058889269828796	768524.0493643583
0.7080909013748169	796546.0122499068
0.710301399230957	825588.2781220082
0.712520956993103	854737.5432491768
0.7147500514984131	885955.736475505
0.7169892191886902	917457.3871181213
0.7192389369010925	950035.9121017392
0.7214996814727783	983596.7998273858
0.723771870136261	1017910.5104755985
0.7260559797286987	1053898.153520036
0.7283523678779602	1090488.0349497928
0.7306615710258484	1127797.8279018356
0.7329838871955872	1166820.6258411394
0.7353196740150452	1198747.900335848
0.7376693487167358	1241353.8566601397
0.7400332689285278	1278781.2467516267
0.7424117922782898	1319343.8109490378
0.7448052167892456	1361426.2394732074
0.7472138404846191	1410539.570037013
0.7496379613876343	1463136.1283196635
0.7520779371261597	1513127.646050997
0.7545340061187744	1569929.8654776346
0.7570064663887024	1624093.8207723412
0.7594954967498779	1683870.7442600902
0.7620013952255249	1742351.4930043153
0.7645244002342224	1767074.5627686484
0.7670646905899048	1408569.5935589832
0.7696225643157959	1604493.4342222246
0.7721980810165405	1958114.236654765
0.7747915983200073	2061397.4675230915
0.7774031162261963	2136818.588521808
0.7800329327583313	1877450.7441918787
0.7826811671257019	2287918.50276592
0.7853479981422424	2366389.268639851
0.7880334854125977	2445836.1716136113
0.7907378077507019	2526388.40160286
0.7934610247612	2606165.1038185214
0.7962033748626709	2694812.186720168
0.7989648580551147	2786321.4606725327
0.801745593547821	2874828.195572401
0.8045456409454346	2972774.8717872254
0.8073651194572449	3078573.576046141
0.8102040886878967	3188027.4829762434
0.8130625486373901	3297846.996999805
0.8159406185150146	3411191.280355692
0.8188382983207703	3526322.6053473097
0.8217556476593018	3644745.6304012495
0.8246926665306091	3766688.056641356
0.8276493549346924	3891885.196374924
0.8306257724761963	4020179.5872083097
0.8336219191551208	4153020.5742695224
0.8366377949714661	4284954.772365926
0.8396733403205872	4425389.311246148
0.8427285552024841	4565429.167154237
0.8458034992218018	4708493.40537251
0.8488980531692505	4859307.557277328
0.8520121574401855	5008592.033538967
0.8551458716392517	5142019.849733695
0.8582990765571594	5295395.174742978
0.8614717125892639	5450779.492743067
0.8646637797355652	5603238.830605206
0.8678751587867737	5762199.892434108
0.8711057901382446	5954864.577425607
0.8743556141853333	6146881.996089441
0.87762451171875	6354278.327979411
0.8809124231338501	6575274.559913193
0.8842192888259888	6783143.807983562
0.8875449895858765	6998484.749104758
0.8908893465995789	7218898.565778534
0.894252359867096	7366576.293360626
0.8976338505744934	7657057.861989444
0.9010337591171265	7896886.86533475
0.9044519662857056	8142180.696329469
0.9078882932662964	8376028.596813503
0.9113426208496094	8635345.32459969
0.914814829826355	8902181.577043692
0.9183048605918884	9193377.236836493
0.9218124747276306	9421227.541857548
0.925337553024292	9677321.166691378
0.9288799166679382	9916833.17636557
0.9324395060539246	10207814.40126251
0.9360161423683167	10487331.451987108
0.9396095871925354	10822774.829027813
0.943219780921936	11109452.829115797
0.9468464851379395	11492999.93115026
0.9504896402359009	11725099.557069292
0.9541489481925964	12167793.785223192
0.9578243494033813	12541670.12276619
0.9615156054496765	12825465.021666106
0.9652225375175476	13178508.042824687
0.9689450263977051	13590759.603481757
0.9726828336715698	13937164.224397102
0.9764357805252075	14322123.796718923
0.9802037477493286	14741586.851083305
0.983986496925354	15112158.699451454
0.9877838492393494	15584446.593897471
0.9915955662727356	15722926.144443145
0.9954215884208679	16307197.100192614
0.9992615580558777	16537846.270402022
1.0031154155731201	17067384.08945314
1.0069829225540161	17483544.22920708
1.0108637809753418	17914450.131771088
1.0147579908370972	18370007.38839898
1.018665075302124	18833370.895346593
1.022585153579712	19386419.219472606
1.0265177488327026	19657697.560255833
1.0304628610610962	20329661.461176574
1.0344202518463135	20870541.97235378
1.0383895635604858	21454163.885925774
1.0423706769943237	21880593.046749454
1.0463634729385376	22438530.453478914
1.0503677129745483	23173452.73268196
1.0543830394744873	23525723.931554142
1.058409333229065	24161716.657181162
1.0624464750289917	24799023.906870354
1.0664942264556885	25329572.814021222
1.0705522298812866	26616643.612022046
1.0746204853057861	27009019.766778808
1.0786986351013184	27697868.809376504
1.0827864408493042	28461122.441370245
1.086883783340454	28570889.319274228
1.0909905433654785	29525550.819610752
1.0951062440872192	30273423.900395907
1.0992310047149658	30064930.527714416
1.10336434841156	30868984.35415881
1.1075061559677124	30798400.170710325
1.1116561889648438	32107559.70121394
1.115814208984375	31633519.979611754
1.1199802160263062	33209281.34638957
1.124153733253479	34127360.73277131
1.1283347606658936	34865516.02104434
1.1325229406356812	35459888.14318259
1.1367181539535522	35739306.858745135
1.1409201622009277	36204926.19047286
1.145128846168518	37849331.23886432
1.1493438482284546	39514661.97327601
1.1535650491714478	39861283.44399461
1.1577922105789185	41118326.75808765
1.1620250940322876	39828855.534086704
1.1662636995315552	41197313.87414213
1.170507550239563	41110403.553625755
1.174756646156311	42111349.607901976
1.1790107488632202	42033170.6545667
1.1832695007324219	45058190.33682208
1.1875330209732056	45225531.99158138
1.191800832748413	45741707.38050983
1.1960728168487549	47262960.83511246
1.2003488540649414	48155167.127004765
1.2046287059783936	48646035.59120472
1.2089121341705322	50771274.80656462
1.2131990194320679	52217764.36937418
1.2174891233444214	52648804.193401314
1.2217823266983032	53316410.59778297
1.2260783910751343	56190293.49552656
1.230377197265625	56289997.5240856
1.2346785068511963	56569576.84801612
1.238982081413269	57849088.38405291
1.2432878017425537	55406164.61728171
1.2475954294204712	59187938.210368805
1.2519049644470215	57170117.68463894
1.256216049194336	59633840.622531384
1.2605286836624146	62441456.93907274
1.2648425102233887	62575486.061215
1.2691574096679688	66806395.699000664
1.2734732627868652	66464006.520899124
1.2777899503707886	66537356.03202743
1.2821072340011597	68010832.34478052
1.2864248752593994	68964976.59561661
1.2907428741455078	69146553.21885175
1.2950609922409058	71119222.72674608
1.2993791103363037	72868648.23919478
1.303696870803833	74413263.96130751
1.3080145120620728	72128978.75066014
1.3123314380645752	74842220.62073836
1.3166478872299194	74853696.22849181
1.3209635019302368	77811654.69020617
1.3252781629562378	73425906.25328036
1.3295916318893433	74064754.5777284
1.3339040279388428	66358862.03921185
1.3382149934768677	62979189.06614595
1.3425244092941284	64861213.963524416
1.3468321561813354	66627968.87035141
1.3511382341384888	71783488.77734894
1.3554422855377197	67434241.74526176
1.3597444295883179	67830503.92842549
1.3640443086624146	68782163.89835355
1.3683418035507202	71032888.17977048
1.3726370334625244	72095540.78570758
1.3769296407699585	72845128.28540087
1.381219506263733	69008286.15772861
1.3855066299438477	60798981.20343434
1.3897908926010132	74418480.3292758
1.3940720558166504	74697299.26900254
1.3983501195907593	77820146.65272756
1.4026249647140503	75718510.52600154
1.4068963527679443	73415247.86733273
1.4111642837524414	68251467.51489905
1.4154287576675415	78014132.82836872
1.419689416885376	73597671.4585986
1.4239463806152344	75172701.84189919
1.4281994104385376	76582469.49953151
1.4324485063552856	78955801.41332592
1.436693549156189	79474509.40546818
1.440934419631958	83441073.03653215
1.4451709985733032	82271074.41204925
1.449403166770935	84504902.44636261
1.453631043434143	83656283.7839825
1.4578542709350586	86440334.35778026
1.4620729684829712	83770380.90305424
1.4662868976593018	81864215.35441354
1.4704961776733398	83664934.0402998
1.4747005701065063	85258451.83223861
1.4788999557495117	86049646.18139948
1.4830944538116455	88292745.07450415
1.4872838258743286	88690154.27386525
1.491468071937561	89756106.01663569
1.4956470727920532	91336596.67306241
1.4998208284378052	90394611.07954642
1.5039892196655273	92846183.51586124
1.5081522464752197	95803637.82305655
1.5123097896575928	96734482.73831274
1.5164618492126465	96618484.84883542
1.5206083059310913	96299543.9053286
1.5247491598129272	98572795.29756846
1.5288842916488647	95205086.23906262
1.5330137014389038	100810453.02040942
1.5371372699737549	100214688.45086826
1.541254997253418	97594709.35133211
1.545366883277893	104141490.28121142
1.5494728088378906	102140831.32166398
1.5535727739334106	106560126.96939142
1.5576666593551636	105663575.25539494
1.561754584312439	105982971.1064408
1.5658363103866577	107576905.0095615
1.5699119567871094	111888106.80322467
1.5739814043045044	112157325.40614717
1.5780447721481323	116029336.88022782
1.582101821899414	113425263.51558255
1.5861525535583496	114094733.68844253
1.5901970863342285	117909595.18189502
1.5942351818084717	118297968.68506964
1.5982669591903687	119767299.26512279
1.6022924184799194	125123256.74256222
1.606311559677124	123423601.25721453
1.6103241443634033	123179270.10438336
1.6143304109573364	126657143.24600896
1.6183301210403442	129374298.9158235
1.6223233938217163	129379177.63637099
1.6263102293014526	129580255.5312295
1.6302905082702637	131344453.08418126
1.634264349937439	134324961.75115323
1.638231635093689	133225162.06109926
1.6421923637390137	134417707.00102165
1.646146535873413	137902974.38295048
1.6500942707061768	133296612.55162455
1.6540353298187256	140531788.04180184
1.6579699516296387	137819536.97893298
1.661897897720337	141355921.2853791
1.6658192873001099	142192466.32833967
1.6697341203689575	143922782.54319218
1.6736423969268799	143743946.89619187
1.677544116973877	142752480.9485824
1.6814392805099487	148815798.15554658
1.6853278875350952	146740549.2813849
1.6892099380493164	144514030.12050274
1.6930854320526123	143047638.02614018
1.696954369544983	136713398.21576837
1.7008168697357178	139184716.42287096
1.7046726942062378	143590687.87305146
1.708522081375122	144415451.76021606
1.712364912033081	136843234.52345824
1.7162011861801147	137341090.0927156
1.7200311422348022	135321491.76702175
1.723854422569275	133121379.64367828
1.7276713848114014	133784308.34993628
1.731481909751892	130231644.96732815
1.7352858781814575	132176029.8927509
1.7390835285186768	132182956.30326913
1.7428747415542603	127775842.62547514
1.7466596364974976	129618398.0024866
1.7504380941390991	133495431.88544926
1.7542102336883545	117971856.92420149
1.7579760551452637	114550006.14492577
1.7617355585098267	120231828.54955526
1.7654887437820435	120076839.62848264
1.7692357301712036	123686974.49980175
1.7729763984680176	123704843.32014865
1.776710867881775	106997845.86350495
1.7804391384124756	108621817.6965997
1.7841613292694092	108811906.06944326
1.7878772020339966	107592864.89011121
1.7915871143341064	112426625.07774346
1.7952908277511597	116261456.98174204
1.7989884614944458	117780100.10926773
1.8026801347732544	114045265.28837392
1.806365728378296	118932274.67962186
1.8100452423095703	117198478.52415742
1.8137187957763672	119840008.36941756
1.817386507987976	110223620.05217378
1.8210482597351074	109574207.67600955
1.8247040510177612	119139801.33940506
1.828354001045227	117274062.96200375
1.8319982290267944	113532237.25597072
1.8356364965438843	97606630.61987801
1.8392690420150757	117180575.51346342
1.8428958654403687	122916223.41427413
1.8465168476104736	118435886.59196338
1.8501322269439697	121337168.32920189
1.8537418842315674	123176860.39985853
1.8573459386825562	118175433.97503027
1.860944390296936	110557072.62918456
1.864537239074707	99052918.25190143
1.8681244850158691	91744871.26833439
1.871706247329712	106993269.4536969
1.8752825260162354	112785097.01283406
1.8788533210754395	118672830.65715905
1.8824186325073242	122910126.92242925
1.8859784603118896	120468970.7604681
1.8895330429077148	125365300.77134088
1.8930821418762207	115068064.23658912
1.8966259956359863	115985042.40348214
1.9001644849777222	120558071.37103707
1.9036977291107178	124125490.67152837
1.9072256088256836	126905435.56703198
1.9107483625411987	130517775.29456437
1.9142658710479736	129994126.680912
1.9177782535552979	131014286.32221356
1.9212853908538818	130766968.98188825
1.9247875213623047	126736026.05890946
1.9282845258712769	129091272.47429119
1.9317764043807983	129998364.79036959
1.9352631568908691	118288494.04660384
1.9387450218200684	118468859.09703179
1.942221760749817	124942388.92672163
1.9456936120986938	123505956.59754425
1.9491604566574097	130875076.36072807
1.952622413635254	130222206.86803035
1.956079363822937	118104427.14348844
1.959531545639038	121188528.44181284
1.962978720664978	122822508.0666498
1.966421127319336	118853659.99292082
1.9698586463928223	122415998.4133164
1.9732913970947266	127415472.71512295
1.9767193794250488	124388608.88606401
1.9801424741744995	123219340.00237018
1.9835609197616577	119625435.26760522
1.9869745969772339	124958957.00127532
1.990383505821228	130363948.6244261
1.9937876462936401	131881971.89369029
1.9971871376037598	133190732.40515521
2.000581979751587	125563078.60270351
2.003972291946411	126744182.9148182
2.007357597351074	126143829.49379568
2.0107386112213135	124304395.0573345
2.0141148567199707	131279486.71393669
2.017486572265625	127345154.0308874
2.0208535194396973	126585458.9685745
2.0242159366607666	130598142.07757191
2.027573823928833	126176946.6164275
2.0309269428253174	132523116.4873942
2.034275770187378	128539996.09645094
2.0376198291778564	119015446.73232023
2.040959596633911	126548675.5527518
2.044294595718384	133558349.97447765
2.0476250648498535	129326725.76162384
2.0509510040283203	130232323.38333741
2.054272413253784	135410089.5188421
2.057589530944824	139957174.26731646
2.0609018802642822	135393510.3751547
2.0642096996307373	131940754.57080062
2.0675129890441895	135430297.65882093
2.0708119869232178	133313853.13772209
2.074106216430664	136589292.34209484
2.0773961544036865	137154030.20608672
2.080681324005127	136939986.07915023
2.0839622020721436	137134304.50018996
2.087238311767578	137095120.01810282
2.090510129928589	136477378.2515828
2.0937774181365967	134532809.9703011
2.0970399379730225	134951293.26441354
2.1002981662750244	139604563.98827073
2.1035518646240234	140775369.58064854
2.1068007946014404	140948032.5243669
2.1100454330444336	141041244.02500147
2.1132853031158447	139073271.21914935
2.116520881652832	136828684.2432267
2.1197516918182373	135826003.63095322
2.1229779720306396	140294142.34658182
2.12619948387146	143561686.94061872
2.1294167041778564	140467499.7279845
2.132629156112671	143765588.170824
2.1358368396759033	145867801.6108874
2.139039993286133	145396824.74345866
2.1422386169433594	148429191.36561263
2.145432472229004	147693000.7776932
2.1486217975616455	146510879.68924272
2.151806354522705	143513418.65828103
2.1549863815307617	143332048.2610465
2.1581614017486572	145476056.82519662
2.16133189201355	143144776.01198614
2.1644976139068604	143526111.3433238
2.167658567428589	145520287.87661347
2.1708147525787354	148267556.78667787
2.173966407775879	147674891.04613984
2.1771130561828613	146470175.59240133
2.1802549362182617	149512640.61016095
2.183391809463501	151759442.40993336
2.1865241527557373	150652684.98227295
2.1896514892578125	149172489.39098594
2.1927738189697266	148014426.49944842
2.1958916187286377	145936528.5310075
2.1990041732788086	147398197.8893443
2.2021119594573975	147829501.15051016
2.2052149772644043	147271193.14506584
2.208312749862671	148689467.88019377
2.2114057540893555	149602190.14989227
2.214493751525879	148027983.07921705
2.217576742172241	147195202.6490793
2.2206547260284424	147929022.138059
2.2237277030944824	147579418.2717132
2.2267956733703613	144522053.224847
2.2298583984375	144728549.06564188
2.2329163551330566	147793880.9841095
2.235969066619873	148120238.69184548
2.2390167713165283	146292645.27827588
2.2420592308044434	145394112.33909306
2.2450966835021973	144132472.18809548
2.248128890991211	144163146.74662194
2.2511560916900635	146372392.91663674
2.254178285598755	147597232.25868028
2.257194995880127	148004786.07336333
2.260206699371338	148964785.45693514
2.2632133960723877	147102929.8467556
2.266214609146118	146830902.5577915
2.2692108154296875	147873838.06832337
2.2722020149230957	145296533.45897284
2.2751877307891846	143761556.7829062
2.278168201446533	144941277.00786012
2.2811436653137207	145025170.70279452
2.284113883972168	140565599.660738
2.287078857421875	141229662.71665183
2.290038824081421	140019848.66540626
2.2929933071136475	137622929.9611677
2.295942783355713	138327495.83934808
2.298887014389038	137305653.1515269
2.301826238632202	137690654.14406198
2.304760217666626	141816265.6249074
2.3076889514923096	142639223.88947362
2.310612440109253	136806846.1568973
2.3135311603546143	132762017.06572372
2.3164443969726562	136270491.31197074
2.319352865219116	136192870.1999839
2.322256088256836	128843851.95276174
2.3251543045043945	123816068.89577594
2.328047275543213	121963540.71472427
2.330935478210449	125572295.17474769
2.3338186740875244	130052217.82778332
2.3366971015930176	130849740.5885841
2.3395702838897705	129686727.7269002
2.3424389362335205	131560172.09286873
2.3453025817871094	132091252.82475853
2.348161458969116	130269741.05183141
2.351015567779541	125401046.75558047
2.353865146636963	122967709.1372177
2.3567099571228027	126171184.86087777
2.3595502376556396	129528092.31049499
2.3623859882354736	131233503.49400368
2.3652172088623047	126706495.93718927
2.368043899536133	118685617.65399264
2.370866537094116	125518719.78179282
2.3736846446990967	132421545.3832823
2.3764986991882324	126628355.67466988
2.3793084621429443	120445123.2994478
2.3821144104003906	124942495.70198792
2.384916305541992	128173610.05388765
2.387714147567749	128802298.78458668
2.3905084133148193	126434683.92788744
2.393299102783203	123175417.2743556
2.3960859775543213	126120722.82917127
2.398869514465332	126547877.76483853
2.4016497135162354	125230389.65112759
2.4044265747070312	124202691.32847854
2.407200336456299	113838166.03301783
2.409970998764038	102103517.60352747
2.4127390384674072	107582932.00007991
2.415503978729248	118013539.10572629
2.418266534805298	122151785.04741411
2.4210267066955566	117179572.71500888
2.4237842559814453	109096696.6761284
2.426539897918701	108336410.39969885
2.429293394088745	109098562.25508983
2.4320452213287354	111366490.45220196
2.4347951412200928	115425521.64792381
2.4375438690185547	114884753.36373113
2.440291166305542	106469354.29758011
2.443037271499634	104042472.98128788
2.445782423019409	109459313.16224937
2.4485268592834473	114452839.1581357
2.451270818710327	113241621.388919
2.454014539718628	107646079.84048718
2.4567582607269287	106216176.81093308
2.4595019817352295	104884476.3917887
2.4622461795806885	109034425.47322713
2.4649908542633057	115590738.74476723
2.4677364826202393	112799048.66052632
2.4704833030700684	107341059.62787683
2.473231554031372	108246983.47233504
2.4759814739227295	110670089.61387509
