#wavelength	surface flux
0.6450077295303345	1386.7033988281835
0.6472567915916443	2149.1976182322333
0.6494921445846558	2731.087445698499
0.6517150402069092	3055.035016440544
0.6539263725280762	3400.8619972950414
0.6561272740364075	3794.177216695219
0.6583186388015747	4232.5029448674395
0.6605015397071838	4712.898724875072
0.6626768708229065	5266.345457262801
0.6648455858230591	5917.881499271989
0.6670085787773132	6591.336297487487
0.6691668033599854	7062.279516999257
0.6713210344314575	7624.306761464897
0.6734722256660461	8871.251570997292
0.6756211519241333	10390.385693832432
0.6777685880661011	11690.650222090728
0.6799154281616211	12891.360092252955
0.6820623278617859	14093.925272981982
0.6842101216316223	15342.647438676187
0.6863595843315125	16551.753310099095
0.688511312007904	17480.16956354032
0.6906660795211792	17962.893213541574
0.6928245425224304	18289.06726904345
0.6949873566627502	18871.966856457922
0.6971551775932312	19792.824982581595
0.6993286609649658	21030.424687903032
0.7015084028244019	22542.30216643145
0.7036949396133423	24081.46320698423
0.7058889269828796	25411.80021505185
0.7080909013748169	26587.52559999358
0.710301399230957	27797.95561552682
0.712520956993103	28945.307000861234
0.7147500514984131	29622.7050048307
0.7169892191886902	29779.275271448856
0.7192389369010925	30045.57982674455
0.7214996814727783	30542.908876621634
0.723771870136261	30748.794176603587
0.7260559797286987	30640.13434878921
0.7283523678779602	30514.731653388346
0.7306615710258484	30518.781463401257
0.7329838871955872	30685.219001295045
0.7353196740150452	31139.441285606616
0.7376693487167358	31996.279796391755
0.7400332689285278	33126.30648531881
0.7424117922782898	34542.67358470935
0.7448052167892456	36203.26368810741
0.7472138404846191	37514.36580113428
0.7496379613876343	37596.09132622709
0.7520779371261597	36353.59601174615
0.7545340061187744	33945.37084111927
0.7570064663887024	30053.780048426266
0.7594954967498779	25289.37330085305
0.7620013952255249	21160.242610202018
0.7645244002342224	18234.192507572618
0.7670646905899048	16802.523444165698
0.7696225643157959	17691.627188707833
0.7721980810165405	21126.990729697758
0.7747915983200073	26651.18999339035
0.7774031162261963	32049.854626115866
0.7800329327583313	36533.89886728021
0.7826811671257019	43922.535185494475
0.7853479981422424	52976.1325759558
0.7880334854125977	59801.3215848264
0.7907378077507019	64323.663018440464
0.7934610247612	65975.82004727551
0.7962033748626709	72409.37822006954
0.7989648580551147	88498.45478610985
0.801745593547821	105931.58357416363
0.8045456409454346	121859.73301443143
0.8073651194572449	139048.63222921485
0.8102040886878967	157701.24471808368
0.8130625486373901	178604.17416947073
0.8159406185150146	204261.8203381359
0.8188382983207703	234565.4931603629
0.8217556476593018	267282.7486281812
0.8246926665306091	304339.06442631176
0.8276493549346924	345179.66829997156
0.8306257724761963	386250.94219539396
0.8336219191551208	429954.0838137313
0.8366377949714661	479229.2273102108
0.8396733403205872	534789.9637256082
0.8427285552024841	596071.6469647245
0.8458034992218018	662212.4104161584
0.8488980531692505	728812.6901035652
0.8520121574401855	812749.2232376575
0.8551458716392517	951558.0588483466
0.8582990765571594	1103975.9540815107
0.8614717125892639	1225899.6498283662
0.8646637797355652	1343303.4439654218
0.8678751587867737	1470273.9494561641
0.8711057901382446	1607771.3718486563
0.8743556141853333	1755299.0813112964
0.87762451171875	1937768.526313514
0.8809124231338501	2192104.339545966
0.8842192888259888	2433041.048896431
0.8875449895858765	2520419.6616423842
0.8908893465995789	2460525.42823238
0.894252359867096	2447206.68249543
0.8976338505744934	2677102.060133536
0.9010337591171265	3128272.9235278456
0.9044519662857056	3665046.4873272786
0.9078882932662964	4100695.134621411
0.9113426208496094	4417436.655979775
0.914814829826355	4761530.084645381
0.9183048605918884	5214801.6932915915
0.9218124747276306	5638288.709645031
0.925337553024292	5345474.566301907
0.9288799166679382	4278701.804320553
0.9324395060539246	3760832.165382722
0.9360161423683167	4421325.194184337
0.9396095871925354	5567231.70236786
0.943219780921936	6242406.482909358
0.9468464851379395	6319942.388098106
0.9504896402359009	6489253.226528937
0.9541489481925964	6807444.105687872
0.9578243494033813	7085466.147670939
0.9615156054496765	7581883.349941705
0.9652225375175476	8578996.012840107
0.9689450263977051	9833089.627777418
0.9726828336715698	10903345.805438932
0.9764357805252075	11920479.17729803
0.9802037477493286	13053685.654995063
0.983986496925354	14315311.837062106
0.9877838492393494	15678961.526839644
0.9915955662727356	16896864.242238835
0.9954215884208679	18128008.09549093
0.9992615580558777	19539421.20677606
1.0031154155731201	20850811.727988806
1.0069829225540161	22175619.747223083
1.0108637809753418	23690982.43752537
1.0147579908370972	25143797.01303665
1.018665075302124	26646908.209768638
1.022585153579712	28389470.377090216
1.0265177488327026	30158498.72611406
1.0304628610610962	31934958.52677573
1.0344202518463135	33827724.120217636
1.0383895635604858	35830732.189892165
1.0423706769943237	37765112.288893595
1.0463634729385376	39483911.12234093
1.0503677129745483	41064441.72076141
1.0543830394744873	42651455.231359564
1.058409333229065	44292312.31275683
1.0624464750289917	45922943.24651935
1.0664942264556885	47402520.636974104
1.0705522298812866	48656680.94331054
1.0746204853057861	49692851.14533719
1.0786986351013184	50461410.22118543
1.0827864408493042	50513538.58947542
1.086883783340454	48382800.154033154
1.0909905433654785	42688766.52805914
1.0951062440872192	34810773.72023771
1.0992310047149658	27778850.499598686
1.10336434841156	22288788.18701867
1.1075061559677124	17369508.915078856
1.1116561889648438	12940992.66162699
1.115814208984375	9968239.180719728
1.1199802160263062	9188626.38135122
1.124153733253479	10266012.579877336
1.1283347606658936	11105464.88897745
1.1325229406356812	9876104.540898364
1.1367181539535522	9404526.650677402
1.1409201622009277	10692518.781071186
1.145128846168518	10839974.989338735
1.1493438482284546	9732870.945450444
1.1535650491714478	7979512.219990424
1.1577922105789185	6754526.131593925
1.1620250940322876	7288697.970935173
1.1662636995315552	8431198.67370117
1.170507550239563	8222622.246817217
1.174756646156311	7570192.2075587055
1.1790107488632202	9716026.328239713
1.1832695007324219	14093650.443747783
1.1875330209732056	18286579.968829002
1.191800832748413	22525649.84552525
1.1960728168487549	27210389.554902658
1.2003488540649414	32257636.12176538
1.2046287059783936	37887514.56416477
1.2089121341705322	43666781.46976896
1.2131990194320679	49632594.643961206
1.2174891233444214	55805765.15998278
1.2217823266983032	61749810.306919426
1.2260783910751343	68107222.60479504
1.230377197265625	73917131.41348879
1.2346785068511963	77764837.55680002
1.238982081413269	80297319.45983624
1.2432878017425537	82619552.6486269
1.2475954294204712	85176238.38888358
1.2519049644470215	87511740.3721181
1.256216049194336	92333555.84935583
1.2605286836624146	98790242.65906006
1.2648425102233887	101887374.35081424
1.2691574096679688	101420894.91530322
1.2734732627868652	98723343.0721245
1.2777899503707886	94281385.5078959
1.2821072340011597	88137306.71473174
1.2864248752593994	81376865.17819907
1.2907428741455078	75524196.61955386
1.2950609922409058	70825747.30388921
1.2993791103363037	66462198.293879665
1.303696870803833	61731951.80722657
1.3080145120620728	57254134.6927293
1.3123314380645752	52144716.64375506
1.3166478872299194	46038721.08734651
1.3209635019302368	39619626.149801284
1.3252781629562378	31129665.947400536
1.3295916318893433	20157523.02092548
1.3339040279388428	10147947.118501477
1.3382149934768677	4500238.042845118
1.3425244092941284	2423051.0213493286
1.3468321561813354	1513074.009801852
1.3511382341384888	952139.8475683094
1.3554422855377197	636587.4257262244
1.3597444295883179	523933.4796206824
1.3640443086624146	609302.4722973692
1.3683418035507202	721160.2175574697
1.3726370334625244	802049.1137102994
1.3769296407699585	941151.1822544469
1.381219506263733	960314.6992587945
1.3855066299438477	863525.3044375435
1.3897908926010132	831548.9470352085
1.3940720558166504	798585.46024725
1.3983501195907593	776117.7855439971
1.4026249647140503	841218.8800083784
1.4068963527679443	885843.3036268816
1.4111642837524414	921131.309020243
1.4154287576675415	981532.4721319644
1.419689416885376	975655.3528540237
1.4239463806152344	1039089.6463419269
1.4281994104385376	1314528.5950488294
1.4324485063552856	1606471.2117091082
1.436693549156189	1778944.9980791423
1.440934419631958	1948335.6737724056
1.4451709985733032	2324094.645516911
1.449403166770935	3056045.5078358483
1.453631043434143	3887100.6092850748
1.4578542709350586	4457262.842090771
1.4620729684829712	4605209.110054428
1.4662868976593018	4446993.881627237
1.4704961776733398	4289899.615753191
1.4747005701065063	4578774.205193064
1.4788999557495117	5139525.280186928
1.4830944538116455	5454120.769148406
1.4872838258743286	5817812.790551204
1.491468071937561	6513671.73622235
1.4956470727920532	7442757.909377821
1.4998208284378052	8369400.8122641295
1.5039892196655273	9124122.662623907
1.5081522464752197	9782500.111864816
1.5123097896575928	10413615.86857277
1.5164618492126465	11299188.344178759
1.5206083059310913	12833380.170713892
1.5247491598129272	14612385.414970407
1.5288842916488647	16198375.57421639
1.5330137014389038	17953711.382027276
1.5371372699737549	19965052.911391415
1.541254997253418	21927558.402417127
1.545366883277893	23930419.529420234
1.5494728088378906	25966088.990535107
1.5535727739334106	27658119.253982626
1.5576666593551636	29197108.014190443
1.561754584312439	30860020.643755693
1.5658363103866577	32659521.162000977
1.5699119567871094	34481405.52401234
1.5739814043045044	35813210.83099718
1.5780447721481323	36508821.970465645
1.582101821899414	36831461.59774037
1.5861525535583496	36616937.060212076
1.5901970863342285	35328559.59162944
1.5942351818084717	33000605.359926872
1.5982669591903687	29649385.673330057
1.6022924184799194	25098967.162285544
1.606311559677124	20167513.463665973
1.6103241443634033	15881477.139078652
1.6143304109573364	12398310.423890011
1.6183301210403442	9681143.71484022
1.6223233938217163	7709402.025859777
1.6263102293014526	6271999.917458615
1.6302905082702637	5647259.01508933
1.634264349937439	6017881.280977955
1.638231635093689	6840018.895192791
1.6421923637390137	7523144.138218005
1.646146535873413	7954445.320182056
1.6500942707061768	8430925.812692503
1.6540353298187256	8642840.2865312
1.6579699516296387	8449435.33506985
1.661897897720337	7715370.520844303
1.6658192873001099	5502229.392230441
1.6697341203689575	3401712.707995484
1.6736423969268799	3490690.739038771
1.677544116973877	4926659.518502257
1.6814392805099487	6049586.647544733
1.6853278875350952	6116652.056280318
1.6892099380493164	5506770.375710007
1.6930854320526123	4759721.322867476
1.696954369544983	4229644.115684281
1.7008168697357178	4154318.282769608
1.7046726942062378	4720433.5894903345
1.708522081375122	5504297.409932892
1.712364912033081	5715213.586124127
1.7162011861801147	5825562.835739641
1.7200311422348022	6380882.05253213
1.723854422569275	6557033.018227168
1.7276713848114014	5982019.935471216
1.731481909751892	5318764.886785881
1.7352858781814575	5014464.37453756
1.7390835285186768	5099090.969813004
1.7428747415542603	5431265.6006296
1.7466596364974976	5660790.656715824
1.7504380941390991	5659085.849561552
1.7542102336883545	5480498.831465518
1.7579760551452637	5131148.966864117
1.7617355585098267	4759912.523253066
1.7654887437820435	4397141.271057149
1.7692357301712036	3947563.9934204225
1.7729763984680176	3644047.78032218
1.776710867881775	3673291.089977507
1.7804391384124756	3726778.137344064
1.7841613292694092	3438303.750124487
1.7878772020339966	2958866.5465556495
1.7915871143341064	2630140.4523435077
1.7952908277511597	2479060.363773651
1.7989884614944458	2428736.038884265
1.8026801347732544	2340010.0107421773
1.806365728378296	2244964.341885494
1.8100452423095703	2404087.1679873248
1.8137187957763672	2568902.514790684
1.817386507987976	2357885.905445225
1.8210482597351074	2346320.8086049156
1.8247040510177612	2494860.917523864
1.828354001045227	2213808.345857614
1.8319982290267944	1886227.2668253307
1.8356364965438843	1700188.6506972206
1.8392690420150757	1652929.5081088508
1.8428958654403687	1768429.753258856
1.8465168476104736	1882960.8242814431
1.8501322269439697	1951605.3635664103
1.8537418842315674	1876948.5851737293
1.8573459386825562	1673076.5257415886
1.860944390296936	1437253.407873645
1.864537239074707	1277663.4169866617
1.8681244850158691	1258436.9962551657
1.871706247329712	1400415.1697474422
1.8752825260162354	1815136.5542556115
1.8788533210754395	2488056.229504123
1.8824186325073242	2988225.9172724225
1.8859784603118896	3040006.2805121574
1.8895330429077148	3055681.7276734
1.8930821418762207	3386975.0003832234
1.8966259956359863	3512739.6054338845
1.9001644849777222	3105591.604763098
1.9036977291107178	2827414.7582631
1.9072256088256836	2798039.202342484
1.9107483625411987	2778037.050083114
1.9142658710479736	2865828.4851257186
1.9177782535552979	2828715.2270667455
1.9212853908538818	2466365.553715014
1.9247875213623047	2154642.6615347546
1.9282845258712769	2004985.4636407779
1.9317764043807983	1834759.2952001712
1.9352631568908691	1682673.9020651288
1.9387450218200684	1536523.3236946706
1.942221760749817	1615855.380119954
1.9456936120986938	1915676.094165923
1.9491604566574097	2150880.1220670533
1.952622413635254	2180222.0601415914
1.956079363822937	2136443.274111854
1.959531545639038	2294905.000522023
1.962978720664978	2517523.550087363
1.966421127319336	2696392.497375411
1.9698586463928223	2817562.317204441
1.9732913970947266	2908744.848959023
1.9767193794250488	3165498.9188059797
1.9801424741744995	3438622.941613279
1.9835609197616577	3668944.258921747
1.9869745969772339	3837776.9280813374
1.990383505821228	3905961.808542488
1.9937876462936401	4260367.036249857
1.9971871376037598	4724630.414174817
2.000581979751587	4955602.887231685
2.003972291946411	5073491.289236677
2.007357597351074	5209693.730563958
2.0107386112213135	5479027.587039247
2.0141148567199707	5650145.043722634
2.017486572265625	5612238.042956281
2.0208535194396973	5885613.762328379
2.0242159366607666	6327814.49339081
2.027573823928833	6482468.427842725
2.0309269428253174	6650242.735173431
2.034275770187378	6972026.018947841
2.0376198291778564	7302746.396017626
2.040959596633911	7654575.367361664
2.044294595718384	8073551.879379807
2.0476250648498535	8408811.470922012
2.0509510040283203	8564325.686856486
2.054272413253784	8789650.024775308
2.057589530944824	9204076.234394161
2.0609018802642822	9537302.919342091
2.0642096996307373	9691229.70424437
2.0675129890441895	9877675.284496749
2.0708119869232178	10097501.842253095
2.074106216430664	10182662.889824403
2.0773961544036865	10197829.155167004
2.080681324005127	10277149.306995811
2.0839622020721436	10375924.091470921
2.087238311767578	10467439.828690128
2.090510129928589	10516964.664970888
2.0937774181365967	10428330.298188735
2.0970399379730225	10273203.918819549
2.1002981662750244	10130673.027787779
2.1035518646240234	9997918.732337985
2.1068007946014404	9875213.932657791
2.1100454330444336	9713000.726355588
2.1132853031158447	9497513.66832655
2.116520881652832	9303622.811349053
2.1197516918182373	9165843.165506506
2.1229779720306396	8999230.953095185
2.12619948387146	8734810.237352017
2.1294167041778564	8436878.984712329
2.132629156112671	8187190.143677886
2.1358368396759033	7927580.632975277
2.139039993286133	7600003.327792991
2.1422386169433594	7279516.288040484
2.145432472229004	6998577.041543117
2.1486217975616455	6736573.433952533
2.151806354522705	6485696.733172012
2.1549863815307617	6200188.386398414
2.1581614017486572	5839125.082140962
2.16133189201355	5428168.675954868
2.1644976139068604	5045541.092214849
2.167658567428589	4766561.126602136
2.1708147525787354	4578387.495638878
2.173966407775879	4384910.479560174
2.1771130561828613	4171326.24016491
2.1802549362182617	3957133.5677570566
2.183391809463501	3652006.2130152625
2.1865241527557373	3223768.8697330197
2.1896514892578125	2738314.169320081
2.1927738189697266	2218863.2337219752
2.1958916187286377	1660226.710453704
2.1990041732788086	1131787.4535548273
2.2021119594573975	812688.7117491247
2.2052149772644043	788961.2313587373
2.208312749862671	951803.9782641648
2.2114057540893555	1135653.672305591
2.214493751525879	1259969.8800496585
2.217576742172241	1346797.4790076
2.2206547260284424	1388134.5573098275
2.2237277030944824	1343260.9797108013
2.2267956733703613	1218718.028668207
2.2298583984375	1079293.067108343
2.2329163551330566	985129.0383301588
2.235969066619873	907870.140950319
2.2390167713165283	813517.634388557
2.2420592308044434	735606.2453303927
2.2450966835021973	687807.4845675614
2.248128890991211	646480.4276072292
2.2511560916900635	597596.0333041956
2.254178285598755	550580.4535251574
2.257194995880127	530372.2606770748
2.260206699371338	543682.5676355398
2.2632133960723877	570704.2612710157
2.266214609146118	579608.5819829982
2.2692108154296875	559717.0653748454
2.2722020149230957	538239.845550436
2.2751877307891846	533995.7779653629
2.278168201446533	539545.636517779
2.2811436653137207	534826.1717620738
2.284113883972168	504132.3955157124
2.287078857421875	453540.46074785886
2.290038824081421	402388.88708137895
2.2929933071136475	373157.32187477214
2.295942783355713	378364.29826144787
2.298887014389038	422030.72249205987
2.301826238632202	518946.4387459557
2.304760217666626	686863.3405426092
2.3076889514923096	922761.1553464996
2.310612440109253	1132816.944593883
2.3135311603546143	1080739.9839375964
2.3164443969726562	738712.0270235188
2.319352865219116	441260.7332267503
2.322256088256836	355591.3768637326
2.3251543045043945	368215.3492843743
2.328047275543213	386240.2762897118
2.330935478210449	378144.61139600526
2.3338186740875244	353181.0306229754
2.3366971015930176	338022.1939934277
2.3395702838897705	335518.1132852924
2.3424389362335205	338169.1386111032
2.3453025817871094	346310.1714592853
2.348161458969116	363826.7341947579
2.351015567779541	395425.8947121773
2.353865146636963	442967.9584512854
2.3567099571228027	501064.8553705044
2.3595502376556396	564238.7282841727
2.3623859882354736	629655.7868443977
2.3652172088623047	671884.1459066902
2.368043899536133	619533.1805297536
2.370866537094116	465064.37095567235
2.3736846446990967	340858.56584890233
2.3764986991882324	331106.04922437767
2.3793084621429443	388146.1597961557
2.3821144104003906	464831.4126658389
2.384916305541992	551904.7878423671
2.387714147567749	640903.2673970031
2.3905084133148193	710672.6933937944
2.393299102783203	754006.3501024743
2.3960859775543213	800822.6367568085
2.398869514465332	867935.9846283745
2.4016497135162354	920923.9770298317
2.4044265747070312	937914.4375904193
2.407200336456299	969912.7934927247
2.409970998764038	1057148.1226853544
2.4127390384674072	1123028.8997240984
2.415503978729248	1081143.3661570565
2.418266534805298	997943.079352481
2.4210267066955566	987242.1536350185
2.4237842559814453	1043892.9504525341
2.426539897918701	1108300.1854759369
2.429293394088745	1147190.385331068
2.4320452213287354	1135353.9979180607
2.4347951412200928	1101166.7493540677
2.4375438690185547	1140648.246893864
2.440291166305542	1271192.3938751596
2.443037271499634	1387073.1404599973
2.445782423019409	1425955.9335564042
2.4485268592834473	1428343.637934735
2.451270818710327	1437438.7126592807
2.454014539718628	1472628.7419398723
2.4567582607269287	1547433.416053446
2.4595019817352295	1638105.4186092543
2.4622461795806885	1701429.2503007895
2.4649908542633057	1725338.244372369
2.4677364826202393	1712031.8265953995
2.4704833030700684	1674142.719286031
2.473231554031372	1650894.0541164987
2.4759814739227295	1669490.9093431833
2.4787333011627197	1740308.5524496764
2.481487512588501	1859096.723983525
2.4842441082000732	1927224.510510573
