#wavelength	surface flux
0.6450077295303345	3714.727055910164
0.6472567915916443	5850.684749115685
0.6494921445846558	7657.164103831464
0.6517150402069092	8862.78457847901
0.6539263725280762	10180.803781983996
0.6561272740364075	11682.770750042395
0.6583186388015747	13354.270656447672
0.6605015397071838	15186.604962853178
0.6626768708229065	17308.504559703386
0.6648455858230591	19792.53036036033
0.6670085787773132	22219.305362371997
0.6691668033599854	23416.328905755763
0.6713210344314575	24968.139808387445
0.6734722256660461	29928.224883267416
0.6756211519241333	35913.70084167175
0.6777685880661011	40466.01775226064
0.6799154281616211	44487.04226453153
0.6820623278617859	48433.863949708306
0.6842101216316223	52390.38283971469
0.6863595843315125	55964.81820180173
0.688511312007904	58301.249543511825
0.6906660795211792	58976.45854661401
0.6928245425224304	59230.10442152504
0.6949873566627502	60713.64458932892
0.6971551775932312	63592.63413088479
0.6993286609649658	67446.39884919231
0.7015084028244019	72053.80513410382
0.7036949396133423	76793.14279200516
0.7058889269828796	81026.34439177494
0.7080909013748169	84860.72151668966
0.710301399230957	88817.46887178408
0.712520956993103	92490.7279341031
0.7147500514984131	93875.97570370468
0.7169892191886902	92894.91527460258
0.7192389369010925	93196.39940087034
0.7214996814727783	95035.9633718873
0.723771870136261	95282.46207613112
0.7260559797286987	93834.60328033695
0.7283523678779602	91885.35410543738
0.7306615710258484	89449.07292341274
0.7329838871955872	86503.50982339527
0.7353196740150452	83395.10280997943
0.7376693487167358	80307.2434046249
0.7400332689285278	76857.7209888111
0.7424117922782898	73152.72262741876
0.7448052167892456	69610.93558782541
0.7472138404846191	65709.76402088105
0.7496379613876343	60681.363375862435
0.7520779371261597	55062.98503918109
0.7545340061187744	49603.08300640942
0.7570064663887024	44539.06819072587
0.7594954967498779	39896.05685869815
0.7620013952255249	33874.94483168848
0.7645244002342224	26271.0442614995
0.7670646905899048	21346.615697521895
0.7696225643157959	21900.64088284706
0.7721980810165405	27586.454913614092
0.7747915983200073	38152.86600867958
0.7774031162261963	49581.99822079129
0.7800329327583313	60166.89208329175
0.7826811671257019	77750.5708877521
0.7853479981422424	101188.97169988538
0.7880334854125977	124004.683815612
0.7907378077507019	143995.13506239356
0.7934610247612	155934.03801415119
0.7962033748626709	180461.252912902
0.7989648580551147	231303.16729651962
0.801745593547821	283109.337105618
0.8045456409454346	326622.18842099863
0.8073651194572449	368209.9406171689
0.8102040886878967	408548.1363770318
0.8130625486373901	452862.1567594149
0.8159406185150146	509710.38583625935
0.8188382983207703	576591.8755877108
0.8217556476593018	643213.2042781024
0.8246926665306091	716623.030407095
0.8276493549346924	799617.6430757528
0.8306257724761963	880001.4233823225
0.8336219191551208	957715.3706717741
0.8366377949714661	1043298.4971562426
0.8396733403205872	1145939.8117343443
0.8427285552024841	1261301.4423582254
0.8458034992218018	1379982.7491747136
0.8488980531692505	1482217.3485305987
0.8520121574401855	1594578.9658919356
0.8551458716392517	1809853.5798792248
0.8582990765571594	2061886.1696672807
0.8614717125892639	2254391.5505133946
0.8646637797355652	2428115.549251446
0.8678751587867737	2607533.2620946397
0.8711057901382446	2799597.1079549254
0.8743556141853333	3009649.7165515707
0.87762451171875	3265416.9870404205
0.8809124231338501	3597101.798102742
0.8842192888259888	3836884.8974013063
0.8875449895858765	3743418.7933400874
0.8908893465995789	3438910.9356954275
0.894252359867096	3351771.7369353836
0.8976338505744934	3608180.600044799
0.9010337591171265	4141347.997879418
0.9044519662857056	4937406.471434724
0.9078882932662964	5617039.752444877
0.9113426208496094	6021521.133390988
0.914814829826355	6408561.602955928
0.9183048605918884	6978451.994007342
0.9218124747276306	7557950.549038456
0.925337553024292	7203815.725375839
0.9288799166679382	5877419.677407077
0.9324395060539246	5169267.817856508
0.9360161423683167	5653201.087922244
0.9396095871925354	6684745.3143426655
0.943219780921936	7589712.326775711
0.9468464851379395	7987685.716587564
0.9504896402359009	8212394.785688427
0.9541489481925964	8492601.070810542
0.9578243494033813	8731545.447621478
0.9615156054496765	9172891.060731702
0.9652225375175476	10077047.708120609
0.9689450263977051	11111759.582356703
0.9726828336715698	11920943.285211053
0.9764357805252075	12765611.260180851
0.9802037477493286	13798047.73956498
0.983986496925354	14989077.726551747
0.9877838492393494	16109535.022547647
0.9915955662727356	16686935.88606225
0.9954215884208679	17442141.26642936
0.9992615580558777	18917724.171045188
1.0031154155731201	20430112.21350763
1.0069829225540161	22029398.513421953
1.0108637809753418	24049459.977837574
1.0147579908370972	26052815.17950533
1.018665075302124	28126934.551135466
1.022585153579712	30303751.197205033
1.0265177488327026	32062600.89020445
1.0304628610610962	34120107.43780045
1.0344202518463135	37028981.630653836
1.0383895635604858	40054895.9617058
1.0423706769943237	42571080.23614941
1.0463634729385376	44488776.51845192
1.0503677129745483	45984528.776563846
1.0543830394744873	47429555.70371133
1.058409333229065	49073690.16207204
1.0624464750289917	50919309.18873118
1.0664942264556885	52658732.88948131
1.0705522298812866	54165941.29269234
1.0746204853057861	55627211.42984935
1.0786986351013184	56825628.82057871
1.0827864408493042	56770251.631698094
1.086883783340454	53258354.70447604
1.0909905433654785	45162442.54781752
1.0951062440872192	35530851.279782355
1.0992310047149658	28424497.54478272
1.10336434841156	23702997.502521493
1.1075061559677124	19394657.591525536
1.1116561889648438	15048229.40458946
1.115814208984375	11521666.42533079
1.1199802160263062	9941412.039670145
1.124153733253479	10308268.877377259
1.1283347606658936	10881108.318428522
1.1325229406356812	9654805.846627463
1.1367181539535522	8443986.315595143
1.1409201622009277	8886544.14427905
1.145128846168518	8966363.772823786
1.1493438482284546	7780386.206512457
1.1535650491714478	5871477.7417974975
1.1577922105789185	4749848.177979715
1.1620250940322876	5426259.72549354
1.1662636995315552	6567220.903759377
1.170507550239563	6139509.909068721
1.174756646156311	5043804.679246714
1.1790107488632202	6541724.632173553
1.1832695007324219	10111390.347429724
1.1875330209732056	13361145.836701157
1.191800832748413	16645782.315407788
1.1960728168487549	20576937.779932838
1.2003488540649414	25168921.024394352
1.2046287059783936	30631013.361172304
1.2089121341705322	36459530.00652969
1.2131990194320679	42619865.65778208
1.2174891233444214	49028030.27870151
1.2217823266983032	55323672.12240815
1.2260783910751343	62308528.81397138
1.230377197265625	68588687.89860146
1.2346785068511963	72623514.63639796
1.238982081413269	74154914.8062604
1.2432878017425537	74794600.31679952
1.2475954294204712	77256773.34516476
1.2519049644470215	79226265.12633994
1.256216049194336	85498290.29286018
1.2605286836624146	94974884.6487066
1.2648425102233887	98585162.68781656
1.2691574096679688	98312737.47599615
1.2734732627868652	96584662.95205815
1.2777899503707886	93441188.09304135
1.2821072340011597	88224725.9162965
1.2864248752593994	80999960.88595332
1.2907428741455078	74163735.38241808
1.2950609922409058	69037252.68395722
1.2993791103363037	64305413.82809893
1.303696870803833	59101816.74544431
1.3080145120620728	53858708.86780401
1.3123314380645752	47926364.224346034
1.3166478872299194	41320236.097188525
1.3209635019302368	34863568.57985525
1.3252781629562378	27326636.248926822
1.3295916318893433	17769865.839972213
1.3339040279388428	9239269.035042208
1.3382149934768677	4898442.12731722
1.3425244092941284	3287041.831677329
1.3468321561813354	2264640.3293546424
1.3511382341384888	1520386.5380320211
1.3554422855377197	1039339.5099089979
1.3597444295883179	788832.157106279
1.3640443086624146	835630.9990469785
1.3683418035507202	957903.3186259964
1.3726370334625244	936270.2464703943
1.3769296407699585	913751.6898638103
1.381219506263733	890266.5215209535
1.3855066299438477	854112.81700363
1.3897908926010132	856682.5938015028
1.3940720558166504	813939.9500471047
1.3983501195907593	774664.109746362
1.4026249647140503	829545.799591366
1.4068963527679443	903670.7970232315
1.4111642837524414	1005830.9019261731
1.4154287576675415	1112819.2103029084
1.419689416885376	1125579.9089898306
1.4239463806152344	1190408.4639832366
1.4281994104385376	1446672.4211152575
1.4324485063552856	1756459.8587044266
1.436693549156189	2005309.4844764092
1.440934419631958	2208980.5583473844
1.4451709985733032	2555575.5452622417
1.449403166770935	3290242.0603202074
1.453631043434143	4183546.3503393354
1.4578542709350586	4809934.809530822
1.4620729684829712	5059899.70981974
1.4662868976593018	5075570.127827042
1.4704961776733398	5084365.015017447
1.4747005701065063	5546720.491174421
1.4788999557495117	6306089.955505691
1.4830944538116455	6822154.514340314
1.4872838258743286	7359587.692546221
1.491468071937561	8132535.772039332
1.4956470727920532	9098773.202354906
1.4998208284378052	9980217.896139912
1.5039892196655273	10649440.199899307
1.5081522464752197	11599609.712407563
1.5123097896575928	12777042.313337376
1.5164618492126465	13828158.720826339
1.5206083059310913	15107470.488447906
1.5247491598129272	16628149.740431255
1.5288842916488647	18014726.70792545
1.5330137014389038	19485386.221805114
1.5371372699737549	21314092.469309602
1.541254997253418	23318236.733422752
1.545366883277893	25324913.624243695
1.5494728088378906	27211631.59282519
1.5535727739334106	28483767.240553003
1.5576666593551636	29163275.574122317
1.561754584312439	30067828.96745781
1.5658363103866577	31790120.75671151
1.5699119567871094	33891108.12535767
1.5739814043045044	35276030.35140929
1.5780447721481323	35584022.56456702
1.582101821899414	35475885.879902996
1.5861525535583496	35025428.40391298
1.5901970863342285	33284456.937010475
1.5942351818084717	30299391.058481764
1.5982669591903687	26174126.480800647
1.6022924184799194	20850026.62992113
1.606311559677124	15646458.14777525
1.6103241443634033	11582419.172422532
1.6143304109573364	8550471.02464189
1.6183301210403442	6364946.843199883
1.6223233938217163	4842374.878926989
1.6263102293014526	3704967.5665099346
1.6302905082702637	3160987.950730611
1.634264349937439	3372247.3094890076
1.638231635093689	3975219.9977737362
1.6421923637390137	4506807.021175629
1.646146535873413	4778889.962472668
1.6500942707061768	5029548.148080427
1.6540353298187256	5109864.778456332
1.6579699516296387	4861314.670489627
1.661897897720337	4408910.856878481
1.6658192873001099	3221557.301628648
1.6697341203689575	1859909.8609302037
1.6736423969268799	1603188.765044272
1.677544116973877	2288548.1982178628
1.6814392805099487	2969794.064402798
1.6853278875350952	3081162.9793755044
1.6892099380493164	2730510.0117359445
1.6930854320526123	2219652.071059881
1.696954369544983	1821400.484627053
1.7008168697357178	1761387.5522794442
1.7046726942062378	2178377.4423255716
1.708522081375122	2715795.9169539614
1.712364912033081	2820398.4675786835
1.7162011861801147	2886390.229186135
1.7200311422348022	3364159.3684148993
1.723854422569275	3622574.236983929
1.7276713848114014	3228420.9089742023
1.731481909751892	2719493.9446328785
1.7352858781814575	2546396.42313306
1.7390835285186768	2703843.9874740243
1.7428747415542603	3124798.8697777614
1.7466596364974976	3557773.960409284
1.7504380941390991	3823363.208180433
1.7542102336883545	3885471.965008329
1.7579760551452637	3693714.6216543103
1.7617355585098267	3408063.1573631247
1.7654887437820435	3160949.48628728
1.7692357301712036	2878054.224188478
1.7729763984680176	2749591.1863584304
1.776710867881775	3017700.96117342
1.7804391384124756	3308824.963023302
1.7841613292694092	3147285.2574343495
1.7878772020339966	2657394.9019784406
1.7915871143341064	2248223.086581162
1.7952908277511597	2157772.4981583836
1.7989884614944458	2332055.2232314744
1.8026801347732544	2516568.232592136
1.806365728378296	2608594.527295982
1.8100452423095703	2856937.8114904054
1.8137187957763672	3113301.327931665
1.817386507987976	2948851.5799970627
1.8210482597351074	2898594.190970365
1.8247040510177612	3051854.869900511
1.828354001045227	2882544.041751718
1.8319982290267944	2631820.180807574
1.8356364965438843	2429033.133082621
1.8392690420150757	2360745.5087053874
1.8428958654403687	2443319.6585798156
1.8465168476104736	2545867.064923936
1.8501322269439697	2678842.168721533
1.8537418842315674	2655185.854133679
1.8573459386825562	2424485.7626287076
1.860944390296936	2140919.430050467
1.864537239074707	2011021.4217218447
1.8681244850158691	2103388.2467527296
1.871706247329712	2334760.9881359255
1.8752825260162354	2787737.551338886
1.8788533210754395	3567963.887734905
1.8824186325073242	4260549.810545988
1.8859784603118896	4457584.166975327
1.8895330429077148	4507897.0899755
1.8930821418762207	4818048.345803079
1.8966259956359863	4974981.345503558
1.9001644849777222	4664232.394128175
1.9036977291107178	4494060.437882529
1.9072256088256836	4575046.441227787
1.9107483625411987	4733388.357539901
1.9142658710479736	5054438.598207341
1.9177782535552979	5046965.913014216
1.9212853908538818	4492284.227910097
1.9247875213623047	4118080.702241411
1.9282845258712769	3972785.503437442
1.9317764043807983	3673083.4362881007
1.9352631568908691	3353247.4190023574
1.9387450218200684	3028183.252669714
1.942221760749817	3137682.984936288
1.9456936120986938	3696956.768891444
1.9491604566574097	4124386.942407038
1.952622413635254	4124716.3572998336
1.956079363822937	3967044.6021903907
1.959531545639038	4202164.591773842
1.962978720664978	4520164.430917878
1.966421127319336	4753261.502371143
1.9698586463928223	5046248.95370982
1.9732913970947266	5274794.314112844
1.9767193794250488	5632638.1910130875
1.9801424741744995	5986769.365727205
1.9835609197616577	6246464.6741771605
1.9869745969772339	6433753.007760625
1.990383505821228	6555690.267894083
1.9937876462936401	7142689.880950072
1.9971871376037598	7789142.148573467
2.000581979751587	8049469.70441766
2.003972291946411	8217862.97261137
2.007357597351074	8478023.19135774
2.0107386112213135	8981130.990203444
2.0141148567199707	9307105.90486058
2.017486572265625	9310649.126645513
2.0208535194396973	9849211.105871145
2.0242159366607666	10636374.4913965
2.027573823928833	10892872.505167162
2.0309269428253174	11082312.854321478
2.034275770187378	11490780.511362648
2.0376198291778564	11988198.672954857
2.040959596633911	12552918.473750165
2.044294595718384	13183331.011232521
2.0476250648498535	13633930.693951461
2.0509510040283203	13720137.193525149
2.054272413253784	13901823.120055752
2.057589530944824	14500785.919252042
2.0609018802642822	14958303.260029888
2.0642096996307373	15032655.703084484
2.0675129890441895	15266870.861234466
2.0708119869232178	15601588.473332709
2.074106216430664	15625997.575161755
2.0773961544036865	15517829.461362887
2.080681324005127	15488749.475422096
2.0839622020721436	15430544.657111332
2.087238311767578	15398358.497929847
2.090510129928589	15359009.494170405
2.0937774181365967	15033087.30188415
2.0970399379730225	14558808.061655615
2.1002981662750244	14189274.511979586
2.1035518646240234	13868923.759278681
2.1068007946014404	13471019.97326625
2.1100454330444336	12982336.55606346
2.1132853031158447	12480189.462282224
2.116520881652832	12056228.776257573
2.1197516918182373	11717215.758008095
2.1229779720306396	11305578.856737608
2.12619948387146	10705606.758273084
2.1294167041778564	10049043.40577979
2.132629156112671	9531203.910005884
2.1358368396759033	9074140.99753885
2.139039993286133	8546947.045209523
2.1422386169433594	8042321.03685413
2.145432472229004	7597926.945642038
2.1486217975616455	7181687.341890791
2.151806354522705	6784146.607615909
2.1549863815307617	6321946.355396588
2.1581614017486572	5759359.854469153
2.16133189201355	5178901.863196474
2.1644976139068604	4673567.080860451
2.167658567428589	4319297.4403510755
2.1708147525787354	4112797.9797799326
2.173966407775879	3938504.6098048305
2.1771130561828613	3730425.7215507096
2.1802549362182617	3478938.4856567215
2.183391809463501	3122882.0792506784
2.1865241527557373	2661262.7048623236
2.1896514892578125	2169538.31343814
2.1927738189697266	1686611.9033675778
2.1958916187286377	1212897.327207163
2.1990041732788086	785072.7992172301
2.2021119594573975	514072.7140466581
2.2052149772644043	451914.49259394925
2.208312749862671	530803.1937328585
2.2114057540893555	662921.7671173156
2.214493751525879	796314.4497871421
2.217576742172241	907137.9112998697
2.2206547260284424	956225.1724188126
2.2237277030944824	918033.55380382
2.2267956733703613	826173.7917335385
2.2298583984375	732957.5116674623
2.2329163551330566	662487.2461466015
2.235969066619873	597865.3548414223
2.2390167713165283	526255.3465243689
2.2420592308044434	468324.43028190074
2.2450966835021973	428608.4101336185
2.248128890991211	391729.58271418844
2.2511560916900635	355827.97019392584
2.254178285598755	329788.9689711403
2.257194995880127	321721.59356784314
2.260206699371338	329352.91907983314
2.2632133960723877	340397.46956525557
2.266214609146118	340987.46790798625
2.2692108154296875	328982.6871349765
2.2722020149230957	318384.9923110052
2.2751877307891846	313741.81294962007
2.278168201446533	305507.88867379207
2.2811436653137207	288921.2609863151
2.284113883972168	264447.0445181597
2.287078857421875	233191.38327105175
2.290038824081421	202303.13255176693
2.2929933071136475	186328.38389476849
2.295942783355713	192742.5361961154
2.298887014389038	221109.94248468473
2.301826238632202	277041.94171040907
2.304760217666626	371421.2859142469
2.3076889514923096	511998.0954031583
2.310612440109253	650274.8205001472
2.3135311603546143	639088.5130612077
2.3164443969726562	450516.5634757713
2.319352865219116	273685.2858428376
2.322256088256836	209740.5325678568
2.3251543045043945	204444.11260849048
2.328047275543213	208838.1012779879
2.330935478210449	203063.9039063463
2.3338186740875244	191990.17136994848
2.3366971015930176	190881.98296701297
2.3395702838897705	198155.00555068033
2.3424389362335205	205518.1398551085
2.3453025817871094	212352.7645014554
2.348161458969116	221402.53910522765
2.351015567779541	235932.62286117027
2.353865146636963	257994.73139031202
2.3567099571228027	286499.7094992593
2.3595502376556396	321712.4420411352
2.3623859882354736	367712.3647066897
2.3652172088623047	409475.03510187595
2.368043899536133	392185.35600807215
2.370866537094116	301726.22749501176
2.3736846446990967	216678.1526360647
2.3764986991882324	191942.73777200337
2.3793084621429443	210810.14185289762
2.3821144104003906	252227.6277333232
2.384916305541992	307210.7500783011
2.387714147567749	368336.44110835466
2.3905084133148193	425977.8275084103
2.393299102783203	474153.6473226575
2.3960859775543213	515443.6103150792
2.398869514465332	552922.1158497194
2.4016497135162354	587711.2345848263
2.4044265747070312	621987.9803801618
2.407200336456299	662884.8814154876
2.409970998764038	711562.9219697258
2.4127390384674072	738845.8320079363
2.415503978729248	715275.5864924303
2.418266534805298	669539.0699817655
2.4210267066955566	649305.5683945677
2.4237842559814453	660347.9088303896
2.426539897918701	689934.1408032476
2.429293394088745	718765.1735424271
2.4320452213287354	718167.2103800284
2.4347951412200928	702026.030394497
2.4375438690185547	734069.8651341336
2.440291166305542	827391.0348151277
2.443037271499634	916356.2510666362
2.445782423019409	961381.3456719863
2.4485268592834473	983669.9016814096
2.451270818710327	1006780.3188487481
2.454014539718628	1043500.7138919169
2.4567582607269287	1103696.2934388171
2.4595019817352295	1173728.644998199
2.4622461795806885	1228269.2385699763
2.4649908542633057	1262614.4665162028
2.4677364826202393	1283368.5655536582
2.4704833030700684	1296988.8156528915
2.473231554031372	1315699.7075582854
2.4759814739227295	1350879.4059475646
2.4787333011627197	1419045.0594373306
2.481487512588501	1526083.7318259124
2.4842441082000732	1603238.1035366068
