#wavelength	surface flux
0.6450077295303345	4747.732853375165
0.6472567915916443	7612.622720562431
0.6494921445846558	10276.612977136232
0.6517150402069092	12324.533763185498
0.6539263725280762	14647.935184565631
0.6561272740364075	17359.89063132236
0.6583186388015747	20429.91912026262
0.6605015397071838	23838.721516691257
0.6626768708229065	27834.612152594673
0.6648455858230591	32546.568017731628
0.6670085787773132	37102.8157990419
0.6691668033599854	39083.106924243795
0.6713210344314575	41892.37956762138
0.6734722256660461	51946.04579418371
0.6756211519241333	64129.84161615002
0.6777685880661011	73243.04802026975
0.6799154281616211	81291.84643634042
0.6820623278617859	89267.46439183196
0.6842101216316223	97173.62781938406
0.6863595843315125	103993.95217484303
0.688511312007904	108065.79184762217
0.6906660795211792	109048.86589109684
0.6928245425224304	109450.16334784916
0.6949873566627502	111835.22903917832
0.6971551775932312	116730.19567475615
0.6993286609649658	124059.90370453915
0.7015084028244019	133170.95149386983
0.7036949396133423	142398.70120896294
0.7058889269828796	150421.16822648083
0.7080909013748169	157515.98399630887
0.710301399230957	164863.10722121477
0.712520956993103	171972.8410655868
0.7147500514984131	176186.58749691106
0.7169892191886902	176830.81628160446
0.7192389369010925	176701.25265291575
0.7214996814727783	176409.9683577359
0.723771870136261	174153.5366861893
0.7260559797286987	169752.38252783532
0.7283523678779602	164186.78616626235
0.7306615710258484	157607.24138590178
0.7329838871955872	149575.84091083662
0.7353196740150452	141154.17865418972
0.7376693487167358	132997.27420339428
0.7400332689285278	123813.66911190344
0.7424117922782898	114296.71116841023
0.7448052167892456	106051.33005838774
0.7472138404846191	98576.1897354691
0.7496379613876343	90978.19573953497
0.7520779371261597	84500.01680169265
0.7545340061187744	78257.27689849485
0.7570064663887024	67905.56367740616
0.7594954967498779	51815.23515766252
0.7620013952255249	33073.572484271026
0.7645244002342224	18780.152504023565
0.7670646905899048	12932.239206536076
0.7696225643157959	13663.591619575387
0.7721980810165405	21262.219742885627
0.7747915983200073	37874.55427248375
0.7774031162261963	56212.32634215319
0.7800329327583313	71582.99978115445
0.7826811671257019	97967.6245450322
0.7853479981422424	136083.71474391397
0.7880334854125977	175724.96674682552
0.7907378077507019	211547.99698605167
0.7934610247612	233331.85140908338
0.7962033748626709	279796.03308886685
0.7989648580551147	376028.36135043553
0.801745593547821	474562.16739023564
0.8045456409454346	559847.4301340434
0.8073651194572449	647243.1064677729
0.8102040886878967	740329.1091530104
0.8130625486373901	841842.1016613959
0.8159406185150146	957634.3995278465
0.8188382983207703	1089409.9706146447
0.8217556476593018	1228914.5580724364
0.8246926665306091	1380711.3808466888
0.8276493549346924	1548104.5436668445
0.8306257724761963	1717363.847330942
0.8336219191551208	1888407.5274693656
0.8366377949714661	2077134.418026555
0.8396733403205872	2292413.4966512313
0.8427285552024841	2522424.101321153
0.8458034992218018	2751323.9603114533
0.8488980531692505	2934161.138065298
0.8520121574401855	3122834.888609528
0.8551458716392517	3526859.9064307893
0.8582990765571594	4021389.3308625794
0.8614717125892639	4402377.526471109
0.8646637797355652	4751614.309053926
0.8678751587867737	5120143.218004582
0.8711057901382446	5517316.9762288835
0.8743556141853333	5947318.707439643
0.87762451171875	6482844.4809827
0.8809124231338501	7230577.652840646
0.8842192888259888	7961615.279164919
0.8875449895858765	8326956.256772219
0.8908893465995789	8294067.373306101
0.894252359867096	8292156.607880667
0.8976338505744934	8989520.167610398
0.9010337591171265	10244629.402092054
0.9044519662857056	11517453.450470846
0.9078882932662964	12545195.453483734
0.9113426208496094	13367555.403240433
0.914814829826355	14214378.202450452
0.9183048605918884	15236429.667493928
0.9218124747276306	16364151.894712932
0.925337553024292	16290549.594672956
0.9288799166679382	14575231.327766102
0.9324395060539246	13985176.243680563
0.9360161423683167	15959322.44813642
0.9396095871925354	18901325.37594771
0.943219780921936	20878785.503880654
0.9468464851379395	21563193.42485052
0.9504896402359009	22342297.907738067
0.9541489481925964	23471839.977597136
0.9578243494033813	24379148.946153842
0.9615156054496765	25504800.132350516
0.9652225375175476	27674210.65097582
0.9689450263977051	30409818.24155615
0.9726828336715698	32769132.7345033
0.9764357805252075	35197402.62261013
0.9802037477493286	38223902.92171556
0.983986496925354	41592486.80259964
0.9877838492393494	43363503.62167105
0.9915955662727356	42522816.049166106
0.9954215884208679	43075384.449338175
0.9992615580558777	46282497.00178242
1.0031154155731201	49477882.418524876
1.0069829225540161	52510958.811156124
1.0108637809753418	55753882.873102546
1.0147579908370972	58668071.31152675
1.018665075302124	61755535.17242213
1.022585153579712	65171859.975433476
1.0265177488327026	67673627.35519286
1.0304628610610962	70638801.82344577
1.0344202518463135	75379021.48989633
1.0383895635604858	80157529.0210875
1.0423706769943237	83928203.5747738
1.0463634729385376	86932157.21905482
1.0503677129745483	89159922.69451854
1.0543830394744873	91298426.66933544
1.058409333229065	94259510.51061514
1.0624464750289917	97942599.01392142
1.0664942264556885	101492868.0488794
1.0705522298812866	104855122.21545635
1.0746204853057861	108513844.09989771
1.0786986351013184	111871296.34574911
1.0827864408493042	113832573.4546563
1.086883783340454	112096292.08490519
1.0909905433654785	103991103.86431351
1.0951062440872192	90909155.39821048
1.0992310047149658	78081006.67237933
1.10336434841156	67311174.30856338
1.1075061559677124	56685098.00257031
1.1116561889648438	46492452.87396336
1.115814208984375	39670655.225993134
1.1199802160263062	38216726.681758344
1.124153733253479	41592920.7478706
1.1283347606658936	43896249.912125446
1.1325229406356812	38953441.467253365
1.1367181539535522	35477700.381430246
1.1409201622009277	38431623.652422704
1.145128846168518	40311238.79663786
1.1493438482284546	39569812.169554494
1.1535650491714478	35975057.39775887
1.1577922105789185	32857764.453872174
1.1620250940322876	33836148.8479568
1.1662636995315552	34688892.94487551
1.170507550239563	32091443.72352177
1.174756646156311	29656440.025566988
1.1790107488632202	35584093.54508951
1.1832695007324219	49773386.54575609
1.1875330209732056	63595946.72056256
1.191800832748413	74675564.04165661
1.1960728168487549	83769598.39715342
1.2003488540649414	92278515.5140794
1.2046287059783936	103263771.5862431
1.2089121341705322	114538484.61712657
1.2131990194320679	125656943.14247261
1.2174891233444214	137090679.17815536
1.2217823266983032	146839500.44664356
1.2260783910751343	157391012.68875176
1.230377197265625	166197355.79066736
1.2346785068511963	168763199.09072483
1.238982081413269	164679922.66206977
1.2432878017425537	158944029.79755166
1.2475954294204712	158162141.43753645
1.2519049644470215	159140476.47470382
1.256216049194336	170884937.7601124
1.2605286836624146	190786625.0808716
1.2648425102233887	201270444.70251545
1.2691574096679688	204477451.78210166
1.2734732627868652	203511508.27156276
1.2777899503707886	198786794.02700368
1.2821072340011597	191400085.8811186
1.2864248752593994	181465267.5473047
1.2907428741455078	172208348.15880784
1.2950609922409058	166038797.1633316
1.2993791103363037	161121767.10758603
1.303696870803833	155615638.514869
1.3080145120620728	149108758.32344943
1.3123314380645752	139455343.8219142
1.3166478872299194	126661631.84817386
1.3209635019302368	112032663.35630167
1.3252781629562378	91831530.55172786
1.3295916318893433	63439568.77961152
1.3339040279388428	34360773.97934645
1.3382149934768677	16527133.259072738
1.3425244092941284	9945713.044095486
1.3468321561813354	7028090.262161946
1.3511382341384888	5001288.582553394
1.3554422855377197	3757425.8081687246
1.3597444295883179	3313672.5005902927
1.3640443086624146	3706527.792542084
1.3683418035507202	4181124.4054809916
1.3726370334625244	4429212.921664149
1.3769296407699585	4926694.903447546
1.381219506263733	5115090.43789209
1.3855066299438477	4866388.348389542
1.3897908926010132	4691702.075566689
1.3940720558166504	4420457.397349292
1.3983501195907593	4226702.066071785
1.4026249647140503	4400436.098908246
1.4068963527679443	4483421.173503233
1.4111642837524414	4530013.274707304
1.4154287576675415	4720923.869911387
1.419689416885376	4665303.631796329
1.4239463806152344	4756328.113834531
1.4281994104385376	5524867.844838979
1.4324485063552856	6463209.699415875
1.436693549156189	7102851.321280478
1.440934419631958	7585520.685495395
1.4451709985733032	8522780.503719976
1.449403166770935	10539818.111151734
1.453631043434143	12921695.597701548
1.4578542709350586	14531615.120883185
1.4620729684829712	15089369.695905825
1.4662868976593018	15055375.683950894
1.4704961776733398	15138089.6917334
1.4747005701065063	16340668.071993591
1.4788999557495117	18122784.615640234
1.4830944538116455	19136527.766910557
1.4872838258743286	20073218.18756761
1.491468071937561	21617664.001038123
1.4956470727920532	23707462.57524542
1.4998208284378052	25783602.213642064
1.5039892196655273	27673402.16912902
1.5081522464752197	30077500.03279794
1.5123097896575928	32713285.0188218
1.5164618492126465	35129081.168291755
1.5206083059310913	38112398.70050441
1.5247491598129272	41477637.5437908
1.5288842916488647	44469100.37559516
1.5330137014389038	47869463.71922464
1.5371372699737549	51921520.489103764
1.541254997253418	55822915.88347351
1.545366883277893	59647134.34611997
1.5494728088378906	63454720.041777976
1.5535727739334106	66222048.33406828
1.5576666593551636	68148083.3457976
1.561754584312439	70343612.70988122
1.5658363103866577	73257638.5300328
1.5699119567871094	76415102.8049289
1.5739814043045044	78486255.26665512
1.5780447721481323	79181765.32291196
1.582101821899414	79408591.02873765
1.5861525535583496	79174042.2675701
1.5901970863342285	77166323.16965543
1.5942351818084717	73292946.30962174
1.5982669591903687	67607378.3812213
1.6022924184799194	59596116.26547944
1.606311559677124	50616064.6108831
1.6103241443634033	42371237.918896474
1.6143304109573364	35249598.01687715
1.6183301210403442	29540597.297888394
1.6223233938217163	25289828.494412392
1.6263102293014526	21967098.5684779
1.6302905082702637	20498302.97461348
1.634264349937439	21570117.294770822
1.638231635093689	23832611.570523493
1.6421923637390137	25877895.994253453
1.646146535873413	27316939.312200647
1.6500942707061768	28640071.01251942
1.6540353298187256	29075760.82735238
1.6579699516296387	28174483.556164075
1.661897897720337	25809402.845697023
1.6658192873001099	19919740.318178635
1.6697341203689575	13982181.079243047
1.6736423969268799	13514247.059584977
1.677544116973877	17089250.997328088
1.6814392805099487	20287415.30095625
1.6853278875350952	20833643.490017634
1.6892099380493164	19477920.532799747
1.6930854320526123	17608540.837157626
1.696954369544983	16271603.540228227
1.7008168697357178	16226627.285287417
1.7046726942062378	17863053.349977393
1.708522081375122	19918606.94965494
1.712364912033081	20379249.13731975
1.7162011861801147	20298670.2249317
1.7200311422348022	21192828.824782852
1.723854422569275	21527042.893881686
1.7276713848114014	20209172.604677178
1.731481909751892	18427664.10101668
1.7352858781814575	17273082.08161361
1.7390835285186768	16963417.65281609
1.7428747415542603	17335714.383976452
1.7466596364974976	17659895.765002556
1.7504380941390991	17621863.55629254
1.7542102336883545	17200540.502351943
1.7579760551452637	16327612.794522356
1.7617355585098267	15464717.287798136
1.7654887437820435	14535141.801296493
1.7692357301712036	13127326.887670552
1.7729763984680176	12129354.190357834
1.776710867881775	12073268.889933728
1.7804391384124756	12022804.612693727
1.7841613292694092	11193720.159367578
1.7878772020339966	10032370.838803818
1.7915871143341064	9298919.509830296
1.7952908277511597	8909396.57866162
1.7989884614944458	8680227.794329943
1.8026801347732544	8411067.506825095
1.806365728378296	8158069.127616868
1.8100452423095703	8640786.047042774
1.8137187957763672	9219841.59057355
1.817386507987976	8615458.769579967
1.8210482597351074	8423351.670725718
1.8247040510177612	8843572.25129062
1.828354001045227	8286207.351842357
1.8319982290267944	7536945.100423285
1.8356364965438843	7031005.695775725
1.8392690420150757	6802718.991815597
1.8428958654403687	6830558.847357039
1.8465168476104736	6912869.976070633
1.8501322269439697	7089430.429551989
1.8537418842315674	6836102.894237325
1.8573459386825562	6131648.316060753
1.860944390296936	5396422.977020706
1.864537239074707	5075062.487054575
1.8681244850158691	5313317.037590204
1.871706247329712	5906691.29786997
1.8752825260162354	6915964.92202126
1.8788533210754395	8513526.280489191
1.8824186325073242	9933949.96664643
1.8859784603118896	10325466.005870432
1.8895330429077148	10471898.332207924
1.8930821418762207	11342593.419947417
1.8966259956359863	11890054.23231693
1.9001644849777222	11257587.643806092
1.9036977291107178	10787964.889407553
1.9072256088256836	10849845.221437212
1.9107483625411987	11151226.205828601
1.9142658710479736	11805224.530896582
1.9177782535552979	11748354.905001877
1.9212853908538818	10509663.094735496
1.9247875213623047	9580493.10197063
1.9282845258712769	9203181.869459998
1.9317764043807983	8632720.15461121
1.9352631568908691	7976921.976280692
1.9387450218200684	7186591.718489841
1.942221760749817	7302464.467217075
1.9456936120986938	8445973.98841385
1.9491604566574097	9360019.025094977
1.952622413635254	9371413.980824409
1.956079363822937	8991328.319738023
1.959531545639038	9340417.077281356
1.962978720664978	9887936.941219399
1.966421127319336	10333524.798350992
1.9698586463928223	10815685.406179046
1.9732913970947266	11134054.071415493
1.9767193794250488	11770399.944778504
1.9801424741744995	12452922.032147542
1.9835609197616577	13070105.923611188
1.9869745969772339	13460874.43958869
1.990383505821228	13397354.611726908
1.9937876462936401	14185970.789360374
1.9971871376037598	15369649.051722651
2.000581979751587	16015982.902757272
2.003972291946411	16477907.763496617
2.007357597351074	16795069.66163646
2.0107386112213135	17405194.727233317
2.0141148567199707	18072410.482225094
2.017486572265625	18362076.35802325
2.0208535194396973	19441117.652498037
2.0242159366607666	20706640.396927923
2.027573823928833	20865023.020852786
2.0309269428253174	21083579.886737976
2.034275770187378	21950731.886836663
2.0376198291778564	22923922.64013623
2.040959596633911	23766941.032610495
2.044294595718384	24608735.711513683
2.0476250648498535	25253341.562598664
2.0509510040283203	25463284.892788295
2.054272413253784	25880709.74918001
2.057589530944824	26885590.058495834
2.0609018802642822	27583123.39886847
2.0642096996307373	27669947.926992577
2.0675129890441895	28012475.615348574
2.0708119869232178	28497585.928617414
2.074106216430664	28515261.18856271
2.0773961544036865	28403563.552498113
2.080681324005127	28523081.725635592
2.0839622020721436	28666299.980818447
2.087238311767578	28810932.943638336
2.090510129928589	28926661.921053763
2.0937774181365967	28702331.422411375
2.0970399379730225	28285115.20108825
2.1002981662750244	27925646.077426158
2.1035518646240234	27597281.347539283
2.1068007946014404	27251795.750272095
2.1100454330444336	26838532.660870027
2.1132853031158447	26336463.061469737
2.116520881652832	25857623.247790266
2.1197516918182373	25512754.112538613
2.1229779720306396	25144220.73090342
2.12619948387146	24520116.953818206
2.1294167041778564	23739344.541960236
2.132629156112671	23086091.899640124
2.1358368396759033	22460834.415819656
2.139039993286133	21692213.99788848
2.1422386169433594	20963819.47248757
2.145432472229004	20309798.832173403
2.1486217975616455	19650902.43925187
2.151806354522705	19004210.287697
2.1549863815307617	18271903.558639936
2.1581614017486572	17381114.90025368
2.16133189201355	16428450.073386725
2.1644976139068604	15559096.875921097
2.167658567428589	14881692.829778075
2.1708147525787354	14371242.638595602
2.173966407775879	13866000.391786098
2.1771130561828613	13289380.442123335
2.1802549362182617	12605028.549191976
2.183391809463501	11659967.015885103
2.1865241527557373	10456313.502249593
2.1896514892578125	9140949.185517691
2.1927738189697266	7717056.956280042
2.1958916187286377	6116205.094544794
2.1990041732788086	4501462.15266031
2.2021119594573975	3389412.357353061
2.2052149772644043	3092730.3303740006
2.208312749862671	3406179.70808053
2.2114057540893555	3929923.7682999996
2.214493751525879	4388179.411794606
2.217576742172241	4717776.176351159
2.2206547260284424	4879900.632214965
2.2237277030944824	4808561.082983641
2.2267956733703613	4493417.863987546
2.2298583984375	4086375.536989627
2.2329163551330566	3777952.2647443893
2.235969066619873	3529184.1204112777
2.2390167713165283	3253234.866926072
2.2420592308044434	3010274.02439066
2.2450966835021973	2838300.384352557
2.248128890991211	2698698.452782712
2.2511560916900635	2546115.3060822273
2.254178285598755	2398039.6157199647
2.257194995880127	2335527.8478868636
2.260206699371338	2365806.4139225055
2.2632133960723877	2411133.9869152317
2.266214609146118	2397392.3909814605
2.2692108154296875	2318779.592807682
2.2722020149230957	2251477.712985286
2.2751877307891846	2230627.685232933
2.278168201446533	2217046.2727718917
2.2811436653137207	2163667.4442148968
2.284113883972168	2046363.8819716687
2.287078857421875	1883651.0230151217
2.290038824081421	1729420.9626573394
2.2929933071136475	1655346.193561079
2.295942783355713	1697021.6606199697
2.298887014389038	1855715.0586291105
2.301826238632202	2163925.291298409
2.304760217666626	2658895.5385124027
2.3076889514923096	3306001.596616108
2.310612440109253	3846648.7839573747
2.3135311603546143	3692188.1240975545
2.3164443969726562	2781441.4258980583
2.319352865219116	1955724.8014742231
2.322256088256836	1647996.5402247286
2.3251543045043945	1598911.2638687172
2.328047275543213	1585741.134672989
2.330935478210449	1526396.703250251
2.3338186740875244	1446472.4910777186
2.3366971015930176	1416747.0887027388
2.3395702838897705	1437006.351381756
2.3424389362335205	1474451.0059547487
2.3453025817871094	1515177.6561569415
2.348161458969116	1563315.4290766977
2.351015567779541	1650878.2579927726
2.353865146636963	1796439.359907944
2.3567099571228027	1965396.2946533388
2.3595502376556396	2134775.704308486
2.3623859882354736	2332623.6831086823
2.3652172088623047	2497153.8494627546
2.368043899536133	2365388.061249233
2.370866537094116	1879088.3802353425
2.3736846446990967	1447243.7070869564
2.3764986991882324	1345180.9696530357
2.3793084621429443	1459646.4732413488
2.3821144104003906	1665184.6698875611
2.384916305541992	1922759.477861864
2.387714147567749	2199364.244832565
2.3905084133148193	2439312.435600571
2.393299102783203	2616673.82597613
2.3960859775543213	2781092.064363652
2.398869514465332	2962472.770452257
2.4016497135162354	3105655.3860299564
2.4044265747070312	3176331.319804381
2.407200336456299	3262325.1990119666
2.409970998764038	3430382.525314427
2.4127390384674072	3539806.906350244
2.415503978729248	3435871.6857373756
2.418266534805298	3257964.4225496203
2.4210267066955566	3236321.0615740763
2.4237842559814453	3354909.5702242353
2.426539897918701	3483609.17098506
2.429293394088745	3548383.891946591
2.4320452213287354	3491532.726049884
2.4347951412200928	3378566.1146723866
2.4375438690185547	3431081.280372489
2.440291166305542	3695156.6377078216
2.443037271499634	3945916.877844814
2.445782423019409	4044439.474920785
2.4485268592834473	4049765.1051525245
2.451270818710327	4034948.697517514
2.454014539718628	4070408.5393321686
2.4567582607269287	4221453.05417635
2.4595019817352295	4429409.058354714
2.4622461795806885	4576901.315713977
2.4649908542633057	4629956.925098751
2.4677364826202393	4592084.725303267
2.4704833030700684	4496602.672284513
2.473231554031372	4449404.890261868
2.4759814739227295	4517019.893904103
2.4787333011627197	4694311.696012438
