#wavelength	surface flux
0.6450077295303345	152583.86120722993
0.6472567915916443	242969.72495508607
0.6494921445846558	322796.88279228954
0.6517150402069092	379464.74890949065
0.6539263725280762	442686.40558976406
0.6561272740364075	514147.91648499813
0.6583186388015747	592843.1752482206
0.6605015397071838	679275.2779601964
0.6626768708229065	772725.4297668026
0.6648455858230591	862287.529892043
0.6670085787773132	895599.925146425
0.6691668033599854	783921.9235272323
0.6713210344314575	718782.3694956548
0.6734722256660461	1000407.6431950848
0.6756211519241333	1407832.3836776344
0.6777685880661011	1672469.2096507729
0.6799154281616211	1860165.9336548902
0.6820623278617859	2029033.3960597883
0.6842101216316223	2169957.1182014863
0.6863595843315125	2250907.949483753
0.688511312007904	2246314.789592131
0.6906660795211792	2168143.6622843836
0.6928245425224304	2079942.478465044
0.6949873566627502	2038636.907236668
0.6971551775932312	2052897.342769074
0.6993286609649658	2120315.8044535313
0.7015084028244019	2234886.009527698
0.7036949396133423	2349084.568287662
0.7058889269828796	2429018.2672742535
0.7080909013748169	2501569.9712310634
0.710301399230957	2587933.486419723
0.712520956993103	2674871.629983422
0.7147500514984131	2744702.6817912753
0.7169892191886902	2799651.4246032704
0.7192389369010925	2849653.2150911703
0.7214996814727783	2874184.6522018234
0.723771870136261	2856702.7524198303
0.7260559797286987	2808288.8644072316
0.7283523678779602	2728997.4366696924
0.7306615710258484	2598295.0085926233
0.7329838871955872	2411306.126104761
0.7353196740150452	2205454.2834814875
0.7376693487167358	2015520.0606454082
0.7400332689285278	1827856.8355411536
0.7424117922782898	1651729.8415427778
0.7448052167892456	1509222.4519374543
0.7472138404846191	1370304.30126478
0.7496379613876343	1205866.8252224417
0.7520779371261597	1033343.4543437733
0.7545340061187744	872696.9517728215
0.7570064663887024	716223.9646774366
0.7594954967498779	559645.1457596583
0.7620013952255249	386874.2008780454
0.7645244002342224	199496.69015847443
0.7670646905899048	71254.5907838178
0.7696225643157959	48957.78345043142
0.7721980810165405	131082.35739794257
0.7747915983200073	339737.54353886266
0.7774031162261963	590821.8017736303
0.7800329327583313	819646.9279211913
0.7826811671257019	1188145.5511295854
0.7853479981422424	1679151.9745036426
0.7880334854125977	2145360.9810163938
0.7907378077507019	2521277.640218423
0.7934610247612	2692073.059482265
0.7962033748626709	3106771.1227927944
0.7989648580551147	4070050.588475314
0.801745593547821	5075113.48219967
0.8045456409454346	5950631.772615197
0.8073651194572449	6881304.96490549
0.8102040886878967	7929427.961108677
0.8130625486373901	9131491.433390133
0.8159406185150146	10446654.01083042
0.8188382983207703	11766624.683165789
0.8217556476593018	13241030.061057962
0.8246926665306091	14927576.455584709
0.8276493549346924	16563220.677255223
0.8306257724761963	18131613.926195353
0.8336219191551208	19796738.636535242
0.8366377949714661	21564894.427300107
0.8396733403205872	23283540.020537373
0.8427285552024841	24445851.29217838
0.8458034992218018	25065617.168988883
0.8488980531692505	25389150.0824804
0.8520121574401855	25500179.35074627
0.8551458716392517	26968971.58191522
0.8582990765571594	28946151.124187425
0.8614717125892639	29644270.46074477
0.8646637797355652	29762917.514448326
0.8678751587867737	29527687.513426516
0.8711057901382446	29610580.235620715
0.8743556141853333	31302914.08955211
0.87762451171875	34825377.08423948
0.8809124231338501	39281226.62824097
0.8842192888259888	43153027.7846617
0.8875449895858765	45240726.352074325
0.8908893465995789	45805861.81483731
0.894252359867096	46661039.00900627
0.8976338505744934	50999426.064874336
0.9010337591171265	56529969.33962414
0.9044519662857056	59542900.49470236
0.9078882932662964	62750910.364430696
0.9113426208496094	67632146.28977378
0.914814829826355	72410715.29994145
0.9183048605918884	76190971.84726286
0.9218124747276306	76611683.06339082
0.925337553024292	71464075.4476594
0.9288799166679382	63677480.53641472
0.9324395060539246	60179064.76256357
0.9360161423683167	62674363.963945165
0.9396095871925354	67338591.42009516
0.943219780921936	72082882.34971873
0.9468464851379395	75445693.32362625
0.9504896402359009	77770946.2130551
0.9541489481925964	79191112.90484592
0.9578243494033813	77539570.03417073
0.9615156054496765	76032028.71217458
0.9652225375175476	78677052.93087278
0.9689450263977051	81534236.21580061
0.9726828336715698	82039874.57577713
0.9764357805252075	84043243.00463808
0.9802037477493286	88415675.81929271
0.983986496925354	93338380.21320364
0.9877838492393494	93013388.08722842
0.9915955662727356	83014828.5073426
0.9954215884208679	77893434.2304804
0.9992615580558777	82952170.6284011
1.0031154155731201	89028450.59173739
1.0069829225540161	95899466.73275618
1.0108637809753418	103952877.406904
1.0147579908370972	110161768.96731496
1.018665075302124	114797357.45797074
1.022585153579712	117748019.87879214
1.0265177488327026	115435930.32413141
1.0304628610610962	115671788.19088867
1.0344202518463135	124601966.54958531
1.0383895635604858	135817121.8513713
1.0423706769943237	142723838.36726835
1.0463634729385376	140292307.5017502
1.0503677129745483	131084466.06308222
1.0543830394744873	123941936.99413556
1.058409333229065	122247944.11228201
1.0624464750289917	126789779.10298508
1.0664942264556885	134432510.2178337
1.0705522298812866	142466097.10050988
1.0746204853057861	154967157.73754194
1.0786986351013184	171221405.5946454
1.0827864408493042	185630690.61664423
1.086883783340454	192049838.71209234
1.0909905433654785	188067328.24966177
1.0951062440872192	177492382.31884685
1.0992310047149658	166284100.01409054
1.10336434841156	154268822.21353513
1.1075061559677124	142345755.70735824
1.1116561889648438	135493259.56374115
1.115814208984375	131632212.04240088
1.1199802160263062	131806024.88108024
1.124153733253479	140133303.24736625
1.1283347606658936	145350895.2958181
1.1325229406356812	134871807.6558401
1.1367181539535522	122014397.33896962
1.1409201622009277	122389219.14908917
1.145128846168518	134432811.14448535
1.1493438482284546	147296265.98535624
1.1535650491714478	149478157.34854126
1.1577922105789185	148959719.51698813
1.1620250940322876	150612988.60612243
1.1662636995315552	142683324.59039468
1.170507550239563	130435296.36467361
1.174756646156311	122526037.42379214
1.1790107488632202	125620653.30531576
1.1832695007324219	144138873.59646377
1.1875330209732056	161859357.33414784
1.191800832748413	171231048.86849314
1.1960728168487549	172254129.8164101
1.2003488540649414	172299441.0065887
1.2046287059783936	183571178.91235402
1.2089121341705322	196706970.05829102
1.2131990194320679	210063298.55373195
1.2174891233444214	224736870.54814398
1.2217823266983032	235693253.15761942
1.2260783910751343	252438313.11774516
1.230377197265625	267901876.10628262
1.2346785068511963	269658977.8141525
1.238982081413269	253681637.37025094
1.2432878017425537	233670588.8630486
1.2475954294204712	232575856.98381636
1.2519049644470215	235035632.45894623
1.256216049194336	246405686.62862623
1.2605286836624146	268787975.41119003
1.2648425102233887	283871980.5626345
1.2691574096679688	297276395.7818073
1.2734732627868652	305999679.9792333
1.2777899503707886	312740982.7900378
1.2821072340011597	315577661.57464075
1.2864248752593994	301996992.80779016
1.2907428741455078	286780748.38445526
1.2950609922409058	285424366.99895245
1.2993791103363037	289763894.75434166
1.303696870803833	292088046.93222654
1.3080145120620728	289473965.3678729
1.3123314380645752	284510647.9053632
1.3166478872299194	275382203.8506256
1.3209635019302368	255456736.56985268
1.3252781629562378	224978374.2222877
1.3295916318893433	178947993.85283342
1.3339040279388428	122192225.9021818
1.3382149934768677	81499987.81795509
1.3425244092941284	63712927.96740727
1.3468321561813354	54773659.71781226
1.3511382341384888	47662145.45649256
1.3554422855377197	41852821.26246538
1.3597444295883179	38995255.637940705
1.3640443086624146	39198900.056601346
1.3683418035507202	39071455.19410858
1.3726370334625244	37641310.325003505
1.3769296407699585	38551659.44005396
1.381219506263733	40916069.81212681
1.3855066299438477	42312101.035211064
1.3897908926010132	42159763.001273505
1.3940720558166504	40460696.69806116
1.3983501195907593	38849072.42383184
1.4026249647140503	38057308.0532988
1.4068963527679443	36385275.02316146
1.4111642837524414	34663218.05674829
1.4154287576675415	33804027.32273217
1.419689416885376	32713378.69794122
1.4239463806152344	32264732.564123325
1.4281994104385376	33163607.80794617
1.4324485063552856	34714434.50891896
1.436693549156189	36553978.78069695
1.440934419631958	38181848.79025715
1.4451709985733032	40103768.473147444
1.449403166770935	44407232.51784505
1.453631043434143	49732918.60897458
1.4578542709350586	52605971.43327154
1.4620729684829712	52894524.30981921
1.4662868976593018	52219894.37402024
1.4704961776733398	51965446.82290356
1.4747005701065063	54209141.08183124
1.4788999557495117	57571729.18269727
1.4830944538116455	59841788.62592428
1.4872838258743286	62188166.506146565
1.491468071937561	64531170.272111036
1.4956470727920532	67418000.11408094
1.4998208284378052	70313456.08732097
1.5039892196655273	72262792.86072259
1.5081522464752197	76037000.58981664
1.5123097896575928	81643684.99833445
1.5164618492126465	85970660.67485575
1.5206083059310913	88951758.2403997
1.5247491598129272	91886373.70299688
1.5288842916488647	94918074.48837142
1.5330137014389038	98109140.41092888
1.5371372699737549	102518175.20872939
1.541254997253418	108150191.55757771
1.545366883277893	114010272.20880419
1.5494728088378906	119485615.80215594
1.5535727739334106	122189174.16038759
1.5576666593551636	122168676.52329639
1.561754584312439	124784524.05800477
1.5658363103866577	132601381.94516502
1.5699119567871094	141824622.12608516
1.5739814043045044	148149747.7105717
1.5780447721481323	151057523.16029656
1.582101821899414	155200929.91237518
1.5861525535583496	162472597.7906098
1.5901970863342285	168297306.781748
1.5942351818084717	172749979.0121533
1.5982669591903687	175864163.33735427
1.6022924184799194	176497206.27220014
1.606311559677124	176879577.7216009
1.6103241443634033	176233031.55630416
1.6143304109573364	175143432.78934503
1.6183301210403442	174069162.9968715
1.6223233938217163	172275905.97665486
1.6263102293014526	171223272.4241898
1.6302905082702637	172071734.26667118
1.634264349937439	176098710.60515937
1.638231635093689	182545255.44786376
1.6421923637390137	188476627.92906684
1.646146535873413	193773349.37273917
1.6500942707061768	198557794.049034
1.6540353298187256	201178444.36003917
1.6579699516296387	201026710.39112294
1.661897897720337	198083523.88317946
1.6658192873001099	190137415.96799338
1.6697341203689575	180909976.34402233
1.6736423969268799	180349019.0134626
1.677544116973877	189197694.6786184
1.6814392805099487	197768178.29857677
1.6853278875350952	198465774.84934485
1.6892099380493164	192586081.45064625
1.6930854320526123	183228590.16345653
1.696954369544983	174340756.11775616
1.7008168697357178	170403042.48844782
1.7046726942062378	168743516.7999658
1.708522081375122	164224189.65759456
1.712364912033081	155483468.27065474
1.7162011861801147	145120335.34519058
1.7200311422348022	137813363.8166587
1.723854422569275	134015198.10084996
1.7276713848114014	129173819.21936797
1.731481909751892	122420257.84011656
1.7352858781814575	116906352.52711216
1.7390835285186768	113166022.92065008
1.7428747415542603	109703398.46498272
1.7466596364974976	105956075.93353842
1.7504380941390991	103079535.31753473
1.7542102336883545	100258938.91302527
1.7579760551452637	96111415.26616904
1.7617355585098267	92116809.83656107
1.7654887437820435	87604275.30390386
1.7692357301712036	80288709.35810669
1.7729763984680176	74714804.15218738
1.776710867881775	73037050.96505558
1.7804391384124756	71348973.99065597
1.7841613292694092	67541768.62743692
1.7878772020339966	62712480.57363274
1.7915871143341064	59967184.157158546
1.7952908277511597	59032852.80108529
1.7989884614944458	57416964.074442685
1.8026801347732544	54673683.0549223
1.806365728378296	52242906.99736364
1.8100452423095703	53026428.74611354
1.8137187957763672	55560997.90393775
1.817386507987976	53815982.60057499
1.8210482597351074	51364839.031465076
1.8247040510177612	51628733.07572805
1.828354001045227	51120099.18443113
1.8319982290267944	49514777.57062507
1.8356364965438843	47729570.257334486
1.8392690420150757	46431647.787613034
1.8428958654403687	44209393.15628734
1.8465168476104736	42150363.36814114
1.8501322269439697	42206982.20719128
1.8537418842315674	41321971.26302066
1.8573459386825562	38419230.28984198
1.860944390296936	35863906.05465427
1.864537239074707	36264145.11061532
1.8681244850158691	39335003.91168182
1.871706247329712	41583691.51809398
1.8752825260162354	41769205.301749066
1.8788533210754395	43240652.27744652
1.8824186325073242	46888290.12004583
1.8859784603118896	49029076.3698193
1.8895330429077148	48402435.97672398
1.8930821418762207	47713861.18078576
1.8966259956359863	48650528.17020406
1.9001644849777222	49643313.1736975
1.9036977291107178	50260627.27170833
1.9072256088256836	50802556.45551116
1.9107483625411987	52086909.10570263
1.9142658710479736	54093657.63200638
1.9177782535552979	53222913.47080279
1.9212853908538818	50341970.45233997
1.9247875213623047	49856060.53543649
1.9282845258712769	50315046.25104266
1.9317764043807983	49035573.25334801
1.9352631568908691	46780956.02261943
1.9387450218200684	43915416.426728845
1.942221760749817	43748786.22339282
1.9456936120986938	47005718.172000356
1.9491604566574097	49029031.19544878
1.952622413635254	47869960.27855389
1.956079363822937	46203196.34178172
1.959531545639038	47059683.765619636
1.962978720664978	47791952.69274118
1.966421127319336	47631474.861856066
1.9698586463928223	48421482.722017355
1.9732913970947266	48857932.9827367
1.9767193794250488	49401929.860095546
1.9801424741744995	49827401.566408575
1.9835609197616577	49505043.986618176
1.9869745969772339	49070007.493452996
1.990383505821228	48846075.8869591
1.9937876462936401	50674251.91626743
1.9971871376037598	52379810.28855722
2.000581979751587	52429679.68502911
2.003972291946411	52721086.58836588
2.007357597351074	53481586.253854305
2.0107386112213135	54898173.350076646
2.0141148567199707	56044090.156131305
2.017486572265625	56323430.98168241
2.0208535194396973	58155861.03996139
2.0242159366607666	60559461.94712335
2.027573823928833	61257586.9025646
2.0309269428253174	61747051.494996585
2.034275770187378	62778375.404930115
2.0376198291778564	64455790.42975463
2.040959596633911	66486603.35678481
2.044294595718384	68349541.86501807
2.0476250648498535	69733182.40560108
2.0509510040283203	70095105.34326766
2.054272413253784	70584320.83495545
2.057589530944824	72617435.60412422
2.0609018802642822	74153440.2663465
2.0642096996307373	74476303.99539629
2.0675129890441895	76385115.88202298
2.0708119869232178	78673773.69822879
2.074106216430664	79434303.73107333
2.0773961544036865	80056072.4142153
2.080681324005127	80861972.67254357
2.0839622020721436	81351574.79206082
2.087238311767578	82184923.36855055
2.090510129928589	83708775.32884732
2.0937774181365967	84990364.78595245
2.0970399379730225	85708328.20896417
2.1002981662750244	86351499.38509834
2.1035518646240234	86933877.67318366
2.1068007946014404	87320485.04785223
2.1100454330444336	87969644.71221115
2.1132853031158447	88716663.60157923
2.116520881652832	89157579.80607627
2.1197516918182373	89664841.5894193
2.1229779720306396	90036046.56389804
2.12619948387146	89657064.48368207
2.1294167041778564	89049616.86858371
2.132629156112671	89241175.63272285
2.1358368396759033	89404252.78369418
2.139039993286133	88729011.30483775
2.1422386169433594	88275885.10218439
2.145432472229004	87981648.11942233
2.1486217975616455	87061912.31540841
2.151806354522705	85838737.88160399
2.1549863815307617	84771334.9998889
2.1581614017486572	83793251.43211055
2.16133189201355	82684731.07082462
2.1644976139068604	81492705.21974488
2.167658567428589	80179071.4127581
2.1708147525787354	78604520.7597646
2.173966407775879	76928615.35658565
2.1771130561828613	75377104.91056654
2.1802549362182617	73735793.99976061
2.183391809463501	71438518.93425065
2.1865241527557373	68547543.63666153
2.1896514892578125	65322960.84778181
2.1927738189697266	61120161.09031926
2.1958916187286377	55438135.633160524
2.1990041732788086	48845985.543590836
2.2021119594573975	42760251.44852612
2.2052149772644043	38988167.732730545
2.208312749862671	38592762.78568456
2.2114057540893555	40654108.516047694
2.214493751525879	43236485.393864505
2.217576742172241	45068996.76018197
2.2206547260284424	46048851.51281616
2.2237277030944824	46366080.11085735
2.2267956733703613	45585633.13038107
2.2298583984375	43906672.98389319
2.2329163551330566	42213412.99052446
2.235969066619873	40664496.698958226
2.2390167713165283	39060487.83637328
2.2420592308044434	37520234.09634726
2.2450966835021973	36189136.955500856
2.248128890991211	35026589.79346574
2.2511560916900635	33825690.450419724
2.254178285598755	32664376.20422395
2.257194995880127	31985849.365388814
2.260206699371338	31705290.967713274
2.2632133960723877	31277143.36478907
2.266214609146118	30466695.522699837
2.2692108154296875	29484119.453371312
2.2722020149230957	28787690.740487985
2.2751877307891846	28347955.14433496
2.278168201446533	27658527.768122114
2.2811436653137207	26585174.95371597
2.284113883972168	25306339.793254577
2.287078857421875	23957699.53399445
2.290038824081421	22521386.048473306
2.2929933071136475	20915216.97957928
2.295942783355713	19747356.47579329
2.298887014389038	20088155.28558934
2.301826238632202	21960405.853032842
2.304760217666626	24575660.48830713
2.3076889514923096	27161638.447993826
2.310612440109253	28771399.487601075
2.3135311603546143	28131892.67195152
2.3164443969726562	25180758.373746112
2.319352865219116	21751593.43697029
2.322256088256836	19153446.92327314
2.3251543045043945	17522086.25516705
2.328047275543213	16518769.022641549
2.330935478210449	15650665.966851322
2.3338186740875244	14962237.692269405
2.3366971015930176	14781519.983040813
2.3395702838897705	15103678.477560405
2.3424389362335205	15720055.984870732
2.3453025817871094	16369060.466087088
2.348161458969116	16898933.128253505
2.351015567779541	17523306.209550474
2.353865146636963	18402361.10281871
2.3567099571228027	19288224.466490157
2.3595502376556396	20048153.907657515
2.3623859882354736	21009819.060955215
2.3652172088623047	22016890.934991095
2.368043899536133	21738757.58148328
2.370866537094116	19651896.68567028
2.3736846446990967	17205881.35508278
2.3764986991882324	15600783.763767153
2.3793084621429443	15006676.543257914
2.3821144104003906	15367924.71225084
2.384916305541992	16508657.678700117
2.387714147567749	18171390.25835052
2.3905084133148193	19916633.582516316
2.393299102783203	21416255.78503333
2.3960859775543213	22618227.472420614
2.398869514465332	23504032.662259627
2.4016497135162354	24027188.588486955
2.4044265747070312	24200157.071499582
2.407200336456299	24273582.62405602
2.409970998764038	24452991.188132815
2.4127390384674072	24523242.882013083
2.415503978729248	24231458.9012806
2.418266534805298	23837856.90795817
2.4210267066955566	23761531.866536375
2.4237842559814453	23966824.926757075
2.426539897918701	24195349.6372954
2.429293394088745	24197889.040116027
2.4320452213287354	23664750.791727595
2.4347951412200928	22832019.219221406
2.4375438690185547	22606734.431973033
2.440291166305542	23233192.83196391
2.443037271499634	23969637.562798016
2.445782423019409	24307494.269097548
2.4485268592834473	24228644.423115686
2.451270818710327	23823628.483219147
2.454014539718628	23536003.7402092
2.4567582607269287	23850709.744106147
2.4595019817352295	24537779.046434987
2.4622461795806885	25060305.58378093
2.4649908542633057	25232510.16681494
2.4677364826202393	25002317.42169362
2.4704833030700684	24487270.33980444
2.473231554031372	24152044.738091134
2.4759814739227295	24259589.404396277
2.4787333011627197	24660083.49117297
2.481487512588501	25146900.2061366
