#wavelength	surface flux
0.6450077295303345	3634.8298621430868
0.6472567915916443	5814.366550267432
0.6494921445846558	7818.263697570713
0.6517150402069092	9332.908620113785
0.6539263725280762	11041.730866217731
0.6561272740364075	13031.675435156087
0.6583186388015747	15278.075672027493
0.6605015397071838	17761.884693163596
0.6626768708229065	20669.78429977052
0.6648455858230591	24108.693210301837
0.6670085787773132	27465.18407669197
0.6691668033599854	29030.802076872704
0.6713210344314575	31153.640879602037
0.6734722256660461	38328.626379007364
0.6756211519241333	47041.58481450154
0.6777685880661011	53638.72132365639
0.6799154281616211	59452.30151947206
0.6820623278617859	65181.311853056184
0.6842101216316223	70882.66396475093
0.6863595843315125	75876.277947399
0.688511312007904	78948.62612442563
0.6906660795211792	79731.70052209374
0.6928245425224304	80025.13826718312
0.6949873566627502	81832.81096602483
0.6971551775932312	85499.0697863788
0.6993286609649658	90850.89558217756
0.7015084028244019	97485.87798133865
0.7036949396133423	104268.05341647606
0.7058889269828796	110199.20409703007
0.7080909013748169	115465.98041713849
0.710301399230957	120949.70500595376
0.712520956993103	126245.32037532888
0.7147500514984131	129224.37527260502
0.7169892191886902	129541.19179502912
0.7192389369010925	129852.68536432298
0.7214996814727783	130504.94275045484
0.723771870136261	129513.03905235439
0.7260559797286987	126429.50905774778
0.7283523678779602	121780.37475359139
0.7306615710258484	116180.40053555409
0.7329838871955872	110440.249859453
0.7353196740150452	104842.52172533503
0.7376693487167358	98886.42450849489
0.7400332689285278	91966.21214638266
0.7424117922782898	84764.79390799908
0.7448052167892456	78185.55678112929
0.7472138404846191	71532.91041665811
0.7496379613876343	63663.40188305093
0.7520779371261597	55177.36406585038
0.7545340061187744	47058.4640229067
0.7570064663887024	39897.33405354985
0.7594954967498779	33526.41248926037
0.7620013952255249	25335.361571178164
0.7645244002342224	16565.845505705536
0.7670646905899048	11963.849631657293
0.7696225643157959	12313.558307850952
0.7721980810165405	17296.81856382993
0.7747915983200073	27775.58937681788
0.7774031162261963	39908.18557538488
0.7800329327583313	52551.545529188894
0.7826811671257019	74786.87536524594
0.7853479981422424	104947.98655377458
0.7880334854125977	135456.72162711146
0.7907378077507019	162761.87191827645
0.7934610247612	179613.82219565217
0.7962033748626709	214965.4058025336
0.7989648580551147	287517.9105841671
0.801745593547821	361694.85412446945
0.8045456409454346	425304.01933636656
0.8073651194572449	489033.4761554421
0.8102040886878967	553682.5266618022
0.8130625486373901	622092.1374382437
0.8159406185150146	704588.6830421796
0.8188382983207703	801020.9282982617
0.8217556476593018	898797.2360717357
0.8246926665306091	1007739.2297050034
0.8276493549346924	1132416.7288861182
0.8306257724761963	1254621.0885304846
0.8336219191551208	1374347.8635805517
0.8366377949714661	1506959.9343716735
0.8396733403205872	1660983.6362803762
0.8427285552024841	1828866.6973127718
0.8458034992218018	1999675.5892498682
0.8488980531692505	2141053.1152981296
0.8520121574401855	2291202.4015438403
0.8551458716392517	2598646.2976879403
0.8582990765571594	2966879.8039392554
0.8614717125892639	3247170.8413672787
0.8646637797355652	3501615.3980339174
0.8678751587867737	3768082.7204952035
0.8711057901382446	4054618.279525961
0.8743556141853333	4366470.409213995
0.87762451171875	4753014.148162865
0.8809124231338501	5280630.499926813
0.8842192888259888	5749847.642140086
0.8875449895858765	5864160.023367883
0.8908893465995789	5674007.429585447
0.894252359867096	5614462.16589322
0.8976338505744934	6068636.711521054
0.9010337591171265	6945693.362945359
0.9044519662857056	7983293.336639842
0.9078882932662964	8840040.775651077
0.9113426208496094	9449526.265986927
0.914814829826355	10054113.134288337
0.9183048605918884	10834450.191653172
0.9218124747276306	11609027.026789282
0.925337553024292	11143351.578727927
0.9288799166679382	9318297.700376514
0.9324395060539246	8434410.310660949
0.9360161423683167	9457818.54935338
0.9396095871925354	11330928.883190641
0.943219780921936	12735653.158732353
0.9468464851379395	13222268.173000054
0.9504896402359009	13610733.498697903
0.9541489481925964	14186974.451953445
0.9578243494033813	14704273.793981519
0.9615156054496765	15562369.538579093
0.9652225375175476	17183754.03395425
0.9689450263977051	19016480.584316403
0.9726828336715698	20486331.80284261
0.9764357805252075	22004781.81950905
0.9802037477493286	23806567.861175504
0.983986496925354	25736761.83112407
0.9877838492393494	27223323.906241927
0.9915955662727356	27698629.309599593
0.9954215884208679	28778647.02675372
0.9992615580558777	31138213.300285894
1.0031154155731201	33467055.72796212
1.0069829225540161	35795537.082538664
1.0108637809753418	38452766.69122159
1.0147579908370972	40954349.579482816
1.018665075302124	43573626.35420175
1.022585153579712	46374268.12663992
1.0265177488327026	48475750.14608721
1.0304628610610962	50945244.27505272
1.0344202518463135	54721615.88179342
1.0383895635604858	58568584.45186323
1.0423706769943237	61665084.00511592
1.0463634729385376	64100759.94877758
1.0503677129745483	65954215.75703346
1.0543830394744873	67707310.09334892
1.058409333229065	69930229.65783006
1.0624464750289917	72645760.41702735
1.0664942264556885	75304891.41501357
1.0705522298812866	77755476.83087522
1.0746204853057861	80369127.1278545
1.0786986351013184	82696319.41313897
1.0827864408493042	83476204.46152584
1.086883783340454	80068356.5453654
1.0909905433654785	70301425.50089213
1.0951062440872192	57473865.86832438
1.0992310047149658	47483824.53903033
1.10336434841156	40678122.8676402
1.1075061559677124	34414527.5033358
1.1116561889648438	28113008.40864327
1.115814208984375	23148062.08112809
1.1199802160263062	21381879.065347333
1.124153733253479	22781145.186456345
1.1283347606658936	23752650.523017775
1.1325229406356812	20940800.153895576
1.1367181539535522	18832222.42015507
1.1409201622009277	20111517.202008408
1.145128846168518	20750756.784170818
1.1493438482284546	19408287.298853546
1.1535650491714478	16419352.055261636
1.1577922105789185	14454199.118500542
1.1620250940322876	15611686.355090976
1.1662636995315552	17130341.856647313
1.170507550239563	15858709.555310566
1.174756646156311	13947350.861972928
1.1790107488632202	17332302.933934674
1.1832695007324219	25284635.657505285
1.1875330209732056	32578126.569430366
1.191800832748413	38712635.17965189
1.1960728168487549	44413261.68054167
1.2003488540649414	50454822.51477533
1.2046287059783936	58457638.79113721
1.2089121341705322	67160098.39468405
1.2131990194320679	76058096.1280657
1.2174891233444214	85105480.97118668
1.2217823266983032	93216445.08864045
1.2260783910751343	101978979.72912514
1.230377197265625	109903682.34146409
1.2346785068511963	114417429.19972329
1.238982081413269	114426002.64273705
1.2432878017425537	112147040.8783471
1.2475954294204712	112572511.1739198
1.2519049644470215	113679483.63729228
1.256216049194336	122655625.3665921
1.2605286836624146	137209043.22150445
1.2648425102233887	143733844.3780371
1.2691574096679688	144553834.32661664
1.2734732627868652	142256592.82696313
1.2777899503707886	137626075.31068563
1.2821072340011597	131377384.97817974
1.2864248752593994	122922308.32262027
1.2907428741455078	114857385.6875262
1.2950609922409058	109418922.46006733
1.2993791103363037	104917761.21755476
1.303696870803833	99751516.19274268
1.3080145120620728	93766478.27227445
1.3123314380645752	86043194.55902211
1.3166478872299194	76878993.05141123
1.3209635019302368	66943543.55441858
1.3252781629562378	53830377.58223474
1.3295916318893433	36137953.46274691
1.3339040279388428	19185848.907150783
1.3382149934768677	9643156.366434075
1.3425244092941284	6124642.356913697
1.3468321561813354	4280820.414136963
1.3511382341384888	2975081.7086681123
1.3554422855377197	2151915.3179625226
1.3597444295883179	1780431.9623460616
1.3640443086624146	1936601.226948654
1.3683418035507202	2184422.434817613
1.3726370334625244	2224473.977599319
1.3769296407699585	2343832.83362412
1.381219506263733	2390035.626947068
1.3855066299438477	2311045.695449237
1.3897908926010132	2284225.65887297
1.3940720558166504	2166649.640198312
1.3983501195907593	2063045.1477196778
1.4026249647140503	2153356.8419298395
1.4068963527679443	2236313.8172517233
1.4111642837524414	2345375.561803289
1.4154287576675415	2504108.88008364
1.419689416885376	2493090.173527994
1.4239463806152344	2571281.359335276
1.4281994104385376	3031448.7550506224
1.4324485063552856	3594456.883833648
1.436693549156189	4001475.3066986324
1.440934419631958	4309151.123650959
1.4451709985733032	4885274.426881228
1.449403166770935	6149776.798933603
1.453631043434143	7677522.587181965
1.4578542709350586	8719910.796104936
1.4620729684829712	9089809.134997621
1.4662868976593018	9077895.22324333
1.4704961776733398	9102388.275204252
1.4747005701065063	9859024.751350598
1.4788999557495117	11056287.939527545
1.4830944538116455	11816614.363863181
1.4872838258743286	12556795.217405377
1.491468071937561	13662373.589481568
1.4956470727920532	15093932.483534642
1.4998208284378052	16444585.075922947
1.5039892196655273	17592533.28622172
1.5081522464752197	19203674.221505
1.5123097896575928	21067173.035478916
1.5164618492126465	22674526.312548876
1.5206083059310913	24625315.71793813
1.5247491598129272	26943529.319837615
1.5288842916488647	29038937.887390807
1.5330137014389038	31318650.473716084
1.5371372699737549	34125244.31120884
1.541254997253418	37035857.31448399
1.545366883277893	39890649.249396846
1.5494728088378906	42666734.66586553
1.5535727739334106	44677449.87976614
1.5576666593551636	45964990.25085455
1.561754584312439	47521568.10183811
1.5658363103866577	49955187.13130544
1.5699119567871094	52651202.39989128
1.5739814043045044	54326933.143934555
1.5780447721481323	54797671.16706461
1.582101821899414	54879463.29655603
1.5861525535583496	54561010.70697676
1.5901970863342285	52659020.12373658
1.5942351818084717	49149357.07092856
1.5982669591903687	44084066.253499806
1.6022924184799194	37184996.76779516
1.606311559677124	29933659.11502435
1.6103241443634033	23823364.46780416
1.6143304109573364	19010558.645563845
1.6183301210403442	15269891.88672753
1.6223233938217163	12322503.723435555
1.6263102293014526	9994235.688709967
1.6302905082702637	8980207.167723387
1.634264349937439	9574652.957512084
1.638231635093689	10932540.40155602
1.6421923637390137	12196331.900546031
1.646146535873413	12979074.296425333
1.6500942707061768	13634482.491959753
1.6540353298187256	13800739.1848676
1.6579699516296387	13206602.565280674
1.661897897720337	11970876.080378419
1.6658192873001099	8927122.714869317
1.6697341203689575	5740410.7329941
1.6736423969268799	5326814.15563087
1.677544116973877	7088387.430021359
1.6814392805099487	8789010.835520545
1.6853278875350952	9109783.858773747
1.6892099380493164	8351067.310308409
1.6930854320526123	7247045.201427712
1.696954369544983	6398936.387745537
1.7008168697357178	6300066.847658271
1.7046726942062378	7270365.632717785
1.708522081375122	8523736.651556779
1.712364912033081	8808778.290252998
1.7162011861801147	8882512.58376425
1.7200311422348022	9696770.960332518
1.723854422569275	10104340.549724301
1.7276713848114014	9318286.502637759
1.731481909751892	8257582.854435122
1.7352858781814575	7733419.323796548
1.7390835285186768	7835879.698061398
1.7428747415542603	8420821.876799116
1.7466596364974976	8980369.916669754
1.7504380941390991	9255089.62363134
1.7542102336883545	9215313.975998996
1.7579760551452637	8780374.21785569
1.7617355585098267	8242784.001775809
1.7654887437820435	7718119.9582468
1.7692357301712036	7013285.093258708
1.7729763984680176	6573170.085836177
1.776710867881775	6789004.868808756
1.7804391384124756	7030806.152999897
1.7841613292694092	6618048.77733214
1.7878772020339966	5804384.866905368
1.7915871143341064	5192943.106630517
1.7952908277511597	4971062.321932755
1.7989884614944458	5039219.217184021
1.8026801347732544	5093766.951833767
1.806365728378296	5059020.240664015
1.8100452423095703	5418255.989957095
1.8137187957763672	5837401.040347829
1.817386507987976	5484427.367250614
1.8210482597351074	5356783.844406752
1.8247040510177612	5623783.734902728
1.828354001045227	5292510.974489331
1.8319982290267944	4823554.439141293
1.8356364965438843	4475371.169016699
1.8392690420150757	4323037.359265678
1.8428958654403687	4371835.689293382
1.8465168476104736	4473133.148180161
1.8501322269439697	4654655.359348705
1.8537418842315674	4555680.342609323
1.8573459386825562	4114651.563501649
1.860944390296936	3613126.9846737604
1.864537239074707	3390726.2431496466
1.8681244850158691	3552899.830611257
1.871706247329712	3941854.7930121603
1.8752825260162354	4629511.65324781
1.8788533210754395	5775940.016506663
1.8824186325073242	6809099.49493787
1.8859784603118896	7102274.29787765
1.8895330429077148	7193721.160783804
1.8930821418762207	7751929.861570806
1.8966259956359863	8086238.606675696
1.9001644849777222	7633797.699057687
1.9036977291107178	7337923.363001572
1.9072256088256836	7425784.667213352
1.9107483625411987	7671711.079622766
1.9142658710479736	8189549.775568229
1.9177782535552979	8187027.689905843
1.9212853908538818	7294555.959881741
1.9247875213623047	6651004.962272523
1.9282845258712769	6403356.8865801105
1.9317764043807983	5950014.31185089
1.9352631568908691	5430915.71629811
1.9387450218200684	4884756.263058658
1.942221760749817	5024448.134548653
1.9456936120986938	5884675.2261715
1.9491604566574097	6578462.742493807
1.952622413635254	6608264.193372026
1.956079363822937	6339970.429654848
1.959531545639038	6618187.789719352
1.962978720664978	7022315.77818032
1.966421127319336	7354409.132304906
1.9698586463928223	7788183.891635823
1.9732913970947266	8083993.36203762
1.9767193794250488	8542537.991959669
1.9801424741744995	9015863.552710338
1.9835609197616577	9417648.029527923
1.9869745969772339	9704011.309609616
1.990383505821228	9775877.818027975
1.9937876462936401	10476577.450798774
1.9971871376037598	11354785.375214718
2.000581979751587	11770924.70304549
2.003972291946411	12051170.137417674
2.007357597351074	12326544.111843137
2.0107386112213135	12907397.367245514
2.0141148567199707	13416025.397498585
2.017486572265625	13552215.552524658
2.0208535194396973	14361105.285543904
2.0242159366607666	15410743.547765683
2.027573823928833	15641169.26818181
2.0309269428253174	15839356.611009836
2.034275770187378	16468416.676575495
2.0376198291778564	17222000.741248857
2.040959596633911	17942883.126038104
2.044294595718384	18684921.83685092
2.0476250648498535	19259679.681437448
2.0509510040283203	19437397.41203287
2.054272413253784	19731228.673671767
2.057589530944824	20527160.27391447
2.0609018802642822	21111232.795382816
2.0642096996307373	21181341.917765085
2.0675129890441895	21469388.469601437
2.0708119869232178	21901445.503737412
2.074106216430664	21934820.77388227
2.0773961544036865	21822846.80698938
2.080681324005127	21869196.37455232
2.0839622020721436	21914032.735722248
2.087238311767578	21973006.224475447
2.090510129928589	22014570.272362765
2.0937774181365967	21730560.6879926
2.0970399379730225	21266425.63251012
2.1002981662750244	20887935.734297752
2.1035518646240234	20552033.234316327
2.1068007946014404	20157990.074393574
2.1100454330444336	19672589.107739415
2.1132853031158447	19136035.380151074
2.116520881652832	18659658.297407836
2.1197516918182373	18292873.447071437
2.1229779720306396	17856707.392315842
2.12619948387146	17195540.955045167
2.1294167041778564	16459423.487190856
2.132629156112671	15869007.8916372
2.1358368396759033	15300018.482159058
2.139039993286133	14599897.14543007
2.1422386169433594	13926258.534902796
2.145432472229004	13328237.655926017
2.1486217975616455	12756420.92939399
2.151806354522705	12216127.940690443
2.1549863815307617	11602671.08724497
2.1581614017486572	10845143.023935968
2.16133189201355	10032774.85478904
2.1644976139068604	9304689.420753477
2.167658567428589	8785346.941937514
2.1708147525787354	8457380.539315738
2.173966407775879	8128496.056490977
2.1771130561828613	7717658.336286771
2.1802549362182617	7242665.068539586
2.183391809463501	6604720.406620638
2.1865241527557373	5780012.450637721
2.1896514892578125	4878468.522383907
2.1927738189697266	3965165.4256807417
2.1958916187286377	3015321.9050068525
2.1990041732788086	2088275.0195414005
2.2021119594573975	1472266.0225267773
2.2052149772644043	1325388.667975308
2.208312749862671	1493547.9970495645
2.2114057540893555	1773073.586071529
2.214493751525879	2056057.4051884073
2.217576742172241	2304380.3805001494
2.2206547260284424	2426018.6731680036
2.2237277030944824	2345056.922756921
2.2267956733703613	2127409.2059939923
2.2298583984375	1897659.9513363943
2.2329163551330566	1727119.7266631606
2.235969066619873	1588825.9725381043
2.2390167713165283	1444792.697983233
2.2420592308044434	1318749.2114653895
2.2450966835021973	1224343.4167213952
2.248128890991211	1146040.1146442068
2.2511560916900635	1071796.4516703947
2.254178285598755	1008945.885610917
2.257194995880127	982031.3907477702
2.260206699371338	1002132.2915148172
2.2632133960723877	1048548.6355989454
2.266214609146118	1067608.0107054485
2.2692108154296875	1032007.6800024125
2.2722020149230957	978508.8885751186
2.2751877307891846	937814.1050020491
2.278168201446533	907109.9349372613
2.2811436653137207	870527.9149413034
2.284113883972168	813631.7906212268
2.287078857421875	737193.1814261217
2.290038824081421	661321.5659359508
2.2929933071136475	621542.8572262174
2.295942783355713	637582.6207641207
2.298887014389038	711658.8464728262
2.301826238632202	858643.9026091716
2.304760217666626	1099168.4195701696
2.3076889514923096	1432398.8397197572
2.310612440109253	1734684.6293111425
2.3135311603546143	1682432.8642677176
2.3164443969726562	1227270.4480138677
2.319352865219116	806960.8438546978
2.322256088256836	652808.7395000787
2.3251543045043945	637106.5167700853
2.328047275543213	642783.7337668727
2.330935478210449	619911.0944414753
2.3338186740875244	581727.2292509115
2.3366971015930176	568931.3509713735
2.3395702838897705	580668.2701522296
2.3424389362335205	598343.3939371987
2.3453025817871094	618519.5555993457
2.348161458969116	646077.9427413568
2.351015567779541	691451.4811644813
2.353865146636963	759086.806579096
2.3567099571228027	835296.7219251922
2.3595502376556396	913637.4109125366
2.3623859882354736	1011433.0258302616
2.3652172088623047	1099050.6040152607
2.368043899536133	1042890.2135380469
2.370866537094116	810186.362911596
2.3736846446990967	599904.074265168
2.3764986991882324	547429.2591793309
2.3793084621429443	600547.1845883474
2.3821144104003906	700595.3849657492
2.384916305541992	829807.5372415126
2.387714147567749	972922.9580542255
2.3905084133148193	1103140.7973803892
2.393299102783203	1205586.4555448235
2.3960859775543213	1295868.2696030033
2.398869514465332	1385331.7182137226
2.4016497135162354	1461347.1214031135
2.4044265747070312	1517615.379225357
2.407200336456299	1584089.3313945057
2.409970998764038	1679095.748892328
2.4127390384674072	1736423.8907359424
2.415503978729248	1686162.6591704607
2.418266534805298	1594920.066491218
2.4210267066955566	1572400.8800314579
2.4237842559814453	1619017.2052429735
2.426539897918701	1685430.5207766471
2.429293394088745	1733523.6077805797
2.4320452213287354	1722220.594666768
2.4347951412200928	1682145.6384294357
2.4375438690185547	1731222.061678688
2.440291166305542	1893447.0536033171
2.443037271499634	2047057.4445637104
2.445782423019409	2117935.6012561917
2.4485268592834473	2142633.834858505
2.451270818710327	2163639.344711309
2.454014539718628	2212293.1749195773
2.4567582607269287	2315693.0768590337
2.4595019817352295	2444133.57347924
2.4622461795806885	2540332.564745586
2.4649908542633057	2590057.6028229906
2.4677364826202393	2600236.245692422
2.4704833030700684	2586550.9644643213
2.473231554031372	2591490.5918949195
2.4759814739227295	2645482.220978117
2.4787333011627197	2763745.0062629622
2.481487512588501	2942734.59946086
