#wavelength	surface flux
0.6450077295303345	55571.43871102801
0.6472567915916443	88237.02018313098
0.6494921445846558	116664.50355204876
0.6517150402069092	136294.03820305303
0.6539263725280762	157912.69330041925
0.6561272740364075	182272.219613493
0.6583186388015747	209073.92620335892
0.6605015397071838	238419.63015900188
0.6626768708229065	271177.7886737125
0.6648455858230591	306657.0443762828
0.6670085787773132	334799.1389734318
0.6691668033599854	330071.50042983686
0.6713210344314575	333649.48460667726
0.6734722256660461	417915.25017874246
0.6756211519241333	522842.67217815405
0.6777685880661011	589415.7520131143
0.6799154281616211	642972.8456070028
0.6820623278617859	694005.9935817296
0.6842101216316223	740041.6090100476
0.6863595843315125	773604.0513060029
0.688511312007904	787686.5396611451
0.6906660795211792	786125.878531026
0.6928245425224304	784161.9954633616
0.6949873566627502	793783.1122201273
0.6971551775932312	819091.2108282228
0.6993286609649658	860623.3319342379
0.7015084028244019	912902.4753566418
0.7036949396133423	966186.6833509178
0.7058889269828796	1013671.0109344743
0.7080909013748169	1056635.0858570775
0.710301399230957	1101256.9953332064
0.712520956993103	1145733.5590438482
0.7147500514984131	1178881.292646073
0.7169892191886902	1195696.9855928144
0.7192389369010925	1201187.2411209573
0.7214996814727783	1197226.821039441
0.723771870136261	1183553.4217502945
0.7260559797286987	1163257.5760766224
0.7283523678779602	1138367.590604703
0.7306615710258484	1104546.796988513
0.7329838871955872	1062203.9916558804
0.7353196740150452	1023849.8487606666
0.7376693487167358	991879.0469026056
0.7400332689285278	954905.3038336482
0.7424117922782898	919928.2618562842
0.7448052167892456	896485.8612402926
0.7472138404846191	866945.5213172109
0.7496379613876343	811307.5669935899
0.7520779371261597	737218.7138874002
0.7545340061187744	650536.8393119512
0.7570064663887024	535574.9739818539
0.7594954967498779	385059.69122615486
0.7620013952255249	218394.9535030838
0.7645244002342224	87722.30025461373
0.7670646905899048	28930.38099503495
0.7696225643157959	29461.384398208516
0.7721980810165405	91987.05628165403
0.7747915983200073	236468.03873814477
0.7774031162261963	396164.6409770699
0.7800329327583313	525177.9673920306
0.7826811671257019	733480.4968643254
0.7853479981422424	1005174.7631321567
0.7880334854125977	1237940.9569818913
0.7907378077507019	1410865.1429152898
0.7934610247612	1482154.9930744849
0.7962033748626709	1689576.2693367498
0.7989648580551147	2179116.8305862625
0.801745593547821	2663911.456013002
0.8045456409454346	3055369.531354985
0.8073651194572449	3447191.916835943
0.8102040886878967	3862211.5523713888
0.8130625486373901	4308122.692069208
0.8159406185150146	4786034.449800849
0.8188382983207703	5299545.796733435
0.8217556476593018	5836868.2108158395
0.8246926665306091	6417315.302820161
0.8276493549346924	7053138.168873225
0.8306257724761963	7705560.718618482
0.8336219191551208	8372799.323033015
0.8366377949714661	9094556.558542876
0.8396733403205872	9885862.71187807
0.8427285552024841	10731670.422522016
0.8458034992218018	11587799.02908268
0.8488980531692505	12146556.324262774
0.8520121574401855	12546323.197320258
0.8551458716392517	13852026.223754946
0.8582990765571594	15673803.156111503
0.8614717125892639	17092288.38256527
0.8646637797355652	18372279.830016922
0.8678751587867737	19628191.942437485
0.8711057901382446	20887941.55042921
0.8743556141853333	22320466.19019659
0.87762451171875	24099977.36196229
0.8809124231338501	26334942.39718071
0.8842192888259888	28648985.69858624
0.8875449895858765	30416461.042306982
0.8908893465995789	31042116.830573633
0.894252359867096	31293788.97707496
0.8976338505744934	33951683.16887197
0.9010337591171265	38171663.36517871
0.9044519662857056	41447510.0211821
0.9078882932662964	44188403.40954469
0.9113426208496094	47057670.06720098
0.914814829826355	50023268.220420614
0.9183048605918884	53169620.64063648
0.9218124747276306	57183387.09447079
0.925337553024292	60197917.4282278
0.9288799166679382	59950371.88417439
0.9324395060539246	61332439.37755337
0.9360161423683167	67840119.92348239
0.9396095871925354	75813245.68778631
0.943219780921936	81518045.32235612
0.9468464851379395	84775605.71993732
0.9504896402359009	88407449.69451769
0.9541489481925964	92623087.48718277
0.9578243494033813	96131887.05715665
0.9615156054496765	99968921.10434075
0.9652225375175476	105460718.0776823
0.9689450263977051	111610496.28807153
0.9726828336715698	117085331.21500705
0.9764357805252075	123464014.29308616
0.9802037477493286	132713012.4539867
0.983986496925354	142136843.67033294
0.9877838492393494	137474990.71190935
0.9915955662727356	115058766.99980004
0.9954215884208679	102366764.99512397
0.9992615580558777	107562831.21057728
1.0031154155731201	114805315.9682008
1.0069829225540161	121065834.47382332
1.0108637809753418	127169386.84904929
1.0147579908370972	131644435.42989536
1.018665075302124	136175473.21056142
1.022585153579712	141412164.01531768
1.0265177488327026	142995680.66590267
1.0304628610610962	146047934.10740378
1.0344202518463135	155937812.6707971
1.0383895635604858	166547450.99202403
1.0423706769943237	173925003.78800833
1.0463634729385376	178829377.78264898
1.0503677129745483	181383673.4396906
1.0543830394744873	183721760.2870625
1.058409333229065	188332472.25436345
1.0624464750289917	194673060.1185542
1.0664942264556885	200833935.82402116
1.0705522298812866	207812678.6473322
1.0746204853057861	217317120.19045827
1.0786986351013184	226830843.5326275
1.0827864408493042	234352770.23053762
1.086883783340454	238579787.23728037
1.0909905433654785	237028278.47108668
1.0951062440872192	228317654.55909944
1.0992310047149658	216579492.09734794
1.10336434841156	205286090.3906659
1.1075061559677124	192467435.99648595
1.1116561889648438	179491380.75708008
1.115814208984375	171732958.0790432
1.1199802160263062	173354097.6818752
1.124153733253479	184915036.7439503
1.1283347606658936	191268595.3380793
1.1325229406356812	176693525.25704545
1.1367181539535522	164368808.21321106
1.1409201622009277	171838018.56110093
1.145128846168518	186504749.87809741
1.1493438482284546	198808324.93095762
1.1535650491714478	198683681.31824717
1.1577922105789185	193972188.785798
1.1620250940322876	190242495.38239947
1.1662636995315552	172806107.57399505
1.170507550239563	150624079.31205186
1.174756646156311	139328878.5383183
1.1790107488632202	153595599.4521768
1.1832695007324219	202541669.72796524
1.1875330209732056	251660653.78573394
1.191800832748413	270085148.47042066
1.1960728168487549	261613690.63675863
1.2003488540649414	253965118.96255895
1.2046287059783936	267080669.1413921
1.2089121341705322	284536279.40420455
1.2131990194320679	301120436.29609805
1.2174891233444214	317708416.0951544
1.2217823266983032	326380825.77375275
1.2260783910751343	338459718.31323594
1.230377197265625	347907936.6950568
1.2346785068511963	341941148.71968055
1.238982081413269	323216299.6339226
1.2432878017425537	304023198.5671643
1.2475954294204712	299314768.27312726
1.2519049644470215	300029669.22255814
1.256216049194336	318412081.1277192
1.2605286836624146	350413760.478761
1.2648425102233887	369175315.4242599
1.2691574096679688	380322022.28583336
1.2734732627868652	384118655.9651421
1.2777899503707886	382202643.8733332
1.2821072340011597	378705847.4287426
1.2864248752593994	366114501.3614488
1.2907428741455078	351774139.72159714
1.2950609922409058	347980382.77819145
1.2993791103363037	350873929.98948747
1.303696870803833	353841822.3882554
1.3080145120620728	354184349.57026696
1.3123314380645752	351983141.50760305
1.3166478872299194	343380787.69357383
1.3209635019302368	321652741.1959653
1.3252781629562378	284367418.22456264
1.3295916318893433	222780052.15165943
1.3339040279388428	140597914.46950242
1.3382149934768677	77582022.60825862
1.3425244092941284	51617885.88392133
1.3468321561813354	40395788.88801858
1.3511382341384888	31692118.89863054
1.3554422855377197	26611753.115549877
1.3597444295883179	26046942.47709474
1.3640443086624146	29416485.079328954
1.3683418035507202	32630682.912392322
1.3726370334625244	34973313.50529751
1.3769296407699585	38537656.0149171
1.381219506263733	39493415.868431576
1.3855066299438477	37485004.875749454
1.3897908926010132	35259417.37869792
1.3940720558166504	32537262.501837686
1.3983501195907593	31184258.22971103
1.4026249647140503	32309615.54104863
1.4068963527679443	32229801.756556764
1.4111642837524414	30940615.549242973
1.4154287576675415	30912470.972668793
1.419689416885376	30407086.997639745
1.4239463806152344	30213401.017090045
1.4281994104385376	32779902.18883432
1.4324485063552856	36424614.37292071
1.436693549156189	39259221.21051002
1.440934419631958	41336842.37640698
1.4451709985733032	44520843.80194532
1.449403166770935	51352465.9076259
1.453631043434143	59539064.19305388
1.4578542709350586	64930477.8557443
1.4620729684829712	66866292.11473106
1.4662868976593018	67235573.32017112
1.4704961776733398	68309138.90709397
1.4747005701065063	72513086.53797798
1.4788999557495117	77752963.55990686
1.4830944538116455	80454069.8275156
1.4872838258743286	82891880.80817398
1.491468071937561	86886502.63017415
1.4956470727920532	92272639.25016133
1.4998208284378052	97858700.9393
1.5039892196655273	103158035.20166285
1.5081522464752197	109615754.93998069
1.5123097896575928	116879931.5837415
1.5164618492126465	123705358.67583197
1.5206083059310913	130950756.88566789
1.5247491598129272	137996576.76215634
1.5288842916488647	143920287.2449796
1.5330137014389038	151196562.28510222
1.5371372699737549	160023790.0335991
1.541254997253418	167706289.43388063
1.545366883277893	174768536.74368495
1.5494728088378906	182385066.7599742
1.5535727739334106	187687603.00620824
1.5576666593551636	190550018.26464847
1.561754584312439	194242350.2323685
1.5658363103866577	199933920.04261065
1.5699119567871094	206191953.77426323
1.5739814043045044	210216612.5858456
1.5780447721481323	211418164.77899954
1.582101821899414	212194703.96659043
1.5861525535583496	213326469.30909857
1.5901970863342285	212166922.3832802
1.5942351818084717	208207607.7491246
1.5982669591903687	201687642.6515036
1.6022924184799194	191517829.7458796
1.606311559677124	179082415.06985363
1.6103241443634033	166017273.99308807
1.6143304109573364	153218066.75025472
1.6183301210403442	142016663.30436948
1.6223233938217163	132669164.07016195
1.6263102293014526	124893095.77437429
1.6302905082702637	121754111.51468994
1.634264349937439	124704452.75924501
1.638231635093689	129835773.57373013
1.6421923637390137	134066127.54437937
1.646146535873413	137253203.73916876
1.6500942707061768	140137432.31441715
1.6540353298187256	140913346.74176764
1.6579699516296387	138271664.33817136
1.661897897720337	130833045.89666101
1.6658192873001099	114442248.2226524
1.6697341203689575	98458144.84979749
1.6736423969268799	96653702.26894364
1.677544116973877	105392407.44977096
1.6814392805099487	112967742.00710477
1.6853278875350952	113635188.81632653
1.6892099380493164	109681349.58820249
1.6930854320526123	104548638.08662702
1.696954369544983	100912366.07700807
1.7008168697357178	100696294.91499692
1.7046726942062378	103587675.54954721
1.708522081375122	106400549.0644105
1.712364912033081	105359419.79904045
1.7162011861801147	102175324.0612117
1.7200311422348022	100497275.42140722
1.723854422569275	98797138.52947344
1.7276713848114014	94474015.09812187
1.731481909751892	88904387.58547637
1.7352858781814575	83963840.67742684
1.7390835285186768	80005570.55802532
1.7428747415542603	77558617.49179573
1.7466596364974976	75660845.26863731
1.7504380941390991	73489652.74489744
1.7542102336883545	70669983.55256113
1.7579760551452637	67156121.00995217
1.7617355585098267	64415446.10640796
1.7654887437820435	61161835.95997153
1.7692357301712036	55614404.77496696
1.7729763984680176	51605512.588134006
1.776710867881775	50299792.02659603
1.7804391384124756	48468413.66924971
1.7841613292694092	45082629.13099122
1.7878772020339966	41975414.89591221
1.7915871143341064	40767385.28365994
1.7952908277511597	39647447.603833914
1.7989884614944458	37747065.919445924
1.8026801347732544	35869130.48313093
1.806365728378296	34718885.781517446
1.8100452423095703	36082514.256808795
1.8137187957763672	37766597.248535596
1.817386507987976	35696771.674823314
1.8210482597351074	34816626.76318299
1.8247040510177612	36186112.20433188
1.828354001045227	35079701.639911994
1.8319982290267944	33316419.303188257
1.8356364965438843	32010988.91200314
1.8392690420150757	31137172.467904948
1.8428958654403687	30271510.27570376
1.8465168476104736	29549697.76521026
1.8501322269439697	29553449.496355582
1.8537418842315674	28186095.57064515
1.8573459386825562	25544142.915929765
1.860944390296936	23306561.39238607
1.864537239074707	22930062.45414322
1.8681244850158691	24579090.59034797
1.871706247329712	26829617.104711425
1.8752825260162354	29184890.791774087
1.8788533210754395	32814853.139684133
1.8824186325073242	36713039.746035755
1.8859784603118896	38239109.04010465
1.8895330429077148	38674805.19800054
1.8930821418762207	40728299.58531734
1.8966259956359863	42638497.04534701
1.9001644849777222	42072185.55927943
1.9036977291107178	41208002.19524754
1.9072256088256836	41276553.00748664
1.9107483625411987	42535680.75736831
1.9142658710479736	44642616.53439183
1.9177782535552979	43974172.45896432
1.9212853908538818	40112315.929794565
1.9247875213623047	37830958.90370496
1.9282845258712769	37316314.73637498
1.9317764043807983	35981675.69511443
1.9352631568908691	33815306.077571586
1.9387450218200684	30683918.99121773
1.942221760749817	30403507.63444598
1.9456936120986938	33696515.51641721
1.9491604566574097	36235187.601191595
1.952622413635254	35831677.08149989
1.956079363822937	34298986.66631786
1.959531545639038	34987227.86995189
1.962978720664978	36132020.09692006
1.966421127319336	36912283.79278943
1.9698586463928223	37809472.84700512
1.9732913970947266	38063268.8498569
1.9767193794250488	39231224.65354556
1.9801424741744995	40799471.042222224
1.9835609197616577	42294664.770495124
1.9869745969772339	43019280.48040853
1.990383505821228	42078694.41860018
1.9937876462936401	43302968.15164922
1.9971871376037598	46010310.947747864
2.000581979751587	47670968.93907175
2.003972291946411	48961029.571407825
2.007357597351074	49398325.43046069
2.0107386112213135	50097650.802269846
2.0141148567199707	51572412.47263395
2.017486572265625	52695545.038095586
2.0208535194396973	55227703.878823146
2.0242159366607666	57673967.75425341
2.027573823928833	57586475.39565448
2.0309269428253174	57915200.14316643
2.034275770187378	59856519.530083634
2.0376198291778564	62047671.43034922
2.040959596633911	63663324.90170776
2.044294595718384	64858862.01965006
2.0476250648498535	65792376.189032204
2.0509510040283203	66291448.6128498
2.054272413253784	67203097.62348709
2.057589530944824	69034568.26013605
2.0609018802642822	70152694.0193196
2.0642096996307373	70213658.89087556
2.0675129890441895	71059472.96712205
2.0708119869232178	72041607.35727446
2.074106216430664	71977920.70126379
2.0773961544036865	71863950.70944826
2.080681324005127	72190663.07910468
2.0839622020721436	72498200.5402501
2.087238311767578	72873060.11330752
2.090510129928589	73297366.10727519
2.0937774181365967	73158282.41071756
2.0970399379730225	72632508.245798
2.1002981662750244	72235510.67286475
2.1035518646240234	71926515.63843879
2.1068007946014404	71523935.14106193
2.1100454330444336	71053328.36260171
2.1132853031158447	70482838.60609043
2.116520881652832	69852354.13920817
2.1197516918182373	69376329.65015091
2.1229779720306396	68863316.91264121
2.12619948387146	67946782.01844871
2.1294167041778564	66806174.291101046
2.132629156112671	65902745.034230076
2.1358368396759033	65019177.74156375
2.139039993286133	63867172.86494461
2.1422386169433594	62787280.35882346
2.145432472229004	61751875.127816446
2.1486217975616455	60543525.57098118
2.151806354522705	59290959.92892056
2.1549863815307617	58008183.898721784
2.1581614017486572	56550367.20422446
2.16133189201355	54923142.168211386
2.1644976139068604	53347896.967851505
2.167658567428589	51964130.74957225
2.1708147525787354	50662911.789016664
2.173966407775879	49278930.90618113
2.1771130561828613	47819083.45685293
2.1802549362182617	46216033.06198332
2.183391809463501	44108497.65895003
2.1865241527557373	41463618.6341943
2.1896514892578125	38512129.67688535
2.1927738189697266	35090161.84732876
2.1958916187286377	30869493.476200305
2.1990041732788086	26132936.746930115
2.2021119594573975	22165815.686129976
2.2052149772644043	20201322.166749403
2.208312749862671	20376724.00483366
2.2114057540893555	21735056.39161829
2.214493751525879	23181730.40148901
2.217576742172241	24269486.7869218
2.2206547260284424	24902844.231935445
2.2237277030944824	24934905.991523802
2.2267956733703613	24106155.48381829
2.2298583984375	22780050.468630493
2.2329163551330566	21688063.771929376
2.235969066619873	20788118.459875956
2.2390167713165283	19795226.67649751
2.2420592308044434	18872967.212758403
2.2450966835021973	18179214.43538626
2.248128890991211	17644275.942266446
2.2511560916900635	17079090.272481896
2.254178285598755	16501073.071187045
2.257194995880127	16202626.644003635
2.260206699371338	16183520.597555706
2.2632133960723877	16145746.578842727
2.266214609146118	15908852.573162686
2.2692108154296875	15509720.220799169
2.2722020149230957	15151122.627962349
2.2751877307891846	14922446.301194852
2.278168201446533	14717813.145063223
2.2811436653137207	14372024.069587944
2.284113883972168	13796469.846241403
2.287078857421875	13106828.933693353
2.290038824081421	12523909.40318569
2.2929933071136475	12271487.052987596
2.295942783355713	12471214.689090533
2.298887014389038	13150366.268713007
2.301826238632202	14376893.534085296
2.304760217666626	16143263.510293858
2.3076889514923096	18098360.163710363
2.310612440109253	19395363.925629724
2.3135311603546143	18652080.60358531
2.3164443969726562	15868676.893575892
2.319352865219116	13240532.876782753
2.322256088256836	11917454.228890354
2.3251543045043945	11297657.212890476
2.328047275543213	10832156.593609607
2.330935478210449	10303791.849246174
2.3338186740875244	9815068.17278327
2.3366971015930176	9600219.565661699
2.3395702838897705	9651500.48167436
2.3424389362335205	9844027.952569352
2.3453025817871094	10100183.877285367
2.348161458969116	10414204.071234606
2.351015567779541	10924941.615039548
2.353865146636963	11694681.133126333
2.3567099571228027	12493711.804559799
2.3595502376556396	13167815.264276484
2.3623859882354736	13875549.099993452
2.3652172088623047	14439367.55818865
2.368043899536133	13874319.908707714
2.370866537094116	11941390.529581647
2.3736846446990967	10130938.102728942
2.3764986991882324	9477879.513319355
2.3793084621429443	9656545.878821168
2.3821144104003906	10274366.01188854
2.384916305541992	11199152.740754742
2.387714147567749	12297646.756576624
2.3905084133148193	13319836.580188707
2.393299102783203	14114409.941409212
2.3960859775543213	14784601.9154203
2.398869514465332	15395154.078842932
2.4016497135162354	15799773.499004727
2.4044265747070312	15926528.462648885
2.407200336456299	16089942.505248792
2.409970998764038	16535689.231597288
2.4127390384674072	16839796.692001373
2.415503978729248	16527792.106995685
2.418266534805298	16026111.024890477
2.4210267066955566	16032109.777290756
2.4237842559814453	16434331.84848761
2.426539897918701	16739074.445160603
2.429293394088745	16740011.929824192
2.4320452213287354	16361814.304798964
2.4347951412200928	15828226.440635748
2.4375438690185547	15773345.348936412
2.440291166305542	16342196.569475504
2.443037271499634	16935485.770052165
2.445782423019409	17149703.682351895
2.4485268592834473	16999953.76784283
2.451270818710327	16591408.30177325
2.454014539718628	16325831.809019493
2.4567582607269287	16634774.841634663
2.4595019817352295	17266316.637087766
2.4622461795806885	17666598.318287835
2.4649908542633057	17677191.951990966
2.4677364826202393	17319900.151443668
2.4704833030700684	16747456.810793815
2.473231554031372	16433099.596555322
2.4759814739227295	16633684.13740688
2.4787333011627197	17135818.125004917
