#wavelength	surface flux
0.6450077295303345	277938.4493377546
0.6472567915916443	437203.674839142
0.6494921445846558	567719.0051845792
0.6517150402069092	648945.5961270472
0.6539263725280762	737045.5913313446
0.6561272740364075	834929.3635736878
0.6583186388015747	940760.4838136581
0.6605015397071838	1055493.6094978075
0.6626768708229065	1179687.1032007851
0.6648455858230591	1303998.8677676173
0.6670085787773132	1366964.2352146597
0.6691668033599854	1246951.333922863
0.6713210344314575	1175914.981168979
0.6734722256660461	1532188.5818364215
0.6756211519241333	2023401.813288158
0.6777685880661011	2325714.9193413053
0.6799154281616211	2539574.139034639
0.6820623278617859	2723451.4350146092
0.6842101216316223	2871427.801680943
0.6863595843315125	2963440.7672947985
0.688511312007904	2985234.8239685562
0.6906660795211792	2955917.423049826
0.6928245425224304	2923274.1728166793
0.6949873566627502	2926519.3726287927
0.6971551775932312	2987892.45285495
0.6993286609649658	3114464.1105799074
0.7015084028244019	3286724.708435298
0.7036949396133423	3465037.9026419995
0.7058889269828796	3620692.6808041134
0.7080909013748169	3759170.0046679797
0.710301399230957	3899274.763431986
0.712520956993103	4033564.069229022
0.7147500514984131	4137461.660790163
0.7169892191886902	4201816.186054788
0.7192389369010925	4224514.165402727
0.7214996814727783	4198223.7590431515
0.723771870136261	4133052.3639407763
0.7260559797286987	4051875.867719196
0.7283523678779602	3955666.2967299665
0.7306615710258484	3818773.8027582522
0.7329838871955872	3645633.1393289
0.7353196740150452	3481353.097162379
0.7376693487167358	3331322.9537113872
0.7400332689285278	3159981.7782374197
0.7424117922782898	3000959.441698005
0.7448052167892456	2886313.525448796
0.7472138404846191	2754826.965324631
0.7496379613876343	2552177.663192273
0.7520779371261597	2312769.9048510347
0.7545340061187744	2062087.893013187
0.7570064663887024	1746332.0122944438
0.7594954967498779	1323439.4012024153
0.7620013952255249	817662.4259349769
0.7645244002342224	359760.052348003
0.7670646905899048	111413.32558910848
0.7696225643157959	96424.37320047432
0.7721980810165405	316620.5639729947
0.7747915983200073	808886.4551654868
0.7774031162261963	1336814.7932167079
0.7800329327583313	1739790.4555394016
0.7826811671257019	2358613.4454713226
0.7853479981422424	3163232.2936547743
0.7880334854125977	3858662.131496601
0.7907378077507019	4379023.667752731
0.7934610247612	4589263.495514647
0.7962033748626709	5185693.5778487865
0.7989648580551147	6606531.750640744
0.801745593547821	8027575.735276731
0.8045456409454346	9183100.534396032
0.8073651194572449	10352407.493201612
0.8102040886878967	11591094.746354252
0.8130625486373901	12923106.310564471
0.8159406185150146	14307729.150562318
0.8188382983207703	15688978.137523526
0.8217556476593018	17294183.81974417
0.8246926665306091	19187469.58482783
0.8276493549346924	21113227.32392932
0.8306257724761963	23043847.24370938
0.8336219191551208	25098416.03896912
0.8366377949714661	27269242.025527567
0.8396733403205872	29487940.199938264
0.8427285552024841	31727403.7198218
0.8458034992218018	33921841.955703415
0.8488980531692505	35159495.29795123
0.8520121574401855	35785497.84611188
0.8551458716392517	39178561.740639314
0.8582990765571594	44224127.7555452
0.8614717125892639	47961533.82784681
0.8646637797355652	50924630.53342707
0.8678751587867737	52555902.04971088
0.8711057901382446	53127601.11961427
0.8743556141853333	55489450.04956283
0.87762451171875	60247481.31232854
0.8809124231338501	65549504.251078285
0.8842192888259888	70330403.63706799
0.8875449895858765	73752545.65276416
0.8908893465995789	75110279.20652384
0.894252359867096	76192943.73450801
0.8976338505744934	82605837.55044805
0.9010337591171265	90775729.71082594
0.9044519662857056	94508664.48831499
0.9078882932662964	98179613.41124605
0.9113426208496094	104646705.0010291
0.914814829826355	111541349.9201881
0.9183048605918884	117962154.64037628
0.9218124747276306	123955444.73145334
0.925337553024292	127288352.14924297
0.9288799166679382	126827747.25862233
0.9324395060539246	128826230.4369454
0.9360161423683167	137172170.68014455
0.9396095871925354	147439487.21180725
0.943219780921936	156859802.0451985
0.9468464851379395	164977888.60282555
0.9504896402359009	172922117.83671874
0.9541489481925964	179938265.15000653
0.9578243494033813	184327226.5743055
0.9615156054496765	189643295.66545305
0.9652225375175476	199690779.4846131
0.9689450263977051	210482121.33979398
0.9726828336715698	217491647.2467137
0.9764357805252075	225650636.36660266
0.9802037477493286	237512073.1947042
0.983986496925354	245984093.14769754
0.9877838492393494	226765598.76966286
0.9915955662727356	174126644.85416085
0.9954215884208679	141441479.569886
0.9992615580558777	145135022.78693655
1.0031154155731201	154278443.03441626
1.0069829225540161	162417289.1922543
1.0108637809753418	170484423.826598
1.0147579908370972	175972937.14630362
1.018665075302124	181128299.03737098
1.022585153579712	186500748.72223395
1.0265177488327026	185201677.90319964
1.0304628610610962	185909562.346575
1.0344202518463135	197850450.9933681
1.0383895635604858	212158608.69443002
1.0423706769943237	222116716.56932056
1.0463634729385376	227751033.4663127
1.0503677129745483	230223237.3777935
1.0543830394744873	233355751.93684742
1.058409333229065	239416751.65129182
1.0624464750289917	245933903.8148255
1.0664942264556885	250423317.1095215
1.0705522298812866	257892705.34416777
1.0746204853057861	272781812.18418294
1.0786986351013184	289017177.5562376
1.0827864408493042	302027095.28247213
1.086883783340454	311132747.42986697
1.0909905433654785	316491683.4070702
1.0951062440872192	315453931.2750288
1.0992310047149658	309623640.0500671
1.10336434841156	303245114.02286136
1.1075061559677124	296000213.2467225
1.1116561889648438	292087975.56696403
1.115814208984375	294575157.9875133
1.1199802160263062	303691720.4552776
1.124153733253479	322843424.3499134
1.1283347606658936	334854453.23726696
1.1325229406356812	318118425.2293327
1.1367181539535522	293212882.32389915
1.1409201622009277	295239357.7316667
1.145128846168518	330411416.3933277
1.1493438482284546	371475469.6040937
1.1535650491714478	385758420.76175904
1.1577922105789185	385593133.01845986
1.1620250940322876	376222178.11896837
1.1662636995315552	331056131.0154293
1.170507550239563	283011641.5852692
1.174756646156311	262200180.86806476
1.1790107488632202	281796145.56153846
1.1832695007324219	363729649.6859749
1.1875330209732056	446205356.56263596
1.191800832748413	456989716.8672466
1.1960728168487549	401729826.4831211
1.2003488540649414	355951635.79403096
1.2046287059783936	367112627.85107833
1.2089121341705322	390406991.71709144
1.2131990194320679	412382267.3091257
1.2174891233444214	435518432.5877503
1.2217823266983032	441904984.76869273
1.2260783910751343	458114430.34857273
1.230377197265625	470848719.48790354
1.2346785068511963	453396183.0690778
1.238982081413269	415393942.97914535
1.2432878017425537	378600206.0231647
1.2475954294204712	370376946.8769572
1.2519049644470215	372515131.7377165
1.256216049194336	396716731.5064745
1.2605286836624146	439220416.09499335
1.2648425102233887	466960371.77747685
1.2691574096679688	490365784.00275195
1.2734732627868652	501474042.63266414
1.2777899503707886	503080863.5029373
1.2821072340011597	502710601.3146816
1.2864248752593994	479058258.4748935
1.2907428741455078	449601200.6809102
1.2950609922409058	446293216.684106
1.2993791103363037	461281108.720797
1.303696870803833	477381520.8462602
1.3080145120620728	487902861.92969364
1.3123314380645752	498743950.71346813
1.3166478872299194	500237447.41917104
1.3209635019302368	475269836.4798607
1.3252781629562378	432567887.5677894
1.3295916318893433	364809643.24205977
1.3339040279388428	261753730.92342663
1.3382149934768677	173584969.61373064
1.3425244092941284	133532510.17700237
1.3468321561813354	112910152.72140972
1.3511382341384888	94898863.28447431
1.3554422855377197	84833005.95669396
1.3597444295883179	86071730.88885972
1.3640443086624146	95768794.75584047
1.3683418035507202	103804565.17029764
1.3726370334625244	109679486.37523934
1.3769296407699585	118807860.27043138
1.381219506263733	122499107.89696899
1.3855066299438477	118208193.42891373
1.3897908926010132	110813631.24554496
1.3940720558166504	101699023.42479521
1.3983501195907593	96750692.51948026
1.4026249647140503	98520929.21856105
1.4068963527679443	97531971.0859619
1.4111642837524414	92930631.17260356
1.4154287576675415	91328442.25193387
1.419689416885376	88885855.76524386
1.4239463806152344	86854635.7256388
1.4281994104385376	91160637.21060954
1.4324485063552856	98467446.20157185
1.436693549156189	104391927.3426033
1.440934419631958	108102116.81622308
1.4451709985733032	113200074.10872287
1.449403166770935	125121893.81782931
1.453631043434143	139802655.74647874
1.4578542709350586	149322428.66286817
1.4620729684829712	152378476.09492278
1.4662868976593018	152595476.5593278
1.4704961776733398	153933178.18028924
1.4747005701065063	160303645.49545166
1.4788999557495117	168487308.48649022
1.4830944538116455	172884720.58429557
1.4872838258743286	176719655.6760191
1.491468071937561	182349312.7303221
1.4956470727920532	190116048.069006
1.4998208284378052	198435218.28434977
1.5039892196655273	206193580.7143512
1.5081522464752197	215880155.56956524
1.5123097896575928	226718325.47112608
1.5164618492126465	236823111.84537867
1.5206083059310913	247233175.76262668
1.5247491598129272	256339709.4555038
1.5288842916488647	263584610.4550465
1.5330137014389038	273254727.9064028
1.5371372699737549	285646910.578107
1.541254997253418	296571765.64932364
1.545366883277893	306265744.9257334
1.5494728088378906	316443428.9488789
1.5535727739334106	322817001.2789896
1.5576666593551636	325494928.2912601
1.561754584312439	330561197.2667718
1.5658363103866577	340027939.2536964
1.5699119567871094	350816468.73394936
1.5739814043045044	358359660.996066
1.5780447721481323	361227300.91812986
1.582101821899414	363741795.0427779
1.5861525535583496	368618212.27558935
1.5901970863342285	371475800.41628075
1.5942351818084717	370878455.4606046
1.5982669591903687	367491860.7782079
1.6022924184799194	360446287.6093174
1.606311559677124	351662707.96194404
1.6103241443634033	341771945.682358
1.6143304109573364	331371892.946906
1.6183301210403442	321520427.49572086
1.6223233938217163	312521647.7515315
1.6263102293014526	305271574.47387916
1.6302905082702637	302505690.1027902
1.634264349937439	305438340.7215067
1.638231635093689	310156004.2412665
1.6421923637390137	313500471.7286971
1.646146535873413	316164903.06161845
1.6500942707061768	318608813.3179222
1.6540353298187256	318691271.9482406
1.6579699516296387	314964154.3318736
1.661897897720337	305908254.1255906
1.6658192873001099	287848880.8463173
1.6697341203689575	269680167.6119783
1.6736423969268799	266104393.0663954
1.677544116973877	274527814.301847
1.6814392805099487	281616850.29256755
1.6853278875350952	280219884.8570619
1.6892099380493164	273063643.4122051
1.6930854320526123	264137442.3611895
1.696954369544983	256930083.74908626
1.7008168697357178	254122101.17461386
1.7046726942062378	253496709.9675352
1.708522081375122	250902078.72817627
1.712364912033081	243715076.94547147
1.7162011861801147	233692285.48947647
1.7200311422348022	225655907.3886501
1.723854422569275	219529545.36457047
1.7276713848114014	211138197.1083253
1.731481909751892	201072793.83542347
1.7352858781814575	191465219.40744707
1.7390835285186768	182054259.91650423
1.7428747415542603	174292472.02246526
1.7466596364974976	168005900.40284735
1.7504380941390991	162168011.57883382
1.7542102336883545	155443596.00054538
1.7579760551452637	147932208.42366916
1.7617355585098267	142649441.8167038
1.7654887437820435	136277697.3825265
1.7692357301712036	124980099.0514479
1.7729763984680176	116924232.70733598
1.776710867881775	113910005.07142815
1.7804391384124756	109267067.77543567
1.7841613292694092	102084518.81736675
1.7878772020339966	96265180.67550065
1.7915871143341064	94647848.01483849
1.7952908277511597	92889166.82272953
1.7989884614944458	88578014.26058397
1.8026801347732544	84180485.81709486
1.806365728378296	81600401.31386447
1.8100452423095703	83732850.91412981
1.8137187957763672	86591014.42290142
1.817386507987976	82570210.0439084
1.8210482597351074	80344416.34898952
1.8247040510177612	82538918.24601763
1.828354001045227	81243581.3506847
1.8319982290267944	78768125.71913591
1.8356364965438843	76616451.09076807
1.8392690420150757	74637378.68268897
1.8428958654403687	71623901.4210932
1.8465168476104736	68975361.04808378
1.8501322269439697	68435261.85606742
1.8537418842315674	65437211.7188815
1.8573459386825562	60062398.442389295
1.860944390296936	55991645.62609555
1.864537239074707	56262895.95938782
1.8681244850158691	60568137.54563465
1.871706247329712	64855857.51096448
1.8752825260162354	67514807.44017181
1.8788533210754395	72158479.5953336
1.8824186325073242	78687693.33347611
1.8859784603118896	81813974.19766046
1.8895330429077148	82223055.17210439
1.8930821418762207	84665051.67163372
1.8966259956359863	88084412.80231807
1.9001644849777222	88632813.51226711
1.9036977291107178	87830457.41543575
1.9072256088256836	87751014.63941805
1.9107483625411987	90141233.93321916
1.9142658710479736	93975924.03470895
1.9177782535552979	92386753.22450523
1.9212853908538818	85773979.85568395
1.9247875213623047	82592690.5648421
1.9282845258712769	82325506.94978411
1.9317764043807983	80415446.67128457
1.9352631568908691	76667869.8940855
1.9387450218200684	70467859.45702615
1.942221760749817	68954501.54750909
1.9456936120986938	74225874.0006083
1.9491604566574097	78321823.45934084
1.952622413635254	77083021.98807734
1.956079363822937	73911949.29877065
1.959531545639038	74599826.83739354
1.962978720664978	75912394.95861861
1.966421127319336	76531181.39182529
1.9698586463928223	77508335.01605956
1.9732913970947266	77318638.47282933
1.9767193794250488	78538688.78911045
1.9801424741744995	80526691.92275701
1.9835609197616577	82450306.98693371
1.9869745969772339	83209427.78662567
1.990383505821228	81166199.24766226
1.9937876462936401	82452995.2517875
1.9971871376037598	86231454.18984146
2.000581979751587	88527785.51906157
2.003972291946411	90305730.24899414
2.007357597351074	90576103.09518045
2.0107386112213135	91060946.1356409
2.0141148567199707	92987556.37396978
2.017486572265625	94750087.21780351
2.0208535194396973	98492561.08235872
2.0242159366607666	101779447.53594264
2.027573823928833	101373808.55183467
2.0309269428253174	101792920.2425747
2.034275770187378	104568992.30030915
2.0376198291778564	107829767.60489996
2.040959596633911	110221657.12270428
2.044294595718384	111642250.76553729
2.0476250648498535	112777250.54740983
2.0509510040283203	113688021.918155
2.054272413253784	115115950.04704233
2.057589530944824	117692887.38122477
2.0609018802642822	119199759.21634914
2.0642096996307373	119273224.12951925
2.0675129890441895	120864877.35949889
2.0708119869232178	122572945.46530645
2.074106216430664	122585825.68264063
2.0773961544036865	122709666.8529861
2.080681324005127	123392405.74850526
2.0839622020721436	123907397.17460817
2.087238311767578	124646194.02865124
2.090510129928589	125661451.97099556
2.0937774181365967	125904078.50418833
2.0970399379730225	125465935.59605812
2.1002981662750244	125292388.72896934
2.1035518646240234	125344846.52982816
2.1068007946014404	125097202.71257828
2.1100454330444336	124770118.0218097
2.1132853031158447	124405225.58459176
2.116520881652832	123864026.80245583
2.1197516918182373	123515767.81938934
2.1229779720306396	123158298.38056855
2.12619948387146	122181145.7808714
2.1294167041778564	120835576.96926124
2.132629156112671	119904593.72350703
2.1358368396759033	119034364.1253397
2.139039993286133	117736917.27063806
2.1422386169433594	116584606.90988643
2.145432472229004	115478192.61717075
2.1486217975616455	114004324.41464742
2.151806354522705	112430054.25024636
2.1549863815307617	110897188.54339376
2.1581614017486572	109220990.65941115
2.16133189201355	107329994.2807737
2.1644976139068604	105420866.95832618
2.167658567428589	103579381.31606412
2.1708147525787354	101662805.74298018
2.173966407775879	99616171.19783159
2.1771130561828613	97563666.05583586
2.1802549362182617	95408081.14635089
2.183391809463501	92666795.29287507
2.1865241527557373	89304065.22581384
2.1896514892578125	85519928.07834825
2.1927738189697266	80876051.3170374
2.1958916187286377	74973632.09958558
2.1990041732788086	68228814.87054758
2.2021119594573975	61921741.2132971
2.2052149772644043	57835575.816918634
2.208312749862671	57055268.42300833
2.2114057540893555	58644132.49502752
2.214493751525879	60756760.13965408
2.217576742172241	62342275.01457976
2.2206547260284424	63321971.380281344
2.2237277030944824	63638274.50682588
2.2267956733703613	62577605.22787716
2.2298583984375	60462267.60307551
2.2329163551330566	58540648.284640476
2.235969066619873	56919921.64616018
2.2390167713165283	55189809.46949588
2.2420592308044434	53485283.3145139
2.2450966835021973	52038693.34550926
2.248128890991211	50856963.22684997
2.2511560916900635	49720839.64326521
2.254178285598755	48650234.34151289
2.257194995880127	48040532.40846432
2.260206699371338	47871108.95058587
2.2632133960723877	47625048.89784027
2.266214609146118	46795915.553150125
2.2692108154296875	45456314.16594804
2.2722020149230957	44382939.33814358
2.2751877307891846	43812530.42164797
2.278168201446533	43221407.5912296
2.2811436653137207	42256644.88690469
2.284113883972168	40905720.5195903
2.287078857421875	39404820.772248045
2.290038824081421	37955875.65047857
2.2929933071136475	36623399.490329824
2.295942783355713	35847019.90428691
2.298887014389038	36337664.312477745
2.301826238632202	38196862.10686988
2.304760217666626	40936239.46399892
2.3076889514923096	43740067.06525459
2.310612440109253	45386167.194422804
2.3135311603546143	44262927.767841496
2.3164443969726562	40410790.43851959
2.319352865219116	36386241.65218412
2.322256088256836	33685806.894248605
2.3251543045043945	31917142.846042767
2.328047275543213	30537427.25137825
2.330935478210449	29215838.792671107
2.3338186740875244	28127041.995020665
2.3366971015930176	27671012.787851937
2.3395702838897705	27853091.224378206
2.3424389362335205	28456638.60897097
2.3453025817871094	29250933.112576425
2.348161458969116	30115804.554555647
2.351015567779541	31256715.90993079
2.353865146636963	32761316.161065143
2.3567099571228027	34191020.18312133
2.3595502376556396	35289637.46505487
2.3623859882354736	36465962.525833525
2.3652172088623047	37512699.744287446
2.368043899536133	36698000.99725495
2.370866537094116	33483405.872872617
2.3736846446990967	30177796.805364568
2.3764986991882324	28492615.466297705
2.3793084621429443	28194391.573250663
2.3821144104003906	28874680.578765
2.384916305541992	30358779.289744124
2.387714147567749	32398956.26066371
2.3905084133148193	34462789.1199883
2.393299102783203	36175384.948287
2.3960859775543213	37579912.68074895
2.398869514465332	38693896.5005344
2.4016497135162354	39283984.05001691
2.4044265747070312	39262744.407934636
2.407200336456299	39211989.951188475
2.409970998764038	39617082.88416051
2.4127390384674072	39899470.38199981
2.415503978729248	39375848.93073381
2.418266534805298	38607812.05757803
2.4210267066955566	38532112.99497002
2.4237842559814453	39003289.0751673
2.426539897918701	39357101.53432517
2.429293394088745	39237578.96094651
2.4320452213287354	38391662.13691448
2.4347951412200928	37169224.880435064
2.4375438690185547	36703500.519958034
2.440291166305542	37316458.67043447
2.443037271499634	38138380.91722198
2.445782423019409	38512485.4291926
2.4485268592834473	38162651.00128743
2.451270818710327	37046041.47927662
2.454014539718628	36136912.730466865
2.4567582607269287	36535617.48531141
2.4595019817352295	37692162.610145256
2.4622461795806885	38346328.59785575
2.4649908542633057	38170456.34096233
2.4677364826202393	37288475.04347524
2.4704833030700684	36037038.53349224
2.473231554031372	35347872.543225825
2.4759814739227295	35700369.888490744
2.4787333011627197	36549779.62759023
2.481487512588501	37289546.39934884
