#wavelength	surface flux
0.6450077295303345	339007.33136520657
0.6472567915916443	534184.4021288115
0.6494921445846558	695780.7832710743
0.6517150402069092	798430.0655497678
0.6539263725280762	910798.1862244172
0.6561272740364075	1036367.9570579992
0.6583186388015747	1172663.0379978283
0.6605015397071838	1320819.913385496
0.6626768708229065	1479938.1720075402
0.6648455858230591	1632460.9908634569
0.6670085787773132	1686166.0252714686
0.6691668033599854	1483533.276006508
0.6713210344314575	1358571.4855617608
0.6734722256660461	1834184.3849488564
0.6756211519241333	2521665.7202074016
0.6777685880661011	2958628.0253500785
0.6799154281616211	3260137.4497404997
0.6820623278617859	3516348.7146404716
0.6842101216316223	3718984.475131147
0.6863595843315125	3837039.2086886037
0.688511312007904	3852856.027113496
0.6906660795211792	3790610.512923147
0.6928245425224304	3717114.7053210256
0.6949873566627502	3694535.747008054
0.6971551775932312	3754657.1354986574
0.6993286609649658	3905313.006008593
0.7015084028244019	4123184.6840943675
0.7036949396133423	4339871.306084526
0.7058889269828796	4502152.602781472
0.7080909013748169	4639444.561716256
0.710301399230957	4791441.056659934
0.712520956993103	4941485.715129314
0.7147500514984131	5068149.255618879
0.7169892191886902	5169976.28576913
0.7192389369010925	5224844.46287116
0.7214996814727783	5204684.627556885
0.723771870136261	5124419.492429797
0.7260559797286987	5014435.7016234
0.7283523678779602	4872280.224347027
0.7306615710258484	4664124.578358103
0.7329838871955872	4394722.99265206
0.7353196740150452	4120800.731491163
0.7376693487167358	3854419.286309987
0.7400332689285278	3556355.2205890003
0.7424117922782898	3265588.0356861693
0.7448052167892456	3025309.664155017
0.7472138404846191	2782072.9553300454
0.7496379613876343	2495441.4912836966
0.7520779371261597	2204718.730391915
0.7545340061187744	1935257.523041765
0.7570064663887024	1647600.4606385597
0.7594954967498779	1308510.8972990059
0.7620013952255249	887006.828678541
0.7645244002342224	434497.1268035924
0.7670646905899048	144616.39233378164
0.7696225643157959	106107.98124310838
0.7721980810165405	310709.07086387975
0.7747915983200073	795833.6967680778
0.7774031162261963	1347681.9750885009
0.7800329327583313	1801902.4369047051
0.7826811671257019	2486265.9665945913
0.7853479981422424	3380648.677359737
0.7880334854125977	4208244.8932275195
0.7907378077507019	4871774.470374685
0.7934610247612	5176733.076355358
0.7962033748626709	5920616.664263681
0.7989648580551147	7625255.65946513
0.801745593547821	9361260.557661394
0.8045456409454346	10831720.006394902
0.8073651194572449	12362666.425519343
0.8102040886878967	14020082.227687554
0.8130625486373901	15831163.902694082
0.8159406185150146	17646752.67785206
0.8188382983207703	19352449.754115734
0.8217556476593018	21538760.554376896
0.8246926665306091	24238547.034752198
0.8276493549346924	26786720.444846824
0.8306257724761963	29225713.925428353
0.8336219191551208	31836017.089710202
0.8366377949714661	34571204.32839229
0.8396733403205872	37220429.851618946
0.8427285552024841	39388891.74894121
0.8458034992218018	41078350.52281441
0.8488980531692505	41954818.00309674
0.8520121574401855	42458399.79868922
0.8551458716392517	46133012.55477309
0.8582990765571594	51570140.95646819
0.8614717125892639	55325439.76902167
0.8646637797355652	57975950.41426532
0.8678751587867737	58554342.7008267
0.8711057901382446	57695727.03148046
0.8743556141853333	59759872.02010524
0.87762451171875	65584841.10340493
0.8809124231338501	72158075.56987134
0.8842192888259888	77330349.07897821
0.8875449895858765	79915374.87616605
0.8908893465995789	80680978.40875249
0.894252359867096	82147037.82876064
0.8976338505744934	89318586.36719914
0.9010337591171265	97609331.68432246
0.9044519662857056	100255515.30375576
0.9078882932662964	103550337.84223384
0.9113426208496094	111250814.78963503
0.914814829826355	119537059.65147077
0.9183048605918884	126503657.75542723
0.9218124747276306	130476255.78300491
0.925337553024292	129450672.32796803
0.9288799166679382	125329487.96605557
0.9324395060539246	125321777.64301297
0.9360161423683167	132580869.31176564
0.9396095871925354	142403949.60838407
0.943219780921936	152439562.74350742
0.9468464851379395	161829590.77806002
0.9504896402359009	170729221.20543578
0.9541489481925964	177970246.8900262
0.9578243494033813	181280158.99223033
0.9615156054496765	185443985.87083542
0.9652225375175476	195918724.47338796
0.9689450263977051	206259321.83517116
0.9726828336715698	209725154.84495932
0.9764357805252075	214497090.66785973
0.9802037477493286	224019399.03749004
0.983986496925354	230825154.708605
0.9877838492393494	213710639.54642984
0.9915955662727356	164429521.0447821
0.9954215884208679	132420309.47309484
0.9992615580558777	135131744.96221736
1.0031154155731201	143598132.67162865
1.0069829225540161	152163797.81752017
1.0108637809753418	161316761.8393309
1.0147579908370972	167769988.80672842
1.018665075302124	173313738.62794778
1.022585153579712	177917783.90279332
1.0265177488327026	174084382.33756045
1.0304628610610962	172360108.3022154
1.0344202518463135	183874537.0636091
1.0383895635604858	199397234.34051573
1.0423706769943237	210753946.31807923
1.0463634729385376	215884608.17190343
1.0503677129745483	216105707.747229
1.0543830394744873	217562839.9759059
1.058409333229065	223134547.39477852
1.0624464750289917	229329852.70379478
1.0664942264556885	232844087.76406607
1.0705522298812866	240313239.22058764
1.0746204853057861	258349189.3298979
1.0786986351013184	279043337.86804026
1.0827864408493042	294948851.8035477
1.086883783340454	305045641.7859588
1.0909905433654785	310899614.3095392
1.0951062440872192	309352227.24414366
1.0992310047149658	301046892.85327905
1.10336434841156	290251734.84204125
1.1075061559677124	278824886.17264324
1.1116561889648438	274389683.4769144
1.115814208984375	278300552.29254454
1.1199802160263062	287796769.7758741
1.124153733253479	306809563.1412264
1.1283347606658936	319536532.9617724
1.1325229406356812	301789505.7293529
1.1367181539535522	272521412.3034338
1.1409201622009277	273411668.16410947
1.145128846168518	314472496.6544522
1.1493438482284546	360006866.83319706
1.1535650491714478	373807814.1054611
1.1577922105789185	372884105.1274879
1.1620250940322876	364965334.1515476
1.1662636995315552	323915596.65774983
1.170507550239563	279627584.62064064
1.174756646156311	260144809.55108595
1.1790107488632202	277587836.1122134
1.1832695007324219	351937902.0412484
1.1875330209732056	424874312.71563786
1.191800832748413	434612975.1957014
1.1960728168487549	385209790.1798731
1.2003488540649414	341649919.68632436
1.2046287059783936	353296005.1721251
1.2089121341705322	376922961.80796665
1.2131990194320679	398749783.4438899
1.2174891233444214	422779594.47556496
1.2217823266983032	431286671.1567972
1.2260783910751343	452541419.8906136
1.230377197265625	469956442.3141571
1.2346785068511963	452996008.8788565
1.238982081413269	408159039.6062713
1.2432878017425537	362173548.89616895
1.2475954294204712	352063480.55355823
1.2519049644470215	353828907.7623584
1.256216049194336	378745815.3256287
1.2605286836624146	425073484.67956793
1.2648425102233887	455893201.73279756
1.2691574096679688	482796413.33308214
1.2734732627868652	496439653.92568195
1.2777899503707886	501571422.6878673
1.2821072340011597	503119333.81227857
1.2864248752593994	473277893.10273397
1.2907428741455078	436609622.3007176
1.2950609922409058	432087624.515222
1.2993791103363037	449078958.66670626
1.303696870803833	467251551.62397164
1.3080145120620728	477701039.65650946
1.3123314380645752	487927896.73299354
1.3166478872299194	489593307.225242
1.3209635019302368	462913267.5241358
1.3252781629562378	416625316.3058629
1.3295916318893433	347951262.6042677
1.3339040279388428	250452595.30021814
1.3382149934768677	170165488.66677502
1.3425244092941284	133649712.51436292
1.3468321561813354	114427207.92592491
1.3511382341384888	98098268.48379989
1.3554422855377197	87812904.04880612
1.3597444295883179	86615850.01335756
1.3640443086624146	92567000.29525301
1.3683418035507202	97072097.86764857
1.3726370334625244	99614608.69423805
1.3769296407699585	106308098.04361774
1.381219506263733	111546086.69861732
1.3855066299438477	111484490.54922305
1.3897908926010132	107310881.7763351
1.3940720558166504	99896817.68450888
1.3983501195907593	94674443.8000813
1.4026249647140503	93978180.3044529
1.4068963527679443	91350084.92148773
1.4111642837524414	87453247.161794
1.4154287576675415	86418209.35194865
1.419689416885376	84370780.56434204
1.4239463806152344	82590406.11439492
1.4281994104385376	85419712.31610183
1.4324485063552856	91289694.72326532
1.436693549156189	96747543.72965929
1.440934419631958	99857614.32911313
1.4451709985733032	104034219.93697114
1.449403166770935	114607046.61651611
1.453631043434143	127655390.94363177
1.4578542709350586	135541993.59112728
1.4620729684829712	137408882.77707744
1.4662868976593018	136813886.1824546
1.4704961776733398	137083103.0410867
1.4747005701065063	142119056.51162645
1.4788999557495117	149401073.02298954
1.4830944538116455	153885566.91977686
1.4872838258743286	157738458.0145883
1.491468071937561	162120151.8133206
1.4956470727920532	168207846.45716408
1.4998208284378052	175007486.3584264
1.5039892196655273	181481102.09182128
1.5081522464752197	190686702.48861614
1.5123097896575928	201061153.3134638
1.5164618492126465	209774124.27038437
1.5206083059310913	218379090.78547207
1.5247491598129272	226406976.92698705
1.5288842916488647	233156786.88653916
1.5330137014389038	241688684.9664492
1.5371372699737549	252846981.3273656
1.541254997253418	263601261.85866418
1.545366883277893	273569231.5653639
1.5494728088378906	284273874.97334355
1.5535727739334106	290961432.4765006
1.5576666593551636	292753850.77530384
1.561754584312439	297742090.53932214
1.5658363103866577	309484870.39548296
1.5699119567871094	323073736.57819253
1.5739814043045044	332362273.80052537
1.5780447721481323	336214888.48319423
1.582101821899414	340741562.6487418
1.5861525535583496	349213345.5073529
1.5901970863342285	355633387.575386
1.5942351818084717	358663150.5845673
1.5982669591903687	359144231.2967225
1.6022924184799194	356372863.01737297
1.606311559677124	352619679.49478054
1.6103241443634033	347285223.3075409
1.6143304109573364	341032177.96884185
1.6183301210403442	334840340.3298087
1.6223233938217163	328799018.6425073
1.6263102293014526	324516436.4913496
1.6302905082702637	323693611.27662385
1.634264349937439	327038746.5706907
1.638231635093689	332179996.2344615
1.6421923637390137	336594636.01090956
1.646146535873413	340663810.84223235
1.6500942707061768	344134596.2494232
1.6540353298187256	344940895.4850311
1.6579699516296387	342032380.99576896
1.661897897720337	334248203.01659226
1.6658192873001099	318351704.3986092
1.6697341203689575	302037584.0276516
1.6736423969268799	299478450.85950315
1.677544116973877	308789650.3472849
1.6814392805099487	316460701.6394291
1.6853278875350952	314704348.8727648
1.6892099380493164	306278057.368701
1.6930854320526123	295297416.95481503
1.696954369544983	285859381.19876665
1.7008168697357178	281516699.3391905
1.7046726942062378	278779157.37818694
1.708522081375122	272822279.8533527
1.712364912033081	262157588.44671986
1.7162011861801147	248829043.39183435
1.7200311422348022	238280640.82563204
1.723854422569275	231289099.06447616
1.7276713848114014	222651505.0934381
1.731481909751892	212230304.72010928
1.7352858781814575	202496376.09876975
1.7390835285186768	192918600.43033955
1.7428747415542603	184320667.12979537
1.7466596364974976	177138890.09812096
1.7504380941390991	171264038.01899853
1.7542102336883545	164483262.74903628
1.7579760551452637	156590156.0304013
1.7617355585098267	151227818.66773948
1.7654887437820435	144871460.65524423
1.7692357301712036	132990508.89562535
1.7729763984680176	124181177.69302505
1.776710867881775	121134226.79217266
1.7804391384124756	116883403.99960847
1.7841613292694092	109718156.53233172
1.7878772020339966	103277072.44597329
1.7915871143341064	101059324.18725824
1.7952908277511597	99426701.68949564
1.7989884614944458	95403739.79809062
1.8026801347732544	90765461.29413916
1.806365728378296	87545208.35870261
1.8100452423095703	89167429.01578891
1.8137187957763672	92295781.89973186
1.817386507987976	88548013.34288
1.8210482597351074	85570726.21067132
1.8247040510177612	87020763.85652965
1.828354001045227	85865635.98640709
1.8319982290267944	83538572.06293315
1.8356364965438843	81298875.75155692
1.8392690420150757	78980251.7796697
1.8428958654403687	75166714.68516733
1.8465168476104736	72142768.40280882
1.8501322269439697	72031511.49535227
1.8537418842315674	69506531.42559144
1.8573459386825562	64043718.90941338
1.860944390296936	59696797.93712497
1.864537239074707	60110925.08248369
1.8681244850158691	64902118.00874819
1.871706247329712	69217906.62135243
1.8752825260162354	70909067.65229726
1.8788533210754395	74440001.91089271
1.8824186325073242	80691066.07210627
1.8859784603118896	83924992.39228494
1.8895330429077148	83800878.18774588
1.8930821418762207	85255834.69278058
1.8966259956359863	88544391.31213409
1.9001644849777222	89816120.96977513
1.9036977291107178	89588810.17989719
1.9072256088256836	89698021.94209412
1.9107483625411987	92124125.16665794
1.9142658710479736	96047986.496997
1.9177782535552979	94580538.199001
1.9212853908538818	88658706.85735609
1.9247875213623047	86445160.95887579
1.9282845258712769	86562217.99512434
1.9317764043807983	84585243.58426085
1.9352631568908691	80779636.60308185
1.9387450218200684	74653690.97394784
1.942221760749817	73104035.86229709
1.9456936120986938	78392308.40382352
1.9491604566574097	82505511.02193901
1.952622413635254	81218560.60030785
1.956079363822937	78046629.45859608
1.959531545639038	78577148.63762622
1.962978720664978	79436143.42725179
1.966421127319336	79570884.24889238
1.9698586463928223	80668872.36768563
1.9732913970947266	80804521.32716581
1.9767193794250488	81792745.00014348
1.9801424741744995	83159975.8605651
1.9835609197616577	84322509.38631196
1.9869745969772339	84759352.66361925
1.990383505821228	83140498.91089843
1.9937876462936401	84653961.76827304
1.9971871376037598	87889219.87276137
2.000581979751587	89465268.1418906
2.003972291946411	90799308.32578698
2.007357597351074	91132500.32715021
2.0107386112213135	91936072.64331114
2.0141148567199707	93749401.72706704
2.017486572265625	95132964.82951438
2.0208535194396973	98671299.82290079
2.0242159366607666	102075658.60381077
2.027573823928833	102040925.42279093
2.0309269428253174	102556062.39844613
2.034275770187378	105014896.05724667
2.0376198291778564	108124052.33553922
2.040959596633911	110674744.0626799
2.044294595718384	112317594.71974784
2.0476250648498535	113726214.7157477
2.0509510040283203	114831172.64204985
2.054272413253784	116335272.9124578
2.057589530944824	119169618.14003645
2.0609018802642822	120908197.74415624
2.0642096996307373	121029830.66998602
2.0675129890441895	123010997.25343606
2.0708119869232178	125238129.66377413
2.074106216430664	125534805.21406198
2.0773961544036865	125949733.04734758
2.080681324005127	126941280.16829553
2.0839622020721436	127683853.02690792
2.087238311767578	128756304.88318199
2.090510129928589	130312356.33751532
2.0937774181365967	131064172.5290174
2.0970399379730225	130989330.24981247
2.1002981662750244	131217269.08268036
2.1035518646240234	131696679.93516439
2.1068007946014404	131749772.6765317
2.1100454330444336	131778193.74146043
2.1132853031158447	131816095.46865317
2.116520881652832	131579612.27242011
2.1197516918182373	131598147.73406072
2.1229779720306396	131629300.19295351
2.12619948387146	130851045.09775096
2.1294167041778564	129630589.97328395
2.132629156112671	129015377.90139638
2.1358368396759033	128447980.13638636
2.139039993286133	127261774.65675971
2.1422386169433594	126318701.24570948
2.145432472229004	125460256.13055785
2.1486217975616455	124058468.84247673
2.151806354522705	122508022.55215792
2.1549863815307617	121065851.18706071
2.1581614017486572	119514726.64344504
2.16133189201355	117738499.52018853
2.1644976139068604	115924747.01456012
2.167658567428589	114073267.30178496
2.1708147525787354	111996333.80718888
2.173966407775879	109803063.5637344
2.1771130561828613	107713037.4499297
2.1802549362182617	105538756.08207445
2.183391809463501	102730861.90077686
2.1865241527557373	99332044.0243233
2.1896514892578125	95563847.74196886
2.1927738189697266	90767865.81387489
2.1958916187286377	84472494.38626765
2.1990041732788086	77240286.72296606
2.2021119594573975	70402136.60742341
2.2052149772644043	65869871.89995994
2.208312749862671	64956070.21106947
2.2114057540893555	66707199.58439337
2.214493751525879	69028840.21441469
2.217576742172241	70668902.65763144
2.2206547260284424	71654988.58086646
2.2237277030944824	72080989.6367835
2.2267956733703613	71073679.71089256
2.2298583984375	68814602.87448704
2.2329163551330566	66628421.151901156
2.235969066619873	64775786.55604679
2.2390167713165283	62906835.87669559
2.2420592308044434	61071885.24712017
2.2450966835021973	59459590.756766304
2.248128890991211	58102676.14927598
2.2511560916900635	56781093.39630827
2.254178285598755	55531542.56602099
2.257194995880127	54775842.89232232
2.260206699371338	54353291.71185934
2.2632133960723877	53644648.5131533
2.266214609146118	52481876.883139536
2.2692108154296875	51223679.40463724
2.2722020149230957	50440504.645355985
2.2751877307891846	50021867.31095193
2.278168201446533	49241866.705576256
2.2811436653137207	47901431.3630328
2.284113883972168	46248236.730954766
2.287078857421875	44487743.169490024
2.290038824081421	42561006.9494039
2.2929933071136475	40244187.926666856
2.295942783355713	38339603.31054536
2.298887014389038	38385262.766900994
2.301826238632202	40477655.9181164
2.304760217666626	43574926.04370055
2.3076889514923096	46633661.990256585
2.310612440109253	48431136.186273865
2.3135311603546143	47430809.88500187
2.3164443969726562	43625839.76639641
2.319352865219116	39341816.586529754
2.322256088256836	36133598.63350771
2.3251543045043945	33996593.78931776
2.328047275543213	32502003.20159292
2.330935478210449	31169038.648696385
2.3338186740875244	30099146.403800543
2.3366971015930176	29693736.830952123
2.3395702838897705	29988165.501891367
2.3424389362335205	30773981.714192573
2.3453025817871094	31721753.627966233
2.348161458969116	32616633.73288228
2.351015567779541	33702163.387363195
2.353865146636963	35126648.12012652
2.3567099571228027	36462168.43120194
2.3595502376556396	37477264.49853282
2.3623859882354736	38664005.70362786
2.3652172088623047	39853046.46363583
2.368043899536133	39232108.545739524
2.370866537094116	36155894.21731044
2.3736846446990967	32814586.26788104
2.3764986991882324	30892781.051857557
2.3793084621429443	30309425.053695675
2.3821144104003906	30796092.966831237
2.384916305541992	32252162.435880546
2.387714147567749	34436574.442535274
2.3905084133148193	36702489.034542195
2.393299102783203	38582210.85259182
2.3960859775543213	40107706.34160948
2.398869514465332	41295347.60208015
2.4016497135162354	41901113.79824938
2.4044265747070312	41829422.76795785
2.407200336456299	41671865.183324166
2.409970998764038	41937153.79216875
2.4127390384674072	42113468.44807442
2.415503978729248	41579788.837708406
2.418266534805298	40839463.060737245
2.4210267066955566	40736176.9013132
2.4237842559814453	41147306.160685234
2.426539897918701	41483988.176731065
2.429293394088745	41381392.058264926
2.4320452213287354	40520397.55187307
2.4347951412200928	39245123.38083025
2.4375438690185547	38742535.18356614
2.440291166305542	39356258.063518025
2.443037271499634	40195225.49140191
2.445782423019409	40588210.7484043
2.4485268592834473	40260368.68873054
2.451270818710327	39170174.24983636
2.454014539718628	38284600.2153856
2.4567582607269287	38695967.63723097
2.4595019817352295	39861888.25148044
2.4622461795806885	40537361.527821414
2.4649908542633057	40398496.19084473
2.4677364826202393	39567094.36286048
2.4704833030700684	38369683.02063526
2.473231554031372	37708067.02942275
2.4759814739227295	38049341.90127
2.4787333011627197	38882158.80815744
2.481487512588501	39630849.52774503
