#wavelength	surface flux
0.6450077295303345	16313.323103015777
0.6472567915916443	25945.348315348638
0.6494921445846558	34474.70835787763
0.6517150402069092	40562.6831301758
0.6539263725280762	47310.1409665799
0.6561272740364075	54985.020900683434
0.6583186388015747	63502.38687373838
0.6605015397071838	72860.3843790217
0.6626768708229065	83539.23760262057
0.6648455858230591	95584.33954813561
0.6670085787773132	106352.85748893193
0.6691668033599854	108708.55198874007
0.6713210344314575	113342.38953730278
0.6734722256660461	139749.5890263574
0.6756211519241333	171722.66657788385
0.6777685880661011	193545.19243909567
0.6799154281616211	212158.85346491128
0.6820623278617859	230430.43988458902
0.6842101216316223	247865.34946362785
0.6863595843315125	261855.43603752245
0.688511312007904	269124.81688025605
0.6906660795211792	270033.0733432578
0.6928245425224304	270389.6480174396
0.6949873566627502	275335.6928427199
0.6971551775932312	285984.1539269692
0.6993286609649658	302098.79065334826
0.7015084028244019	321892.23270885256
0.7036949396133423	341870.98205793696
0.7058889269828796	359507.07345157635
0.7080909013748169	375369.5272243245
0.710301399230957	391825.2052049352
0.712520956993103	407952.275789456
0.7147500514984131	418480.7717417113
0.7169892191886902	421811.9353492427
0.7192389369010925	422919.704501807
0.7214996814727783	422776.66403227666
0.723771870136261	418366.6640797073
0.7260559797286987	410063.6322163855
0.7283523678779602	399563.7421570778
0.7306615710258484	386026.7293272296
0.7329838871955872	368838.736807555
0.7353196740150452	350951.27962301753
0.7376693487167358	333250.1715776844
0.7400332689285278	312510.0441233947
0.7424117922782898	290469.549445898
0.7448052167892456	270890.6732614066
0.7472138404846191	251665.71685083068
0.7496379613876343	229946.42050910773
0.7520779371261597	208892.43439787175
0.7545340061187744	188862.35544437726
0.7570064663887024	164098.2788682785
0.7594954967498779	130276.92506505633
0.7620013952255249	86703.57322745727
0.7645244002342224	47291.31488189665
0.7670646905899048	28395.856328868413
0.7696225643157959	29429.791357202645
0.7721980810165405	50152.874891450345
0.7747915983200073	94125.67836962981
0.7774031162261963	142063.37754781445
0.7800329327583313	183146.98398203618
0.7826811671257019	251228.9991650111
0.7853479981422424	344531.694334625
0.7880334854125977	435717.55459714046
0.7907378077507019	513822.76624724694
0.7934610247612	557306.4071532332
0.7962033748626709	650650.6869563531
0.7989648580551147	847720.8628819856
0.801745593547821	1044024.4712094705
0.8045456409454346	1207163.869945251
0.8073651194572449	1370987.2758923965
0.8102040886878967	1544509.6280300347
0.8130625486373901	1732706.9274164932
0.8159406185150146	1940118.0519603088
0.8188382983207703	2169517.14741938
0.8217556476593018	2409602.2123014308
0.8246926665306091	2669243.923415987
0.8276493549346924	2956598.423356998
0.8306257724761963	3247515.5275148195
0.8336219191551208	3537759.2943951604
0.8366377949714661	3855803.0701566054
0.8396733403205872	4218164.131858775
0.8427285552024841	4602827.550291789
0.8458034992218018	4980780.365735511
0.8488980531692505	5253021.21498163
0.8520121574401855	5497891.615201221
0.8551458716392517	6123951.858795223
0.8582990765571594	6936409.7340450445
0.8614717125892639	7560556.086572878
0.8646637797355652	8128323.4590146495
0.8678751587867737	8717703.124940518
0.8711057901382446	9343168.420459658
0.8743556141853333	10025961.703845667
0.87762451171875	10868704.864476735
0.8809124231338501	12008285.95976701
0.8842192888259888	13144804.339784088
0.8875449895858765	13811749.43602517
0.8908893465995789	13850424.830577755
0.894252359867096	13836586.532577379
0.8976338505744934	15006102.335510308
0.9010337591171265	17049722.42912162
0.9044519662857056	18923358.15765009
0.9078882932662964	20434991.259087898
0.9113426208496094	21739255.024814926
0.914814829826355	23069041.898613043
0.9183048605918884	24612007.25049334
0.9218124747276306	26482636.999638394
0.925337553024292	27008169.3333699
0.9288799166679382	25229907.997313283
0.9324395060539246	24865045.822482426
0.9360161423683167	28077689.64225865
0.9396095871925354	32557256.66611204
0.943219780921936	35594956.78283845
0.9468464851379395	36818845.27171645
0.9504896402359009	38223442.3636189
0.9541489481925964	40163206.80395462
0.9578243494033813	41855204.19601629
0.9615156054496765	43902843.2916072
0.9652225375175476	47196726.28960242
0.9689450263977051	50946252.36915248
0.9726828336715698	54127257.345329836
0.9764357805252075	57649542.22113912
0.9802037477493286	62343331.10231329
0.983986496925354	67315878.66918029
0.9877838492393494	67768684.98039375
0.9915955662727356	61956247.845616885
0.9954215884208679	59571496.94638489
0.9992615580558777	63577539.07469665
1.0031154155731201	68048350.82186149
1.0069829225540161	72215690.57667866
1.0108637809753418	76546624.97340547
1.0147579908370972	80184174.9235741
1.018665075302124	83960893.98772106
1.022585153579712	88025011.3131681
1.0265177488327026	90079435.45287734
1.0304628610610962	92981007.49479116
1.0344202518463135	99485929.66064672
1.0383895635604858	106269409.84900694
1.0423706769943237	111172294.46345669
1.0463634729385376	114491107.35199927
1.0503677129745483	116375780.39993323
1.0543830394744873	118192028.30048798
1.058409333229065	121404222.6762665
1.0624464750289917	125901324.02173968
1.0664942264556885	130485868.6390151
1.0705522298812866	135191958.65954542
1.0746204853057861	140962184.3250143
1.0786986351013184	146649313.95787016
1.0827864408493042	150568638.9976674
1.086883783340454	150354704.58641124
1.0909905433654785	143188327.93808058
1.0951062440872192	130183783.37298732
1.0992310047149658	117156591.73867244
1.10336434841156	106012954.32127328
1.1075061559677124	94196883.97505476
1.1116561889648438	82203858.08444622
1.115814208984375	73383617.29226236
1.1199802160263062	71382895.79438087
1.124153733253479	76826932.27339984
1.1283347606658936	79784008.73012707
1.1325229406356812	70976254.36280969
1.1367181539535522	64868261.68424104
1.1409201622009277	69676402.48758644
1.145128846168518	74929375.33632644
1.1493438482284546	75918346.0446395
1.1535650491714478	71058223.27727444
1.1577922105789185	66923534.95681026
1.1620250940322876	67442355.72880158
1.1662636995315552	65183740.330419324
1.170507550239563	58569847.19993944
1.174756646156311	54002073.16035459
1.1790107488632202	62437578.84787645
1.1832695007324219	84966248.27538273
1.1875330209732056	106516566.6798306
1.191800832748413	120737575.89670363
1.1960728168487549	128802546.99833007
1.2003488540649414	135457722.03936103
1.2046287059783936	147940623.70902246
1.2089121341705322	161629131.42192984
1.2131990194320679	174755249.49704447
1.2174891233444214	187886800.71969715
1.2217823266983032	197868013.4452983
1.2260783910751343	209426034.0992574
1.230377197265625	218824362.19164526
1.2346785068511963	219353447.7717103
1.238982081413269	210383942.84408247
1.2432878017425537	199255368.25430733
1.2475954294204712	196786075.00774595
1.2519049644470215	197143599.60374448
1.256216049194336	211805276.044674
1.2605286836624146	237464326.76127
1.2648425102233887	250781630.55037284
1.2691574096679688	255975792.3044108
1.2734732627868652	256331586.795086
1.2777899503707886	252813951.93492764
1.2821072340011597	247084570.4141677
1.2864248752593994	236432266.73687333
1.2907428741455078	225410655.09873196
1.2950609922409058	220200571.44328952
1.2993791103363037	218135455.96360034
1.303696870803833	214707602.7607447
1.3080145120620728	209311636.4976434
1.3123314380645752	201437008.20429
1.3166478872299194	189131003.83848006
1.3209635019302368	170592844.29713646
1.3252781629562378	142582237.60073343
1.3295916318893433	102345429.1438258
1.3339040279388428	58647815.81570444
1.3382149934768677	30080950.485666834
1.3425244092941284	19095598.30293213
1.3468321561813354	14190757.481042681
1.3511382341384888	10639132.471975695
1.3554422855377197	8388140.182124018
1.3597444295883179	7622053.130596973
1.3640443086624146	8391120.463946702
1.3683418035507202	9236474.071388176
1.3726370334625244	9590151.86318981
1.3769296407699585	10443174.894201824
1.381219506263733	10937750.581736295
1.3855066299438477	10676763.82326489
1.3897908926010132	10322973.278889613
1.3940720558166504	9669606.829891285
1.3983501195907593	9196903.944322336
1.4026249647140503	9427378.062576735
1.4068963527679443	9471054.5351754
1.4111642837524414	9431304.364333745
1.4154287576675415	9700277.659689533
1.419689416885376	9548389.092808414
1.4239463806152344	9588222.086557144
1.4281994104385376	10763953.918348601
1.4324485063552856	12307226.920993086
1.436693549156189	13420300.369405104
1.440934419631958	14196543.866567478
1.4451709985733032	15596547.225621026
1.449403166770935	18724121.585837033
1.453631043434143	22469017.92936869
1.4578542709350586	24957491.113025535
1.4620729684829712	25819474.824399848
1.4662868976593018	25862526.23121493
1.4704961776733398	26131240.73200618
1.4747005701065063	28030673.393440988
1.4788999557495117	30733326.61732616
1.4830944538116455	32302809.13933301
1.4872838258743286	33689662.29486063
1.491468071937561	35761606.99536209
1.4956470727920532	38569291.57074082
1.4998208284378052	41413368.026346035
1.5039892196655273	44058646.616784446
1.5081522464752197	47659670.96998666
1.5123097896575928	51702138.67726395
1.5164618492126465	55142744.394811064
1.5206083059310913	58982273.44844573
1.5247491598129272	63238214.882251166
1.5288842916488647	67035023.664201476
1.5330137014389038	71424234.41057822
1.5371372699737549	76779456.24681307
1.541254997253418	81979465.13616589
1.545366883277893	86966914.6180224
1.5494728088378906	91921736.6587963
1.5535727739334106	95325425.75424722
1.5576666593551636	97226987.22539183
1.561754584312439	99730972.50823106
1.5658363103866577	103803075.52908796
1.5699119567871094	108286807.13625585
1.5739814043045044	111062668.94295163
1.5780447721481323	111771662.26928715
1.582101821899414	112063053.69292197
1.5861525535583496	112374989.53930746
1.5901970863342285	110757536.41320908
1.5942351818084717	106765060.15628183
1.5982669591903687	100348514.58782592
1.6022924184799194	90842878.3536388
1.606311559677124	79874680.39250326
1.6103241443634033	69271702.26804812
1.6143304109573364	59678510.93484824
1.6183301210403442	51761437.1000088
1.6223233938217163	45413984.36390119
1.6263102293014526	40334271.31011225
1.6302905082702637	38504945.49098486
1.634264349937439	40597583.366990104
1.638231635093689	44191477.68294847
1.6421923637390137	47259984.311781116
1.646146535873413	49365113.39365357
1.6500942707061768	51299282.29577093
1.6540353298187256	51998799.18305572
1.6579699516296387	50591774.81073281
1.661897897720337	46739288.05111632
1.6658192873001099	37605134.94658626
1.6697341203689575	28236669.790627252
1.6736423969268799	27040604.182105877
1.677544116973877	32333397.825169988
1.6814392805099487	37282450.13132069
1.6853278875350952	38191584.42649974
1.6892099380493164	36195783.090972915
1.6930854320526123	33365173.056455646
1.696954369544983	31310635.934618317
1.7008168697357178	31283116.92762829
1.7046726942062378	33711195.60221939
1.708522081375122	36627645.12413802
1.712364912033081	37109827.861418314
1.7162011861801147	36524749.01555191
1.7200311422348022	37234706.09132256
1.723854422569275	37451907.96558016
1.7276713848114014	35459406.606736846
1.731481909751892	32687842.623103462
1.7352858781814575	30686273.377239306
1.7390835285186768	29800743.168754123
1.7428747415542603	29907223.543376714
1.7466596364974976	30083338.03113863
1.7504380941390991	29910488.66645426
1.7542102336883545	29208316.935608447
1.7579760551452637	27828287.93256642
1.7617355585098267	26540974.42741377
1.7654887437820435	25094498.05874339
1.7692357301712036	22780230.6316806
1.7729763984680176	21134502.06039098
1.776710867881775	20935246.707856394
1.7804391384124756	20681152.302396495
1.7841613292694092	19337590.23045615
1.7878772020339966	17627889.461721297
1.7915871143341064	16620144.946176905
1.7952908277511597	16046538.336930335
1.7989884614944458	15594566.715711916
1.8026801347732544	15110512.663032355
1.806365728378296	14692001.04784545
1.8100452423095703	15418657.261268457
1.8137187957763672	16364286.357368423
1.817386507987976	15433041.594344467
1.8210482597351074	15007059.710578406
1.8247040510177612	15632663.034404797
1.828354001045227	14970316.599359062
1.8319982290267944	13976947.91754686
1.8356364965438843	13233835.160163963
1.8392690420150757	12808821.64504337
1.8428958654403687	12587118.358307887
1.8465168476104736	12491857.38133056
1.8501322269439697	12729797.583803998
1.8537418842315674	12296698.35147739
1.8573459386825562	11107862.632620757
1.860944390296936	9927761.38543383
1.864537239074707	9560179.911094226
1.8681244850158691	10190658.2381691
1.871706247329712	11235587.027422048
1.8752825260162354	12580468.072786814
1.8788533210754395	14729532.649695134
1.8824186325073242	16869198.496301353
1.8859784603118896	17605340.610460985
1.8895330429077148	17825433.94747951
1.8930821418762207	19005551.576700576
1.8966259956359863	19949784.179740746
1.9001644849777222	19386823.494352743
1.9036977291107178	18875915.580177244
1.9072256088256836	19008342.57703824
1.9107483625411987	19661908.76999684
1.9142658710479736	20858319.668493103
1.9177782535552979	20696217.061365396
1.9212853908538818	18700510.490550015
1.9247875213623047	17419622.84704212
1.9282845258712769	17005150.91507333
1.9317764043807983	16143603.944123818
1.9352631568908691	15013810.247713765
1.9387450218200684	13547731.594409965
1.942221760749817	13584018.86277917
1.9456936120986938	15421249.752562698
1.9491604566574097	16869704.76300251
1.952622413635254	16793236.255566504
1.956079363822937	16083833.265998572
1.959531545639038	16541427.403796246
1.962978720664978	17260190.263594624
1.966421127319336	17805708.56436221
1.9698586463928223	18510218.443018246
1.9732913970947266	18937117.66285421
1.9767193794250488	19767584.650027875
1.9801424741744995	20667656.83471563
1.9835609197616577	21462315.749526344
1.9869745969772339	21932778.9937931
1.990383505821228	21715491.384502422
1.9937876462936401	22735836.14090323
1.9971871376037598	24340203.412964854
2.000581979751587	25215041.811127435
2.003972291946411	25890917.780696854
2.007357597351074	26292430.23139537
2.0107386112213135	27052201.1478633
2.0141148567199707	27996032.921332702
2.017486572265625	28492270.25624804
2.0208535194396973	30047542.030920323
2.0242159366607666	31778601.777198978
2.027573823928833	31934201.09754113
2.0309269428253174	32213895.60235367
2.034275770187378	33428464.317582585
2.0376198291778564	34770541.21764325
2.040959596633911	35854968.48984359
2.044294595718384	36863005.35187306
2.0476250648498535	37644591.113222465
2.0509510040283203	37922298.21301832
2.054272413253784	38470394.7652385
2.057589530944824	39796148.67681453
2.0609018802642822	40683871.95265899
2.0642096996307373	40738543.09379996
2.0675129890441895	41237911.2185629
2.0708119869232178	41921771.26686289
2.074106216430664	41918286.864179485
2.0773961544036865	41781490.76370198
2.080681324005127	41950923.52349549
2.0839622020721436	42123431.21457032
2.087238311767578	42323674.63701647
2.090510129928589	42530566.82474048
2.0937774181365967	42292358.17897935
2.0970399379730225	41777658.20737966
2.1002981662750244	41353848.88818595
2.1035518646240234	40979101.93505215
2.1068007946014404	40546864.16584641
2.1100454330444336	40035565.19606133
2.1132853031158447	39427494.82820932
2.116520881652832	38820113.91025949
2.1197516918182373	38358532.083878934
2.1229779720306396	37841838.03681771
2.12619948387146	37001265.89720698
2.1294167041778564	36012804.77281987
2.132629156112671	35214789.83283584
2.1358368396759033	34420350.07056174
2.139039993286133	33411801.505140636
2.1422386169433594	32461367.94645327
2.145432472229004	31587601.709574357
2.1486217975616455	30655209.872587204
2.151806354522705	29724547.12521862
2.1549863815307617	28721248.632844884
2.1581614017486572	27527770.644189615
2.16133189201355	26226838.533052806
2.1644976139068604	25037750.222227473
2.167658567428589	24086230.643848073
2.1708147525787354	23278349.70840164
2.173966407775879	22430879.187752545
2.1771130561828613	21510390.079084378
2.1802549362182617	20476981.929223448
2.183391809463501	19080230.721400015
2.1865241527557373	17307547.21887768
2.1896514892578125	15372160.788871964
2.1927738189697266	13255606.70554342
2.1958916187286377	10817470.820092354
2.1990041732788086	8275085.333714547
2.2021119594573975	6415360.437046272
2.2052149772644043	5770544.259535087
2.208312749862671	6114643.909711411
2.2114057540893555	6888167.186255934
2.214493751525879	7646660.960706381
2.217576742172241	8226731.913947809
2.2206547260284424	8540006.75335899
2.2237277030944824	8485224.993103378
2.2267956733703613	8025210.579718927
2.2298583984375	7387402.376008822
2.2329163551330566	6884523.698766617
2.235969066619873	6470076.187284001
2.2390167713165283	6016917.831939722
2.2420592308044434	5624044.042668984
2.2450966835021973	5350801.671900043
2.248128890991211	5129522.980293814
2.2511560916900635	4875927.62510523
2.254178285598755	4619123.720812838
2.257194995880127	4505431.1682345
2.260206699371338	4539893.372507573
2.2632133960723877	4579939.435474956
2.266214609146118	4521178.424697577
2.2692108154296875	4375258.688571711
2.2722020149230957	4262156.278474239
2.2751877307891846	4221545.080733923
2.278168201446533	4175031.2473259973
2.2811436653137207	4056224.1580444626
2.284113883972168	3846228.222055311
2.287078857421875	3580070.6377963996
2.290038824081421	3339884.2380908527
2.2929933071136475	3233662.083958995
2.295942783355713	3317473.793254697
2.298887014389038	3595986.4702729806
2.301826238632202	4110350.3396707363
2.304760217666626	4895362.558763652
2.3076889514923096	5863607.333845733
2.310612440109253	6625964.9583924385
2.3135311603546143	6375164.732802807
2.3164443969726562	5041527.722121867
2.319352865219116	3796499.4149586046
2.322256088256836	3257078.498902957
2.3251543045043945	3092779.6995513663
2.328047275543213	3004512.9407657674
2.330935478210449	2871309.9103342136
2.3338186740875244	2728405.250492466
2.3366971015930176	2676747.1418481446
2.3395702838897705	2709226.196496276
2.3424389362335205	2771148.019963486
2.3453025817871094	2843554.87226666
2.348161458969116	2936172.6070938315
2.351015567779541	3097005.894144824
2.353865146636963	3351063.009197577
2.3567099571228027	3639820.2086094306
2.3595502376556396	3924753.288559131
2.3623859882354736	4251122.0994201405
2.3652172088623047	4521611.031287097
2.368043899536133	4317936.378931207
2.370866537094116	3541167.032916536
2.3736846446990967	2823540.9780874453
2.3764986991882324	2599848.3086610106
2.3793084621429443	2719884.109687911
2.3821144104003906	3008543.3780850954
2.384916305541992	3409570.601449499
2.387714147567749	3868912.5919117816
2.3905084133148193	4286393.360141643
2.393299102783203	4604877.656481907
2.3960859775543213	4878277.733661726
2.398869514465332	5145314.298205745
2.4016497135162354	5357897.563500352
2.4044265747070312	5489656.1062387545
2.407200336456299	5641819.324980577
2.409970998764038	5884484.064177459
2.4127390384674072	6032126.137828235
2.415503978729248	5886445.51758009
2.418266534805298	5643810.339394876
2.4210267066955566	5621653.131054641
2.4237842559814453	5789442.879971943
2.426539897918701	5954226.212838318
2.429293394088745	6013964.822314412
2.4320452213287354	5898224.249491751
2.4347951412200928	5705493.91525565
2.4375438690185547	5752620.956020297
2.440291166305542	6108090.082243639
2.443037271499634	6458801.904117478
2.445782423019409	6606715.317683917
2.4485268592834473	6613700.0929468665
2.451270818710327	6567369.534700399
2.454014539718628	6587730.664508763
2.4567582607269287	6793255.500727666
2.4595019817352295	7096174.642509322
2.4622461795806885	7313939.167296955
2.4649908542633057	7391839.356813706
2.4677364826202393	7331228.2580214245
2.4704833030700684	7182795.943683166
2.473231554031372	7112954.142716405
2.4759814739227295	7222257.290881161
2.4787333011627197	7483839.804648433
2.481487512588501	7834373.293691847
