#wavelength	surface flux
0.6450077295303345	34972.762224136604
0.6472567915916443	55670.11523751549
0.6494921445846558	74038.59733233752
0.6517150402069092	87195.77170156872
0.6539263725280762	101915.66198191879
0.6561272740364075	118773.38308418228
0.6583186388015747	137659.02743552925
0.6605015397071838	158711.4601009788
0.6626768708229065	182587.21154874063
0.6648455858230591	208287.2632856799
0.6670085787773132	226155.4136088358
0.6691668033599854	216124.49191381704
0.6713210344314575	214182.8755822474
0.6734722256660461	281594.4515777226
0.6756211519241333	371865.5116370286
0.6777685880661011	432274.6648876273
0.6799154281616211	478975.09863280127
0.6820623278617859	521815.67762523144
0.6842101216316223	558488.8300773125
0.6863595843315125	581313.8027379593
0.688511312007904	582921.2405504376
0.6906660795211792	566426.1576819035
0.6928245425224304	549527.7422928372
0.6949873566627502	548286.5481785247
0.6971551775932312	563972.1001584353
0.6993286609649658	592484.2307212065
0.7015084028244019	629828.0278012756
0.7036949396133423	668070.7544558651
0.7058889269828796	700606.3367222071
0.7080909013748169	728978.2635414421
0.710301399230957	758199.8720967795
0.712520956993103	785500.382742378
0.7147500514984131	796892.6273002455
0.7169892191886902	790537.56428383
0.7192389369010925	786489.539185497
0.7214996814727783	784900.846169005
0.723771870136261	771044.7989514136
0.7260559797286987	747761.9757142857
0.7283523678779602	720820.0478394427
0.7306615710258484	686637.4475284952
0.7329838871955872	644860.9778020185
0.7353196740150452	604022.5584520884
0.7376693487167358	566616.4543392031
0.7400332689285278	526013.6856372491
0.7424117922782898	484860.41762529564
0.7448052167892456	449331.6943104238
0.7472138404846191	413323.56823604257
0.7496379613876343	369503.28542747995
0.7520779371261597	322367.58043040667
0.7545340061187744	276725.7787044115
0.7570064663887024	231417.1167352365
0.7594954967498779	186364.76185232447
0.7620013952255249	133856.72352455865
0.7645244002342224	73288.33636836799
0.7670646905899048	30987.44976541961
0.7696225643157959	23994.080597145236
0.7721980810165405	52520.43844531424
0.7747915983200073	123504.4929257431
0.7774031162261963	207458.14018321608
0.7800329327583313	281388.76059886237
0.7826811671257019	396850.5421757158
0.7853479981422424	549385.9178205074
0.7880334854125977	695226.9624931526
0.7907378077507019	817926.690948386
0.7934610247612	882911.097844082
0.7962033748626709	1033349.4762389271
0.7989648580551147	1363851.4789088657
0.801745593547821	1702601.2073709185
0.8045456409454346	1990265.7840938978
0.8073651194572449	2271582.5695640584
0.8102040886878967	2562130.790319196
0.8130625486373901	2898721.289807757
0.8159406185150146	3305148.5733684357
0.8188382983207703	3760559.507071341
0.8217556476593018	4242393.721455216
0.8246926665306091	4793228.711554102
0.8276493549346924	5413940.494550406
0.8306257724761963	6044833.635733544
0.8336219191551208	6692335.039394062
0.8366377949714661	7400433.9241088005
0.8396733403205872	8182546.939476756
0.8427285552024841	8961676.625887137
0.8458034992218018	9675714.178912567
0.8488980531692505	10120610.281409867
0.8520121574401855	10372850.645799752
0.8551458716392517	11371043.71376031
0.8582990765571594	12743693.687644884
0.8614717125892639	13588978.117051426
0.8646637797355652	14176626.805058803
0.8678751587867737	14615189.396129286
0.8711057901382446	15113570.133965485
0.8743556141853333	16121806.905772217
0.87762451171875	17789594.612959355
0.8809124231338501	19940201.856175676
0.8842192888259888	21961038.49796529
0.8875449895858765	23038334.969056588
0.8908893465995789	22783725.66457764
0.894252359867096	22524902.804785084
0.8976338505744934	24633331.903026983
0.9010337591171265	28034974.978289213
0.9044519662857056	30695115.84304114
0.9078882932662964	32947049.521465987
0.9113426208496094	35037522.162317455
0.914814829826355	36803353.40044131
0.9183048605918884	38849433.67312282
0.9218124747276306	40405583.33691954
0.925337553024292	38067591.559292495
0.9288799166679382	32327360.654887803
0.9324395060539246	29145840.806201283
0.9360161423683167	29978218.578322846
0.9396095871925354	32220719.134627167
0.943219780921936	35006493.3785849
0.9468464851379395	37159186.54493919
0.9504896402359009	38320075.73794679
0.9541489481925964	38810067.58552933
0.9578243494033813	37873114.01565213
0.9615156054496765	37204749.23902513
0.9652225375175476	38490058.406019
0.9689450263977051	39779015.97943805
0.9726828336715698	40476566.14168925
0.9764357805252075	42151439.58887308
0.9802037477493286	44631400.92970756
0.983986496925354	47489226.727080636
0.9877838492393494	49000214.68636562
0.9915955662727356	47177801.4194084
0.9954215884208679	47214850.79417582
0.9992615580558777	51138631.61907924
1.0031154155731201	55337617.936149046
1.0069829225540161	59902479.38366393
1.0108637809753418	65236599.836059645
1.0147579908370972	70023756.34918265
1.018665075302124	74225228.98738638
1.022585153579712	77203412.60091016
1.0265177488327026	77268604.99009778
1.0304628610610962	78938776.10284197
1.0344202518463135	85294701.47947527
1.0383895635604858	92556164.13289939
1.0423706769943237	96128040.13210164
1.0463634729385376	93218043.52209535
1.0503677129745483	86902751.04462372
1.0543830394744873	82540496.00739203
1.058409333229065	81636575.53250684
1.0624464750289917	84583456.17144658
1.0664942264556885	89232728.02300325
1.0705522298812866	93536073.71760082
1.0746204853057861	99867333.58744135
1.0786986351013184	108450897.5868045
1.0827864408493042	115687604.34403503
1.086883783340454	116204601.42600316
1.0909905433654785	107064614.06191972
1.0951062440872192	94127620.54324207
1.0992310047149658	85669559.67942427
1.10336434841156	80615651.46742362
1.1075061559677124	74944189.45833744
1.1116561889648438	69094399.99857835
1.115814208984375	64202356.944146894
1.1199802160263062	62254985.95027892
1.124153733253479	64887375.12106176
1.1283347606658936	66244318.81777778
1.1325229406356812	60311766.72857007
1.1367181539535522	54731525.81731406
1.1409201622009277	55277572.41937936
1.145128846168518	58223814.29413879
1.1493438482284546	60035656.131996065
1.1535650491714478	57628188.00315584
1.1577922105789185	55972157.39014317
1.1620250940322876	58234157.39193893
1.1662636995315552	57894103.338325806
1.170507550239563	53594819.83882287
1.174756646156311	49625271.977215454
1.1790107488632202	52351799.52169988
1.1832695007324219	61407683.47726348
1.1875330209732056	68926386.94964615
1.191800832748413	74718989.70768832
1.1960728168487549	79687686.33668108
1.2003488540649414	84510757.86529624
1.2046287059783936	91788544.95979717
1.2089121341705322	99444434.1842159
1.2131990194320679	107702148.86876144
1.2174891233444214	116489064.82069273
1.2217823266983032	124607735.56963126
1.2260783910751343	134779319.31898624
1.230377197265625	144060608.00631738
1.2346785068511963	149078873.67500794
1.238982081413269	147835034.25002587
1.2432878017425537	144695241.77132484
1.2475954294204712	148016653.13757688
1.2519049644470215	150836869.29356125
1.256216049194336	157504902.5465717
1.2605286836624146	169206352.24415433
1.2648425102233887	176959868.77124405
1.2691574096679688	183278032.1756859
1.2734732627868652	186920317.9160051
1.2777899503707886	189205227.43939233
1.2821072340011597	188381871.76147556
1.2864248752593994	180325171.93836692
1.2907428741455078	172442847.2629772
1.2950609922409058	170224804.1884324
1.2993791103363037	169457004.9527954
1.303696870803833	165987463.97745305
1.3080145120620728	159710348.15770733
1.3123314380645752	153165157.6297595
1.3166478872299194	144890381.91705665
1.3209635019302368	132085674.478669
1.3252781629562378	114420794.07007645
1.3295916318893433	87810468.7874983
1.3339040279388428	56775113.61724715
1.3382149934768677	36131938.44922092
1.3425244092941284	27378798.201132067
1.3468321561813354	22979513.702004883
1.3511382341384888	19572244.95738369
1.3554422855377197	16504614.314222274
1.3597444295883179	14598452.250249412
1.3640443086624146	14460698.264990462
1.3683418035507202	14549843.55462742
1.3726370334625244	13808591.256363688
1.3769296407699585	13783617.536416424
1.381219506263733	14385341.268318202
1.3855066299438477	14757246.79843926
1.3897908926010132	14756161.881917145
1.3940720558166504	14185920.070632761
1.3983501195907593	13643052.65573255
1.4026249647140503	13524385.572174413
1.4068963527679443	13158139.450612264
1.4111642837524414	12821916.020180117
1.4154287576675415	12714926.345206894
1.419689416885376	12407983.178462202
1.4239463806152344	12419881.431910476
1.4281994104385376	13030997.35896934
1.4324485063552856	13827921.771592438
1.436693549156189	14752937.524820313
1.440934419631958	15664287.250530869
1.4451709985733032	16720818.71561816
1.449403166770935	18949927.311929982
1.453631043434143	21664468.993697006
1.4578542709350586	23145419.33388811
1.4620729684829712	23461138.143672433
1.4662868976593018	23329778.477895286
1.4704961776733398	23321159.626371674
1.4747005701065063	24635353.184182122
1.4788999557495117	26556445.012604352
1.4830944538116455	27856472.559051502
1.4872838258743286	29249030.651339952
1.491468071937561	30707463.479116928
1.4956470727920532	32439788.94721616
1.4998208284378052	34133006.593906984
1.5039892196655273	35193541.5789661
1.5081522464752197	37248095.26357959
1.5123097896575928	40514314.06929613
1.5164618492126465	43115518.02548159
1.5206083059310913	44907083.745370604
1.5247491598129272	46694101.893499
1.5288842916488647	48463845.016791485
1.5330137014389038	50246319.981885016
1.5371372699737549	52829177.81450988
1.541254997253418	56222673.78375391
1.545366883277893	59753699.564692825
1.5494728088378906	62886141.59585266
1.5535727739334106	64196007.058631584
1.5576666593551636	63887894.088538386
1.561754584312439	65362206.93121605
1.5658363103866577	70268715.56428722
1.5699119567871094	76085325.25654356
1.5739814043045044	79873744.18724538
1.5780447721481323	81382106.85940212
1.582101821899414	83767363.28670551
1.5861525535583496	87831108.04699259
1.5901970863342285	90430930.76101162
1.5942351818084717	92152089.70021035
1.5982669591903687	92490193.39451872
1.6022924184799194	90058228.01513469
1.606311559677124	86928452.43958478
1.6103241443634033	83037860.17521553
1.6143304109573364	78643537.88341098
1.6183301210403442	74487446.53746606
1.6223233938217163	70219457.36827163
1.6263102293014526	66521602.58709421
1.6302905082702637	65360652.13882439
1.634264349937439	67890009.19152258
1.638231635093689	72625281.7588361
1.6421923637390137	77027128.11836874
1.646146535873413	80517413.45110543
1.6500942707061768	83494321.54790464
1.6540353298187256	84577632.69474705
1.6579699516296387	83488993.70507298
1.661897897720337	80890846.81622471
1.6658192873001099	73123554.60930975
1.6697341203689575	61805212.77396335
1.6736423969268799	57877440.361103676
1.677544116973877	64510325.757097706
1.6814392805099487	72599658.62197684
1.6853278875350952	74651613.31089294
1.6892099380493164	71290484.23706715
1.6930854320526123	65269655.5509994
1.696954369544983	59667102.608419254
1.7008168697357178	57934039.319591954
1.7046726942062378	60062168.716915876
1.708522081375122	61647636.0967635
1.712364912033081	59141622.66151087
1.7162011861801147	55317617.80670177
1.7200311422348022	54098672.82436491
1.723854422569275	53842738.88882696
1.7276713848114014	51160232.53742061
1.731481909751892	47029366.40382811
1.7352858781814575	44208575.11256167
1.7390835285186768	43202253.43039363
1.7428747415542603	43333609.01050777
1.7466596364974976	43456128.538993
1.7504380941390991	43387220.519541755
1.7542102336883545	42940916.59797369
1.7579760551452637	41337704.29244147
1.7617355585098267	39211843.98835764
1.7654887437820435	36817003.33167139
1.7692357301712036	33472895.06735022
1.7729763984680176	31188980.31304515
1.776710867881775	31179231.36523165
1.7804391384124756	31344823.967309788
1.7841613292694092	29892021.99863542
1.7878772020339966	27253929.10025652
1.7915871143341064	25392840.867449984
1.7952908277511597	24930735.22465473
1.7989884614944458	24899273.721345276
1.8026801347732544	24506881.643077888
1.806365728378296	24000650.61765878
1.8100452423095703	24880869.389504638
1.8137187957763672	26463916.05210787
1.817386507987976	25758529.91496627
1.8210482597351074	24654173.662276525
1.8247040510177612	24862562.175153017
1.828354001045227	24677323.481034726
1.8319982290267944	23949113.377716865
1.8356364965438843	23055389.476528157
1.8392690420150757	22494651.244543593
1.8428958654403687	21647147.726681005
1.8465168476104736	20858501.757013205
1.8501322269439697	21046547.89149772
1.8537418842315674	20757472.62567464
1.8573459386825562	19463059.915226668
1.860944390296936	18286683.544807933
1.864537239074707	18528856.933442343
1.8681244850158691	20091299.72951755
1.871706247329712	21258644.696525656
1.8752825260162354	21540178.554326937
1.8788533210754395	22617470.18489294
1.8824186325073242	24686142.868572745
1.8859784603118896	25795611.677391194
1.8895330429077148	25446804.20467062
1.8930821418762207	25049717.460270245
1.8966259956359863	25449448.05822858
1.9001644849777222	25973666.236237105
1.9036977291107178	26468017.789336957
1.9072256088256836	26931855.740185082
1.9107483625411987	27699054.54607544
1.9142658710479736	28836189.077131134
1.9177782535552979	28402457.840483822
1.9212853908538818	26820171.983945183
1.9247875213623047	26594282.98064969
1.9282845258712769	26877885.045785334
1.9317764043807983	26171019.921058025
1.9352631568908691	25023886.04594032
1.9387450218200684	23585028.781042032
1.942221760749817	23596891.57783998
1.9456936120986938	25397491.070743248
1.9491604566574097	26425710.0416253
1.952622413635254	25745563.715911333
1.956079363822937	24906675.19024068
1.959531545639038	25583009.390919566
1.962978720664978	26204192.598579198
1.966421127319336	26226827.883627504
1.9698586463928223	26767682.394025072
1.9732913970947266	27093483.983586673
1.9767193794250488	27442307.588158313
1.9801424741744995	27745132.333035536
1.9835609197616577	27580089.35443073
1.9869745969772339	27361621.254262086
1.990383505821228	27395226.140176892
1.9937876462936401	28631886.002946973
1.9971871376037598	29698332.908730995
2.000581979751587	29722061.539323095
2.003972291946411	29883716.364705205
2.007357597351074	30484853.48882704
2.0107386112213135	31555618.395372152
2.0141148567199707	32294611.477670673
2.017486572265625	32405694.74297308
2.0208535194396973	33476958.238241773
2.0242159366607666	35007365.23927857
2.027573823928833	35588258.035732985
2.0309269428253174	35965255.19107954
2.034275770187378	36623007.616757356
2.0376198291778564	37672996.74551193
2.040959596633911	38977269.79714735
2.044294595718384	40244854.215425946
2.0476250648498535	41147657.356062904
2.0509510040283203	41289219.31288503
2.054272413253784	41525426.66736362
2.057589530944824	42789504.060586594
2.0609018802642822	43767793.00079548
2.0642096996307373	43961095.92498208
2.0675129890441895	45057218.33860511
2.0708119869232178	46417809.76150249
2.074106216430664	46878470.76833794
2.0773961544036865	47168358.002782404
2.080681324005127	47477131.66816986
2.0839622020721436	47558582.68861763
2.087238311767578	47841112.27040018
2.090510129928589	48503042.32926423
2.0937774181365967	48964415.1653589
2.0970399379730225	49095050.35279487
2.1002981662750244	49203489.27121687
2.1035518646240234	49278028.17238058
2.1068007946014404	49206672.14188076
2.1100454330444336	49171201.60188811
2.1132853031158447	49155096.08424596
2.116520881652832	49047060.68071677
2.1197516918182373	48964657.00919596
2.1229779720306396	48673667.88323301
2.12619948387146	47865441.7074812
2.1294167041778564	46949562.22716099
2.132629156112671	46549240.12725748
2.1358368396759033	46151508.91456545
2.139039993286133	45217476.593767494
2.1422386169433594	44321361.92644529
2.145432472229004	43536700.19964928
2.1486217975616455	42496562.22407043
2.151806354522705	41283931.44863782
2.1549863815307617	40010136.42798651
2.1581614017486572	38621303.719527885
2.16133189201355	37110387.45331108
2.1644976139068604	35646142.509719476
2.167658567428589	34375886.75136806
2.1708147525787354	33240486.918313235
2.173966407775879	32068861.621391803
2.1771130561828613	30806911.172368173
2.1802549362182617	29365908.90158181
2.183391809463501	27445242.669272076
2.1865241527557373	25039553.707602754
2.1896514892578125	22418376.223697122
2.1927738189697266	19581250.707284987
2.1958916187286377	16284246.779968236
2.1990041732788086	12642043.3869509
2.2021119594573975	9563300.116759242
2.2052149772644043	7887837.803052918
2.208312749862671	7701232.029348349
2.2114057540893555	8585135.859080493
2.214493751525879	9907004.705123182
2.217576742172241	11076611.410680834
2.2206547260284424	11712708.100927942
2.2237277030944824	11726834.637119435
2.2267956733703613	11268763.34631955
2.2298583984375	10604188.628361763
2.2329163551330566	9923811.621721607
2.235969066619873	9214662.241182368
2.2390167713165283	8478036.453098709
2.2420592308044434	7872482.460245489
2.2450966835021973	7418281.936376486
2.248128890991211	6994833.645817405
2.2511560916900635	6573348.877781235
2.254178285598755	6227148.141032321
2.257194995880127	6048742.580421852
2.260206699371338	6001327.275720696
2.2632133960723877	5939889.810556258
2.266214609146118	5760314.278287679
2.2692108154296875	5505369.914486497
2.2722020149230957	5352710.883739564
2.2751877307891846	5278496.570984529
2.278168201446533	5069060.58783291
2.2811436653137207	4725617.601330833
2.284113883972168	4377976.723963246
2.287078857421875	4056366.958993896
2.290038824081421	3781755.5655196337
2.2929933071136475	3632803.565224963
2.295942783355713	3676601.556335821
2.298887014389038	3952428.2949055852
2.301826238632202	4499198.923673193
2.304760217666626	5321043.378393488
2.3076889514923096	6306611.25500987
2.310612440109253	7098438.697191692
2.3135311603546143	7009421.001445299
2.3164443969726562	5929775.846939398
2.319352865219116	4735344.736012275
2.322256088256836	3979899.6339981793
2.3251543045043945	3578933.5546384193
2.328047275543213	3356201.932197567
2.330935478210449	3167226.432766746
2.3338186740875244	3021054.606479073
2.3366971015930176	3001480.7692427607
2.3395702838897705	3092669.521897789
2.3424389362335205	3232280.201874992
2.3453025817871094	3386188.126859938
2.348161458969116	3544676.550591931
2.351015567779541	3734635.3041826766
2.353865146636963	3978319.997369259
2.3567099571228027	4259734.269865768
2.3595502376556396	4574032.192656876
2.3623859882354736	4955416.971470013
2.3652172088623047	5295340.420296371
2.368043899536133	5181456.915939128
2.370866537094116	4479579.350036935
2.3736846446990967	3700059.719553932
2.3764986991882324	3248084.1819255725
2.3793084621429443	3147693.906465523
2.3821144104003906	3344821.330129967
2.384916305541992	3748053.111906892
2.387714147567749	4270100.40818442
2.3905084133148193	4828548.761586681
2.393299102783203	5351256.122257804
2.3960859775543213	5775408.502494947
2.398869514465332	6077475.0350226555
2.4016497135162354	6338161.561679405
2.4044265747070312	6621561.280850996
2.407200336456299	6878638.316142994
2.409970998764038	7044011.320594208
2.4127390384674072	7094899.376412579
2.415503978729248	7030540.973134951
2.418266534805298	6931064.360811796
2.4210267066955566	6904590.986385454
2.4237842559814453	6961815.866128264
2.426539897918701	7066116.794477151
2.429293394088745	7132048.494684346
2.4320452213287354	7020544.26142398
2.4347951412200928	6812743.735375127
2.4375438690185547	6853673.997813823
2.440291166305542	7230848.155065148
2.443037271499634	7643139.939034767
2.445782423019409	7894911.510219534
2.4485268592834473	8022567.2478011
2.451270818710327	8088929.017231754
2.454014539718628	8197681.430811982
2.4567582607269287	8453738.024022268
2.4595019817352295	8789874.965925084
2.4622461795806885	9062408.733890137
2.4649908542633057	9239027.395044403
2.4677364826202393	9344516.98411449
2.4704833030700684	9406203.14655905
2.473231554031372	9480452.382105114
2.4759814739227295	9614141.892700048
2.4787333011627197	9860459.802457962
2.481487512588501	10237634.311545774
2.4842441082000732	10522149.726094948
