#wavelength	surface flux
0.01	7.426162559071949e-94
0.0101	7.939576266859637e-94
0.010201	8.458124111725206e-94
0.010303010000000001	8.981857435039436e-94
0.0104060401	9.510828091586793e-94
0.010510100501000002	1.0045088454699642e-93
0.01061520150601	1.0584691421443605e-93
0.010721353521070101	1.1129690417855017e-93
0.010828567056280802	1.1680139404230534e-93
0.010936852726843608	1.2236092880469801e-93
0.011046221254112046	1.2560299636948851e-93
0.011156683466653166	1.2560299636948851e-93
0.011268250301319697	1.2560299636948851e-93
0.011380932804332895	1.2560299636948851e-93
0.011494742132376225	1.2560299636948851e-93
0.011609689553699986	1.2560299636948851e-93
0.011725786449236988	1.2560299636948851e-93
0.011843044313729357	1.2560299636948851e-93
0.01196147475686665	1.2560299636948851e-93
0.012081089504435316	1.2560299636948851e-93
0.012201900399479671	1.2560299636948851e-93
0.012323919403474468	1.2560299636948851e-93
0.012447158597509212	1.2560299636948851e-93
0.012571630183484304	1.2560299636948851e-93
0.012697346485319148	1.2560299636948851e-93
0.012824319950172339	1.2560299636948851e-93
0.012952563149674063	1.2560299636948851e-93
0.013082088781170804	1.2560299636948851e-93
0.013212909668982512	1.2560299636948851e-93
0.013345038765672336	1.2560299636948851e-93
0.013478489153329061	1.2560299636948851e-93
0.013613274044862352	1.2560299636948851e-93
0.013749406785310975	1.2560299636948851e-93
0.013886900853164083	1.2560299636948851e-93
0.014025769861695726	1.2560299636948851e-93
0.014166027560312683	1.2560299636948851e-93
0.01430768783591581	1.2560299636948851e-93
0.014450764714274969	1.2560299636948851e-93
0.014595272361417718	1.2560299636948851e-93
0.014741225085031895	1.2560299636948851e-93
0.014888637335882214	1.2560299636948851e-93
0.015037523709241036	1.2560299636948851e-93
0.015187898946333447	1.2560299636948851e-93
0.015339777935796781	1.2560299636948851e-93
0.015493175715154751	1.2560299636948851e-93
0.015648107472306296	1.2560299636948851e-93
0.01580458854702936	1.2560299636948851e-93
0.015962634432499654	1.2560299636948851e-93
0.016122260776824653	1.2560299636948851e-93
0.016283483384592897	1.2560299636948851e-93
0.016446318218438827	1.2560299636948851e-93
0.016610781400623217	1.2560299636948851e-93
0.016776889214629446	1.2560299636948851e-93
0.016944658106775742	1.2560299636948851e-93
0.0171141046878435	1.2560299636948851e-93
0.017285245734721934	1.2560299636948851e-93
0.017458098192069154	1.2560299636948851e-93
0.017632679173989845	1.2560299636948851e-93
0.017809005965729745	1.2560299636948851e-93
0.01798709602538704	1.2560299636948851e-93
0.018166966985640912	1.2560299636948851e-93
0.01834863665549732	1.2560299636948851e-93
0.018532123022052295	1.2560299636948851e-93
0.01871744425227282	1.2560299636948851e-93
0.01890461869479555	1.2560299636948851e-93
0.0190936648817435	1.2560299636948851e-93
0.019284601530560937	1.2560299636948851e-93
0.01947744754586655	1.2560299636948851e-93
0.019672222021325212	1.2560299636948851e-93
0.019868944241538466	1.2560299636948851e-93
0.020067633683953853	1.2560299636948851e-93
0.02026831002079339	1.2560299636948851e-93
0.020470993121001323	1.2560299636948851e-93
0.020675703052211336	1.2560299636948851e-93
0.02088246008273345	1.2560299636948851e-93
0.021091284683560786	1.2560299636948851e-93
0.021302197530396395	1.2560299636948851e-93
0.02151521950570036	1.2560299636948851e-93
0.02173037170075736	1.2560299636948851e-93
0.02194767541776493	1.2560299636948851e-93
0.022167152171942584	1.2560299636948851e-93
0.022388823693662012	1.2560299636948851e-93
0.02261271193059863	1.2560299636948851e-93
0.022838839049904615	1.2560299636948851e-93
0.023067227440403664	1.2560299636948851e-93
0.0232978997148077	1.2560299636948851e-93
0.023530878711955777	1.2560299636948851e-93
0.023766187499075334	1.2560299636948851e-93
0.024003849374066088	1.2560299636948851e-93
0.02424388786780675	1.2560299636948851e-93
0.024486326746484814	1.2560299636948851e-93
0.024731190013949664	1.2560299636948851e-93
0.024978501914089166	1.2560299636948851e-93
0.025228286933230055	1.2560299636948851e-93
0.02548056980256236	1.2560299636948851e-93
0.025735375500587982	1.2560299636948851e-93
0.025992729255593858	1.2560299636948851e-93
0.0262526565481498	1.2560299636948851e-93
0.026515183113631293	1.2560299636948851e-93
0.02678033494476761	1.2560299636948851e-93
0.027048138294215287	1.2560299636948851e-93
0.02731861967715744	1.2560299636948851e-93
0.027591805873929013	1.2560299636948851e-93
0.027867723932668304	1.2560299636948851e-93
0.02814640117199499	1.2560299636948851e-93
0.028427865183714936	1.2560299636948851e-93
0.02871214383555209	1.2560299636948851e-93
0.028999265273907608	1.2560299636948851e-93
0.029289257926646682	1.2560299636948851e-93
0.029582150505913153	1.2560299636948851e-93
0.02987797201097228	1.2560299636948851e-93
0.030176751731082006	1.2560299636948851e-93
0.030478519248392826	1.2560299636948851e-93
0.030783304440876753	1.2560299636948851e-93
0.031091137485285525	1.2560299636948851e-93
0.03140204886013838	1.2560299636948851e-93
0.03171606934873976	1.2560299636948851e-93
0.03203323004222716	1.2560299636948851e-93
0.03235356234264943	1.2560299636948851e-93
0.03267709796607593	1.2560299636948851e-93
0.03300386894573669	1.2560299636948851e-93
0.03333390763519405	1.2560299636948851e-93
0.033667246711545994	1.2560299636948851e-93
0.034003919178661454	1.2560299636948851e-93
0.03434395837044807	1.2560299636948851e-93
0.03468739795415255	1.2560299636948851e-93
0.03503427193369407	1.2560299636948851e-93
0.03538461465303102	1.2560299636948851e-93
0.03573846079956133	1.2560299636948851e-93
0.03609584540755694	1.2560299636948851e-93
0.03645680386163251	1.2560299636948851e-93
0.03682137190024883	1.2560299636948851e-93
0.03718958561925133	1.2560299636948851e-93
0.03756148147544384	1.2560299636948851e-93
0.03793709629019828	1.2560299636948851e-93
0.03831646725310026	1.2560299636948851e-93
0.038699631925631264	1.2560299636948851e-93
0.039086628244887574	1.2560299636948851e-93
0.039477494527336454	1.2560299636948851e-93
0.03987226947260982	1.2560299636948851e-93
0.04027099216733592	1.2560299636948851e-93
0.04067370208900927	1.2560299636948851e-93
0.04108043910989937	1.2560299636948851e-93
0.04149124350099836	1.2560299636948851e-93
0.04190615593600835	1.2560299636948851e-93
0.042325217495368425	1.2560299636948851e-93
0.04274846967032212	1.2560299636948851e-93
0.043175954367025336	1.2560299636948851e-93
0.04360771391069559	1.2560299636948851e-93
0.04404379104980254	1.2560299636948851e-93
0.04448422896030057	1.2560299636948851e-93
0.04492907124990358	1.2560299636948851e-93
0.04537836196240262	1.2560299636948851e-93
0.04583214558202665	1.2560299636948851e-93
0.04629046703784691	1.2560299636948851e-93
0.046753371708225376	1.2560299636948851e-93
0.04722090542530763	1.2560299636948851e-93
0.047693114479560705	1.2560299636948851e-93
0.04817004562435631	1.2560299636948851e-93
0.04865174608059988	1.2560299636948851e-93
0.04913826354140587	1.2560299636948851e-93
0.04962964617681994	1.2560299636948851e-93
0.05012594263858814	1.2560299636948851e-93
0.05062720206497402	1.2560299636948851e-93
0.05113347408562376	1.2560299636948851e-93
0.051644808826479996	1.2560299636948851e-93
0.0521612569147448	1.2560299636948851e-93
0.052682869483892246	1.2560299636948851e-93
0.05320969817873117	1.2560299636948851e-93
0.05374179516051848	1.2560299636948851e-93
0.054279213112123664	1.2560299636948851e-93
0.0548220052432449	1.2560299636948851e-93
0.05537022529567735	1.2560299636948851e-93
0.05592392754863413	1.2560299636948851e-93
0.056483166824120475	1.2560299636948851e-93
0.057047998492361675	1.2560299636948851e-93
0.057618478477285295	1.2560299636948851e-93
0.05819466326205815	1.2560299636948851e-93
0.05877660989467873	1.2560299636948851e-93
0.05936437599362551	1.2560299636948851e-93
0.05995801975356178	1.2560299636948851e-93
0.06055759995109739	1.2560299636948851e-93
0.06116317595060837	1.2560299636948851e-93
0.061774807710114454	1.2560299636948851e-93
0.062392555787215594	1.2560299636948851e-93
0.06301648134508775	1.2560299636948851e-93
0.06364664615853863	1.2560299636948851e-93
0.06428311262012401	1.2560299636948851e-93
0.06492594374632525	1.2560299636948851e-93
0.06557520318378851	1.2560299636948851e-93
0.0662309552156264	1.2560299636948851e-93
0.06689326476778266	1.2560299636948851e-93
0.06756219741546049	1.2560299636948851e-93
0.0682378193896151	1.2560299636948851e-93
0.06892019758351124	1.2560299636948851e-93
0.06960939955934635	1.2560299636948851e-93
0.07030549355493981	1.2560299636948851e-93
0.07100854849048922	1.2560299636948851e-93
0.07171863397539412	1.2560299636948851e-93
0.07243582031514804	1.2560299636948851e-93
0.07316017851829953	1.2560299636948851e-93
0.07389178030348253	1.2560299636948851e-93
0.07463069810651736	1.2560299636948851e-93
0.07537700508758254	1.2560299636948851e-93
0.07613077513845835	1.2560299636948851e-93
0.07689208288984294	1.2560299636948851e-93
0.07766100371874136	1.7804182894340163e-69
0.07843761375592878	4.302168518414199e-53
0.07922198989348807	3.803194253658444e-52
0.08001420979242296	1.353436657107922e-51
0.08081435189034718	4.9500906541156015e-52
0.08162249540925066	2.6213364487019947e-49
0.08243872036334317	3.6069304166689586e-48
0.08326310756697661	1.3251448636870605e-47
0.08409573864264637	2.629072844466868e-47
0.08493669602907282	3.834659267161677e-48
0.08578606298936356	4.5873540404290744e-49
0.0866439236192572	1.2560299636948851e-93
0.08751036285544977	1.2560299636948851e-93
0.08838546648400426	1.2560299636948851e-93
0.08926932114884432	1.2560299636948851e-93
0.09016201436033276	1.2560299636948851e-93
0.09106363450393609	1.2560299636948851e-93
0.09197427084897544	1.2560299636948851e-93
0.0928940135574652	1.2560299636948851e-93
0.09382295369303986	1.2560299636948851e-93
0.09476118322997025	1.3746291844132178e-93
0.09570879506226997	2.5492923415330107e-93
0.09666588301289265	4.155372155016947e-93
0.09763254184302157	2.5502810538420116e-92
0.09860886726145181	8.91901873921872e-85
0.09959495593406631	1.037703829747793e-83
0.10059090549340699	7.606519070640926e-84
0.10159681454834106	5.998974475340689e-85
0.10261278269382446	3.939170584568979e-89
0.10363891052076271	2.4278120480699953e-89
0.10467529962597034	2.6096540376602717e-90
0.10572205262223004	8.326309723695064e-90
0.10677927314845236	2.3198356055676293e-82
0.10784706587993687	6.912693136198551e-77
0.10892553653873624	7.421103869740442e-76
0.1100147919041236	8.075689548487953e-77
0.11111493982316484	2.7048768783429076e-70
0.1122260892213965	9.705334200360439e-69
0.11334835011361045	9.372015640649011e-68
0.11448183361474655	6.856617786776738e-67
0.11562665195089401	4.224710293007314e-66
0.11678291847040295	2.3860395543230226e-65
0.117950747655107	1.351209622035237e-64
0.11913025513165806	9.354829594069243e-64
0.12032155768297464	6.053833127898868e-63
0.1215247732598044	3.461529377202669e-62
0.12274002099240244	1.8146945659973312e-61
0.12396742120232647	8.966689649779472e-61
0.12520709541434974	5.23762013630424e-60
0.12645916636849325	2.0153493587811436e-59
0.12772375803217817	1.4898842576662776e-58
0.12900099561249995	7.07750339328674e-58
0.13029100556862497	4.305006880948341e-57
0.1315939156243112	2.135561681823106e-56
0.1329098547805543	9.321628940761476e-56
0.13423895332835986	4.965094133533937e-55
0.13558134286164344	2.3490116695464757e-54
0.1369371562902599	9.73415498186647e-54
0.1383065278531625	4.960453792294134e-53
0.13968959313169413	2.1408668501368757e-52
0.14108648906301105	8.957896503768081e-52
0.1424973539536412	4.171804862603643e-51
0.14392232749317757	1.611310938115646e-50
0.14536155076810936	7.353364660050493e-50
0.14681516627579044	2.838790561574685e-49
0.14828331793854838	1.2000033861770342e-48
0.14976615111793384	4.6016027547186655e-48
0.15126381262911318	1.8430932130621527e-47
0.15277645075540433	6.850538942887718e-47
0.15430421526295837	2.671646850393372e-46
0.15584725741558797	9.509044595720316e-46
0.15740572998974384	3.6456790386363866e-45
0.15897978728964127	1.2160772577025103e-44
0.1605695851625377	4.609972930068795e-44
0.16217528101416306	1.5772698376097652e-43
0.16379703382430472	5.392069117091565e-43
0.16543500416254772	1.8819238230526165e-42
0.16708935420417323	6.050069890475213e-42
0.16876024774621495	2.0237148874674424e-41
0.17044785022367712	6.697990718251395e-41
0.17215232872591388	2.0933043097265453e-40
0.173873852013173	6.536537585317652e-40
0.17561259053330475	2.083791328803693e-39
0.1773687164386378	6.427752354259878e-39
0.1791424036030242	1.9088967239268836e-38
0.1809338276390544	5.604554452521445e-38
0.18274316591544498	1.6901962528214186e-37
0.18457059757459943	4.975386743611279e-37
0.1864163035503454	1.4268405945363184e-36
0.18828046658584888	4.031757629198581e-36
0.19016327125170737	1.1145155203361319e-35
0.19206490396422443	3.0293563014668395e-35
0.1939855530038667	8.180535630615744e-35
0.19592540853390536	2.218004667702734e-34
0.19788466261924442	5.950238070423445e-34
0.19986350924543686	1.5649307467388375e-33
0.2018621443378912	4.070422482263869e-33
0.20388076578127012	1.0771534821116447e-32
0.20591957343908285	2.838773139317896e-32
0.20797876917347366	7.423899430884812e-32
0.21005855686520844	1.9500320348776164e-31
0.2121591424338605	4.989494249534834e-31
0.21428073385819912	1.3166856367672492e-30
0.21642354119678112	3.406459881296479e-30
0.2185877766087489	8.760219602819804e-30
0.2207736543748364	2.243368495129565e-29
0.22298139091858477	5.721882051019841e-29
0.2252112048277706	1.4510067073790922e-28
0.22746331687604834	3.661143508424872e-28
0.22973795004480882	9.180595110830716e-28
0.23203532954525688	2.2878401499041736e-27
0.23435568284070946	5.668327679749211e-27
0.23669923966911657	1.336898014627806e-26
0.2390662320658077	3.3946204111160016e-26
0.2414568943864658	7.298517324258343e-26
0.2438714633303305	1.9679505026724092e-25
0.24631017796363378	4.6792955045568435e-25
0.24877327974327013	1.0912499423343703e-24
0.2512610125407028	2.5715926052399626e-24
0.25377362266610987	5.9539662437913245e-24
0.25631135889277096	1.3664692453223174e-23
0.25887447248169865	3.107351051434878e-23
0.26146321720651566	7.001391631211688e-23
0.2640778493785808	1.5609356911117597e-22
0.2667186278723666	3.4498094858115973e-22
0.2693858141510903	7.549527564821055e-22
0.2720796722926012	1.6372985855997299e-21
0.27480046901552724	3.5148228456196695e-21
0.27754847370568253	7.47336140080246e-21
0.28032395844273933	1.5737912770787728e-20
0.28312719802716674	3.2785894057995545e-20
0.2859584700074384	6.769319995908675e-20
0.28881805470751276	1.3817034165784494e-19
0.2917062352545879	2.795240669255334e-19
0.2946232976071338	5.597204719963485e-19
0.2975695305832051	1.0992547368724335e-18
0.30054522588903715	2.1779661950849474e-18
0.3035506781479275	4.2366353880151516e-18
0.3065861849294068	8.172411334634718e-18
0.3096520467787009	1.570635156094986e-17
0.3127485672464879	3.0114688776926095e-17
0.3158760529189528	5.766724298961642e-17
0.31903481344814233	1.1164414342691013e-16
0.3222251615826237	2.170532250575588e-16
0.32544741319844994	4.2709518996106637e-16
0.3287018873304345	8.507551006012005e-16
0.33198890620373883	1.70875075186831e-15
0.3353087952657762	3.4435117790594884e-15
0.338661883218434	6.928766636577964e-15
0.3420485020506183	1.3845256056722418e-14
0.34546898707112456	2.7375846149872066e-14
0.3489236769418358	5.331477926360073e-14
0.35241291371125416	9.672756550281763e-14
0.3559370428483667	1.8980334708712656e-13
0.3594964132768504	3.4506607542546863e-13
0.3630913774096189	6.142860214660507e-13
0.3667222911837151	1.0761498385492248e-12
0.37038951409555215	1.865068629619459e-12
0.37409340923650775	3.2157616623090075e-12
0.37783434332887283	5.515364245631691e-12
0.38161268676216153	9.411599786814898e-12
0.38542881362978315	1.5979878714218447e-11
0.389283101766081	2.69975102927298e-11
0.39317593278374185	4.5378205766447636e-11
0.39710769211157926	7.586984987485919e-11
0.401078769032695	1.2609760465353467e-10
0.405089556723022	2.0830192916487032e-10
0.4091404522902522	3.4215776023288105e-10
0.4132318568131547	5.589956740356787e-10
0.4173641753812863	9.090508214261238e-10
0.42153781713509914	1.4724494014725904e-09
0.4257531953064501	2.3777854347756863e-09
0.43001072725951467	3.832345254510502e-09
0.43431083453210984	6.173372982963075e-09
0.43865394287743087	9.941825531733833e-09
0.44304048230620524	1.5995909769337908e-08
0.44747088712926725	2.5689786628675594e-08
0.45194559600055995	4.112137586031167e-08
0.4564650519605655	6.55514806711001e-08
0.4610297024801712	1.0390332208032436e-07
0.4656399995049729	1.6358546157036345e-07
0.47029639950002267	2.55519997458185e-07
0.47499936349502286	3.962403350036454e-07
0.4797493571299731	6.105412270775284e-07
0.48454685070127285	9.355350862498763e-07
0.48939231920828563	1.4269484158717748e-06
0.4942862424003685	2.1681987429049134e-06
0.4992291048243721	3.2847753512367766e-06
0.5042213958726158	4.964448828191664e-06
0.509263609831342	7.48461136021241e-06
0.5143562459296555	1.1249887718392968e-05
0.519499808388952	1.684949044026508e-05
0.5246948064728415	2.5132177772892787e-05
0.52994175453757	3.731118797154106e-05
0.5352411720829456	5.509723711494678e-05
0.5405935838037751	8.089829835566249e-05
0.5459995196418129	0.0001180417960722832
0.551459514838231	0.00017110138088461118
0.5569741099866133	0.0002461644453091443
0.5625438510864794	0.0003513258833670568
0.5681692895973443	0.000496920503168662
0.5738509824933177	0.0006968799149256681
0.5795894923182509	0.0009709794838260578
0.5853853872414334	0.0013475094083234037
0.5912392411138477	0.0018672527810246605
0.5971516335249862	0.002590831279200927
0.6031231498602361	0.0036083814089619055
0.6091543813588385	0.005039438427034531
0.6152459251724268	0.00702804850539407
0.6213983844241512	0.009745811571782306
0.6276123682683926	0.013385583650683177
0.6338884919510765	0.018146902655503516
0.6402273768705874	0.02425014652694536
0.6466296506392932	0.03209343019243499
0.6530959471456862	0.04232839988664654
0.6596269066171431	0.05605652218347548
0.6662231756833145	0.07521561563973618
0.6728854074401477	0.10278917528705672
0.6796142615145492	0.14214986906910476
0.6864104041296946	0.19708961897173446
0.6932745081709915	0.2715358563484286
0.7002072532527015	0.369029885446211
0.7072093257852285	0.4920679509732072
0.7142814190430807	0.644946653383515
0.7214242332335116	0.8334146084563685
0.7286384755658467	1.0648897279018594
0.7359248603215052	1.3523038015241051
0.7432841089247202	1.7111534926917855
0.7507169500139675	2.166129661529453
0.7582241195141072	2.7541365833229774
0.7658063607092482	3.525711892404809
0.7734644243163408	4.527164181323116
0.781199068559504	5.789956135025453
0.7890110592450992	7.352866950667494
0.7969011698375502	9.207691000567454
0.8048701815359257	11.4208241492461
0.8129188833512849	14.081750769804385
0.8210480721847978	17.437293673815486
0.8292585529066457	21.665846416825424
0.8375511384357123	26.92344769988061
0.8459266498200694	33.48569522720172
0.8543859163182701	41.522998086621044
0.8629297754814528	51.2901970683975
0.8715590732362674	63.02409234715334
0.8802746639686301	77.01369492971608
0.8890774106083162	93.6769951583747
0.8979681847143995	113.08989983291185
0.9069478665615435	136.97984489037913
0.9160173452271589	164.49766533639257
0.9251775186794305	197.14568288458034
0.9344292938662249	232.66481306807881
0.9437735868048871	281.524823872733
0.953211322672936	332.0163729199365
0.9627434358996654	400.34884913705275
0.9723708702586621	479.48315863734564
0.9820945789612486	574.1825758162959
0.9919155247508612	685.7162341384793
1.0018346799983697	817.133117521396
1.0118530267983534	968.5782626718787
1.021971557066337	1143.1871448039906
1.0321912726370004	1343.4693197309214
1.0425131853633705	1572.5382903302286
1.0529383172170041	1834.4824031871499
1.0634677003891742	2133.775928212687
1.074102377393066	2475.683681139819
1.0848434011669965	2867.5158695745913
1.0956918351786664	3312.2821424167987
1.1066487535304532	3768.2336850414636
1.1177152410657578	4295.845989011276
1.1288923934764155	5024.123665609572
