#wavelength	surface flux
0.01	7.426162559071949e-94
0.0101	7.939576266859637e-94
0.010201	8.458124111725206e-94
0.010303010000000001	8.981857435039436e-94
0.0104060401	9.510828091586793e-94
0.010510100501000002	1.0045088454699642e-93
0.01061520150601	1.0584691421443605e-93
0.010721353521070101	1.1129690417855017e-93
0.010828567056280802	1.1680139404230534e-93
0.010936852726843608	1.2236092880469801e-93
0.011046221254112046	1.2560299636948851e-93
0.011156683466653166	1.2560299636948851e-93
0.011268250301319697	1.2560299636948851e-93
0.011380932804332895	1.2560299636948851e-93
0.011494742132376225	1.2560299636948851e-93
0.011609689553699986	1.2560299636948851e-93
0.011725786449236988	1.2560299636948851e-93
0.011843044313729357	1.2560299636948851e-93
0.01196147475686665	1.2560299636948851e-93
0.012081089504435316	1.2560299636948851e-93
0.012201900399479671	1.2560299636948851e-93
0.012323919403474468	1.2560299636948851e-93
0.012447158597509212	1.2560299636948851e-93
0.012571630183484304	1.2560299636948851e-93
0.012697346485319148	1.2560299636948851e-93
0.012824319950172339	1.2560299636948851e-93
0.012952563149674063	1.2560299636948851e-93
0.013082088781170804	1.2560299636948851e-93
0.013212909668982512	1.2560299636948851e-93
0.013345038765672336	1.2560299636948851e-93
0.013478489153329061	1.2560299636948851e-93
0.013613274044862352	1.2560299636948851e-93
0.013749406785310975	1.2560299636948851e-93
0.013886900853164083	1.2560299636948851e-93
0.014025769861695726	1.2560299636948851e-93
0.014166027560312683	1.2560299636948851e-93
0.01430768783591581	1.2560299636948851e-93
0.014450764714274969	1.2560299636948851e-93
0.014595272361417718	1.2560299636948851e-93
0.014741225085031895	1.2560299636948851e-93
0.014888637335882214	1.2560299636948851e-93
0.015037523709241036	1.2560299636948851e-93
0.015187898946333447	1.2560299636948851e-93
0.015339777935796781	1.2560299636948851e-93
0.015493175715154751	1.2560299636948851e-93
0.015648107472306296	1.2560299636948851e-93
0.01580458854702936	1.2560299636948851e-93
0.015962634432499654	1.2560299636948851e-93
0.016122260776824653	1.2560299636948851e-93
0.016283483384592897	1.2560299636948851e-93
0.016446318218438827	1.2560299636948851e-93
0.016610781400623217	1.2560299636948851e-93
0.016776889214629446	1.2560299636948851e-93
0.016944658106775742	1.2560299636948851e-93
0.0171141046878435	1.2560299636948851e-93
0.017285245734721934	1.2560299636948851e-93
0.017458098192069154	1.2560299636948851e-93
0.017632679173989845	1.2560299636948851e-93
0.017809005965729745	1.2560299636948851e-93
0.01798709602538704	1.2560299636948851e-93
0.018166966985640912	1.2560299636948851e-93
0.01834863665549732	1.2560299636948851e-93
0.018532123022052295	1.2560299636948851e-93
0.01871744425227282	1.2560299636948851e-93
0.01890461869479555	1.2560299636948851e-93
0.0190936648817435	1.2560299636948851e-93
0.019284601530560937	1.2560299636948851e-93
0.01947744754586655	1.2560299636948851e-93
0.019672222021325212	1.2560299636948851e-93
0.019868944241538466	1.2560299636948851e-93
0.020067633683953853	1.2560299636948851e-93
0.02026831002079339	1.2560299636948851e-93
0.020470993121001323	1.2560299636948851e-93
0.020675703052211336	1.2560299636948851e-93
0.02088246008273345	1.2560299636948851e-93
0.021091284683560786	1.2560299636948851e-93
0.021302197530396395	1.2560299636948851e-93
0.02151521950570036	1.2560299636948851e-93
0.02173037170075736	1.2560299636948851e-93
0.02194767541776493	1.2560299636948851e-93
0.022167152171942584	1.2560299636948851e-93
0.022388823693662012	1.2560299636948851e-93
0.02261271193059863	1.2560299636948851e-93
0.022838839049904615	1.2560299636948851e-93
0.023067227440403664	1.2560299636948851e-93
0.0232978997148077	1.2560299636948851e-93
0.023530878711955777	1.2560299636948851e-93
0.023766187499075334	1.2560299636948851e-93
0.024003849374066088	1.2560299636948851e-93
0.02424388786780675	1.2560299636948851e-93
0.024486326746484814	1.2560299636948851e-93
0.024731190013949664	1.2560299636948851e-93
0.024978501914089166	1.2560299636948851e-93
0.025228286933230055	1.2560299636948851e-93
0.02548056980256236	1.2560299636948851e-93
0.025735375500587982	1.2560299636948851e-93
0.025992729255593858	1.2560299636948851e-93
0.0262526565481498	1.2560299636948851e-93
0.026515183113631293	1.2560299636948851e-93
0.02678033494476761	1.2560299636948851e-93
0.027048138294215287	1.2560299636948851e-93
0.02731861967715744	1.2560299636948851e-93
0.027591805873929013	1.2560299636948851e-93
0.027867723932668304	1.2560299636948851e-93
0.02814640117199499	1.2560299636948851e-93
0.028427865183714936	1.2560299636948851e-93
0.02871214383555209	1.2560299636948851e-93
0.028999265273907608	1.2560299636948851e-93
0.029289257926646682	1.2560299636948851e-93
0.029582150505913153	1.2560299636948851e-93
0.02987797201097228	1.2560299636948851e-93
0.030176751731082006	1.2560299636948851e-93
0.030478519248392826	1.2560299636948851e-93
0.030783304440876753	1.2560299636948851e-93
0.031091137485285525	1.2560299636948851e-93
0.03140204886013838	1.2560299636948851e-93
0.03171606934873976	1.2560299636948851e-93
0.03203323004222716	1.2560299636948851e-93
0.03235356234264943	1.2560299636948851e-93
0.03267709796607593	1.2560299636948851e-93
0.03300386894573669	1.2560299636948851e-93
0.03333390763519405	1.2560299636948851e-93
0.033667246711545994	1.2560299636948851e-93
0.034003919178661454	1.2560299636948851e-93
0.03434395837044807	1.2560299636948851e-93
0.03468739795415255	1.2560299636948851e-93
0.03503427193369407	1.2560299636948851e-93
0.03538461465303102	1.2560299636948851e-93
0.03573846079956133	1.2560299636948851e-93
0.03609584540755694	1.2560299636948851e-93
0.03645680386163251	1.2560299636948851e-93
0.03682137190024883	1.2560299636948851e-93
0.03718958561925133	1.2560299636948851e-93
0.03756148147544384	1.2560299636948851e-93
0.03793709629019828	1.2560299636948851e-93
0.03831646725310026	1.2560861090908459e-93
0.038699631925631264	1.2561540874742224e-93
0.039086628244887574	1.263351086969587e-93
0.039477494527336454	1.2955834782926933e-93
0.03987226947260982	1.3281381935290307e-93
0.04027099216733592	1.0213329403649886e-92
0.04067370208900927	2.3401580857656335e-92
0.04108043910989937	8.564989396945184e-91
0.04149124350099836	5.056573486005081e-90
0.04190615593600835	9.298648777778879e-90
0.042325217495368425	7.962185061025024e-88
0.04274846967032212	1.8191015016310442e-87
0.043175954367025336	8.340886122836165e-86
0.04360771391069559	2.8212345110327323e-85
0.04404379104980254	3.44534687036749e-84
0.04448422896030057	3.344425521143002e-83
0.04492907124990358	6.3743152635903365e-83
0.04537836196240262	3.222780047600823e-81
0.04583214558202665	7.005736792368766e-81
0.04629046703784691	2.4273225815434316e-79
0.046753371708225376	6.161693243815746e-79
0.04722090542530763	1.579130384448797e-77
0.047693114479560705	4.780448120940027e-77
0.04817004562435631	8.493541306521978e-76
0.04865174608059988	3.0610251607981256e-75
0.04913826354140587	4.262727557167209e-74
0.04962964617681994	1.7756135596316422e-73
0.05012594263858814	8.41456258344045e-64
0.05062720206497402	4.190503776918838e-63
0.05113347408562376	4.988311842130328e-62
0.051644808826479996	2.153879649537265e-61
0.0521612569147448	1.3797287918792417e-60
0.052682869483892246	4.7741094576615656e-60
0.05320969817873117	3.1438217997288806e-59
0.05374179516051848	9.386028185480491e-59
0.054279213112123664	6.933342883232781e-58
0.0548220052432449	1.7998300644244874e-57
0.05537022529567735	1.2914638875064308e-56
0.05592392754863413	2.899507853883794e-56
0.056483166824120475	3.592677474287565e-54
0.057047998492361675	1.4602001830301274e-53
0.057618478477285295	1.001730390190191e-52
0.05819466326205815	3.6446881104764325e-52
0.05877660989467873	9.835000154872067e-52
0.05936437599362551	1.0968127899907367e-50
0.05995801975356178	2.684800790483926e-50
0.06055759995109739	1.6122201667876398e-49
0.06116317595060837	5.745523523335091e-49
0.061774807710114454	1.7275615495531094e-48
0.062392555787215594	7.735391917666654e-48
0.06301648134508775	1.8030475157566793e-47
0.06364664615853863	8.132543060956198e-47
0.06428311262012401	3.0654559621215485e-46
0.06492594374632525	7.373404866885515e-46
0.06557520318378851	3.245284348097347e-45
0.0662309552156264	1.0972838852319293e-44
0.06689326476778266	2.792680440886559e-44
0.06756219741546049	1.1277559803018384e-43
0.0682378193896151	3.649079206647563e-43
0.06892019758351124	9.048704386951576e-43
0.06960939955934635	3.457148766825125e-42
0.07030549355493981	1.1159080427932202e-41
0.07100854849048922	2.585146038563535e-41
0.07171863397539412	9.312763104059956e-41
0.07243582031514804	3.0470646384759385e-40
0.07316017851829953	8.361311214109105e-40
0.07389178030348253	2.1699983690658683e-39
0.07463069810651736	7.128897526524528e-39
0.07537700508758254	2.1126916986627486e-38
0.07613077513845835	5.459069758879117e-38
0.07689208288984294	1.4156165267633958e-37
0.07766100371874136	6.16407635466873e-37
0.07843761375592878	3.57969192654662e-36
0.07922198989348807	1.1348551543270946e-35
0.08001420979242296	2.7231040529369875e-35
0.08081435189034718	7.977261353242255e-35
0.08162249540925066	2.2984207192366527e-34
0.08243872036334317	6.278504088360602e-34
0.08326310756697661	1.4667693936974844e-33
0.08409573864264637	2.4513246823174708e-33
0.08493669602907282	3.562281483724353e-34
0.08578606298936356	4.3218132499943293e-35
0.0866439236192572	2.6880217136022572e-36
0.08751036285544977	1.8218479383279806e-33
0.08838546648400426	1.9166405724279353e-32
0.08926932114884432	3.546585773493936e-32
0.09016201436033276	1.0659016813337494e-31
0.09106363450393609	9.311090694451873e-31
0.09197427084897544	5.7446360459997405e-30
0.0928940135574652	1.2329549458240688e-30
0.09382295369303986	1.5355089526735278e-30
0.09476118322997025	1.2591745169775302e-30
0.09570879506226997	7.567143585883632e-30
0.09666588301289265	1.0475063397918285e-29
0.09763254184302157	4.250506318843727e-29
0.09860886726145181	1.9542850785914544e-26
0.09959495593406631	2.2703055951160356e-25
0.10059090549340699	1.664338389578818e-25
0.10159681454834106	1.3218540290464317e-26
0.10261278269382446	1.7980872648462941e-28
0.10363891052076271	4.0278465786278126e-28
0.10467529962597034	1.0277725850513595e-27
0.10572205262223004	2.6012514172754928e-27
0.10677927314845236	6.555901639652178e-27
0.10784706587993687	1.6527274550956798e-26
0.10892553653873624	3.941113148226564e-26
0.1100147919041236	2.580445159186966e-25
0.11111493982316484	2.590582665768436e-21
0.1122260892213965	6.527279860031052e-20
0.11334835011361045	1.5952719160509867e-19
0.11448183361474655	1.4251788117940834e-19
0.11562665195089401	3.5802499588155844e-19
0.11678291847040295	9.375103391719408e-19
0.117950747655107	3.187060151767111e-17
0.11913025513165806	1.963636825640244e-16
0.12032155768297464	3.0852276895192696e-17
0.1215247732598044	5.456287766717106e-17
0.12274002099240244	5.963900479550529e-16
0.12396742120232647	1.8039235684623007e-15
0.12520709541434974	1.966814171729185e-15
0.12645916636849325	1.0111445298083102e-15
0.12772375803217817	1.3794103141795693e-15
0.12900099561249995	3.850528364729862e-15
0.13029100556862497	3.997057864761733e-15
0.1315939156243112	8.933663620718642e-15
0.1329098547805543	1.3240989149135813e-14
0.13423895332835986	2.6170247696618737e-14
0.13558134286164344	4.23249081367259e-14
0.1369371562902599	3.734960129029083e-14
0.1383065278531625	1.7005017839593403e-13
0.13968959313169413	9.8107415808809e-13
0.14108648906301105	2.2083124888729346e-12
0.1424973539536412	5.875775668794735e-12
0.14392232749317757	8.966856102314868e-12
0.14536155076810936	5.421930172149773e-11
0.14681516627579044	9.148587586445987e-11
0.14828331793854838	1.2943499932366653e-10
0.14976615111793384	2.0664613503882753e-10
0.15126381262911318	2.434479676547008e-10
0.15277645075540433	1.0819866638416923e-10
0.15430421526295837	8.297877954444836e-11
0.15584725741558797	1.6291198154233224e-10
0.15740572998974384	2.7841216266691687e-10
0.15897978728964127	3.11554406854433e-10
0.1605695851625377	4.0875428852430363e-10
0.16217528101416306	9.2719763398252e-11
0.16379703382430472	1.7676787573756296e-10
0.16543500416254772	4.1318178798829445e-10
0.16708935420417323	4.4599455632828794e-09
0.16876024774621495	2.1940374484063013e-10
0.17044785022367712	4.764419175944382e-08
0.17215232872591388	1.3612287618808274e-08
0.173873852013173	1.0135753830120594e-08
0.17561259053330475	5.911509338229622e-08
0.1773687164386378	3.0651461937757524e-07
0.1791424036030242	1.6224829825767511e-06
0.1809338276390544	4.8189385712599715e-08
0.18274316591544498	2.719648308235772e-06
0.18457059757459943	6.890859588353371e-07
0.1864163035503454	6.752214436703235e-08
0.18828046658584888	1.7991387023711262e-07
0.19016327125170737	5.006556455704216e-07
0.19206490396422443	1.6743781132170874e-05
0.1939855530038667	7.801080396080043e-05
0.19592540853390536	0.00026383064376607154
0.19788466261924442	0.0008660007406726387
0.19986350924543686	0.0007702882759641009
0.2018621443378912	0.0007306208794496346
0.20388076578127012	0.000815768775602856
0.20591957343908285	0.0013437799928663193
0.20797876917347366	0.0003972273229049647
0.21005855686520844	0.0009102679363010243
0.2121591424338605	0.00037066975350654087
0.21428073385819912	0.0014557301442043214
0.21642354119678112	0.0010101239630769384
0.2185877766087489	0.002917740275753218
0.2207736543748364	0.0016330157569457613
0.22298139091858477	0.01541746681252816
0.2252112048277706	0.0019151757982249814
0.22746331687604834	0.008276394946615789
0.22973795004480882	0.02907372473257898
0.23203532954525688	0.057300638871622046
0.23435568284070946	0.3142807814731419
0.23669923966911657	0.04293894108319378
0.2390662320658077	0.1933161363435265
0.2414568943864658	1.9246218278689589
0.2438714633303305	2.5385473738675377
0.24631017796363378	1.43408603778713
0.24877327974327013	0.23381809215260835
0.2512610125407028	0.6864067706493487
0.25377362266610987	4.645752818768236
0.25631135889277096	11.984746964285677
0.25887447248169865	13.576460926118251
0.26146321720651566	119.99601758744544
0.2640778493785808	375.0977839731074
0.2667186278723666	156.21335071709734
0.2693858141510903	169.48634968114246
0.2720796722926012	57.24352111397122
0.27480046901552724	73.62790350898133
0.27754847370568253	440.0175171175238
0.28032395844273933	88.87825479476409
0.28312719802716674	101.06234937275141
0.2859584700074384	27.67336496234507
0.28881805470751276	508.67137705101135
0.2917062352545879	1820.6446204432032
0.2946232976071338	644.9880943740689
0.2975695305832051	502.9757127367264
0.30054522588903715	571.174548492163
0.3035506781479275	1527.9123976248704
0.3065861849294068	7325.227516208893
0.3096520467787009	4737.656461915281
0.3127485672464879	90478.30177096935
0.3158760529189528	306729.8286480453
0.31903481344814233	95665.71597287049
0.3222251615826237	134042.09821545624
0.32544741319844994	620561.5915086629
0.3287018873304345	801704.853340839
0.33198890620373883	825055.2809722172
0.3353087952657762	1073029.4630356734
0.338661883218434	189093.7352478223
0.3420485020506183	92240.48628175077
0.34546898707112456	33018.64005149391
0.3489236769418358	68569.68042843972
0.35241291371125416	159980.8636019841
0.3559370428483667	490816.87175796763
0.3594964132768504	44926.94010193276
0.3630913774096189	692610.5319325408
0.3667222911837151	1567793.998171198
0.37038951409555215	365784.91695249017
0.37409340923650775	42655.913676270306
0.37783434332887283	1543896.235951489
0.38161268676216153	778938.6747228983
0.38542881362978315	346266.6164738872
0.389283101766081	171812.72120250476
0.39317593278374185	387369.72377900564
0.39710769211157926	1467552.6103013093
0.401078769032695	7217101.451661559
0.405089556723022	5855575.701933115
0.4091404522902522	8865100.192031788
0.4132318568131547	5145982.05227308
0.4173641753812863	2136635.0737672523
0.42153781713509914	250403.17260129016
0.4257531953064501	574153.407434469
0.43001072725951467	2651402.222695676
0.43431083453210984	7249167.738284758
0.43865394287743087	10063093.302583123
0.44304048230620524	14225919.168918628
0.44747088712926725	23400936.239730395
0.45194559600055995	29764481.675859354
0.4564650519605655	47144182.11931664
0.4610297024801712	25040359.11002206
0.4656399995049729	27798308.64090834
0.47029639950002267	43882956.057978615
0.47499936349502286	59621692.46812613
0.4797493571299731	18903112.973096382
0.48454685070127285	23333271.156887133
0.48939231920828563	78520599.3512557
0.4942862424003685	130292640.59434539
0.4992291048243721	24326375.79808943
0.5042213958726158	30181939.079668257
0.509263609831342	37394916.99589999
0.5143562459296555	76205504.20176023
0.519499808388952	13938604.350611737
0.5246948064728415	64687670.14083121
0.52994175453757	117261306.66281615
0.5352411720829456	159032043.1231609
0.5405935838037751	120069000.98075292
0.5459995196418129	52684586.98206682
0.551459514838231	76512730.49256845
0.5569741099866133	122926118.18912461
0.5625438510864794	56811547.43216015
0.5681692895973443	96753678.3624495
0.5738509824933177	140954718.07072496
0.5795894923182509	101547871.65317929
0.5853853872414334	36940809.38721572
0.5912392411138477	13642099.35095992
0.5971516335249862	55910322.45100126
0.6031231498602361	128037987.75354777
0.6091543813588385	204473617.93257803
0.6152459251724268	155067371.2718519
0.6213983844241512	41079095.02021972
0.6276123682683926	53199384.10779793
0.6338884919510765	119121437.3337337
0.6402273768705874	112036893.66388543
0.6466296506392932	192724899.7846007
0.6530959471456862	269524610.6152443
0.6596269066171431	268382364.3788524
0.6662231756833145	161317561.57863444
0.6728854074401477	66632265.009429395
0.6796142615145492	85977551.61247566
0.6864104041296946	111889267.4011401
0.6932745081709915	106671480.03376918
0.7002072532527015	244968689.07569128
0.7072093257852285	192933645.1847485
0.7142814190430807	72344128.78004476
0.7214242332335116	138646979.29403493
0.7286384755658467	525698145.01976407
0.7359248603215052	1003787081.6665725
0.7432841089247202	918022488.6787782
0.7507169500139675	951902329.0645964
0.7582241195141072	972905895.8318669
0.7658063607092482	167332620.0281328
0.7734644243163408	389276062.5204654
0.781199068559504	690931077.3407396
0.7890110592450992	855648107.1221718
0.7969011698375502	885326406.4519601
0.8048701815359257	1419783894.8161714
0.8129188833512849	2079254074.1642268
0.8210480721847978	1490910140.7848604
0.8292585529066457	1929508494.550938
0.8375511384357123	1790247598.2592692
0.8459266498200694	1080017040.612687
0.8543859163182701	1331769931.4510558
0.8629297754814528	1494847189.3766515
0.8715590732362674	1307370066.7339823
0.8802746639686301	1538897829.23053
0.8890774106083162	1338202090.275221
0.8979681847143995	1616103771.0452855
0.9069478665615435	1482440644.1308928
0.9160173452271589	1793113113.757311
0.9251775186794305	1770903754.2645524
0.9344292938662249	1880177940.2234654
0.9437735868048871	2092709712.0329883
0.953211322672936	2244861667.2312098
0.9627434358996654	2066596021.1556332
0.9723708702586621	2039798233.3650606
0.9820945789612486	2387775311.993275
0.9919155247508612	1418324282.839714
1.0018346799983697	1650045300.2896714
1.0118530267983534	1794776841.9449165
1.021971557066337	1925307208.551659
1.0321912726370004	2087292519.7392504
1.0425131853633705	2285874955.3867683
1.0529383172170041	2306529626.0879555
1.0634677003891742	2293793557.0900354
1.074102377393066	2587623391.9024935
1.0848434011669965	2732187297.689006
1.0956918351786664	2865686386.905674
1.1066487535304532	2410841721.1524673
1.1177152410657578	2420334560.1490245
1.1288923934764155	2520113652.988239
1.1401813174111797	1921368581.6549692
1.1515831305852913	2637589198.8687835
1.1630989618911443	2517289165.6159945
1.1747299515100555	2261341192.776816
1.1864772510251562	2351226937.9608808
1.1983420235354079	2154838242.1793633
1.210325443770762	2220085156.3666005
1.2224286982084696	2397161858.5530767
1.2346529851905543	2369395735.7686434
1.2469995150424598	2080563137.0588505
1.2594695101928843	2353753732.1215525
1.2720642052948132	2328793479.197617
