#wavelength	surface flux
0.01	7.426162559071949e-94
0.0101	7.939576266859637e-94
0.010201	8.458124111725206e-94
0.010303010000000001	8.981857435039436e-94
0.0104060401	9.510828091586793e-94
0.010510100501000002	1.0045088454699642e-93
0.01061520150601	1.0584691421443605e-93
0.010721353521070101	1.1129690417855017e-93
0.010828567056280802	1.1680139404230534e-93
0.010936852726843608	1.2236092880469801e-93
0.011046221254112046	1.2560299636948851e-93
0.011156683466653166	1.2560299636948851e-93
0.011268250301319697	1.2560299636948851e-93
0.011380932804332895	1.2560299636948851e-93
0.011494742132376225	1.2560299636948851e-93
0.011609689553699986	1.2560299636948851e-93
0.011725786449236988	1.2560299636948851e-93
0.011843044313729357	1.2560299636948851e-93
0.01196147475686665	1.2560299636948851e-93
0.012081089504435316	1.2560299636948851e-93
0.012201900399479671	1.2560299636948851e-93
0.012323919403474468	1.2560299636948851e-93
0.012447158597509212	1.2560299636948851e-93
0.012571630183484304	1.2560299636948851e-93
0.012697346485319148	1.2560299636948851e-93
0.012824319950172339	1.2560299636948851e-93
0.012952563149674063	1.2560299636948851e-93
0.013082088781170804	1.2560299636948851e-93
0.013212909668982512	1.2560299636948851e-93
0.013345038765672336	1.2560299636948851e-93
0.013478489153329061	1.2560299636948851e-93
0.013613274044862352	1.2560299636948851e-93
0.013749406785310975	1.2560299636948851e-93
0.013886900853164083	1.2560299636948851e-93
0.014025769861695726	1.2560299636948851e-93
0.014166027560312683	1.2560299636948851e-93
0.01430768783591581	1.2560299636948851e-93
0.014450764714274969	1.2560299636948851e-93
0.014595272361417718	1.2560299636948851e-93
0.014741225085031895	1.2560299636948851e-93
0.014888637335882214	1.2560299636948851e-93
0.015037523709241036	1.2560299636948851e-93
0.015187898946333447	1.2560299636948851e-93
0.015339777935796781	1.2560299636948851e-93
0.015493175715154751	1.2560299636948851e-93
0.015648107472306296	1.2560299636948851e-93
0.01580458854702936	1.2560299636948851e-93
0.015962634432499654	1.2560299636948851e-93
0.016122260776824653	1.2560299636948851e-93
0.016283483384592897	1.2560299636948851e-93
0.016446318218438827	1.2560299636948851e-93
0.016610781400623217	1.2560299636948851e-93
0.016776889214629446	1.2560299636948851e-93
0.016944658106775742	1.2560299636948851e-93
0.0171141046878435	1.2560299636948851e-93
0.017285245734721934	1.2560299636948851e-93
0.017458098192069154	1.2560299636948851e-93
0.017632679173989845	1.2560299636948851e-93
0.017809005965729745	1.2560299636948851e-93
0.01798709602538704	1.2560299636948851e-93
0.018166966985640912	1.2560299636948851e-93
0.01834863665549732	1.2560299636948851e-93
0.018532123022052295	1.2560299636948851e-93
0.01871744425227282	1.2560299636948851e-93
0.01890461869479555	1.2560299636948851e-93
0.0190936648817435	1.2560299636948851e-93
0.019284601530560937	1.2560299636948851e-93
0.01947744754586655	1.2560299636948851e-93
0.019672222021325212	1.2560299636948851e-93
0.019868944241538466	1.2560299636948851e-93
0.020067633683953853	1.2560299636948851e-93
0.02026831002079339	1.2560299636948851e-93
0.020470993121001323	1.2560299636948851e-93
0.020675703052211336	1.2560299636948851e-93
0.02088246008273345	1.2560299636948851e-93
0.021091284683560786	1.2560299636948851e-93
0.021302197530396395	1.2560299636948851e-93
0.02151521950570036	1.2560299636948851e-93
0.02173037170075736	1.2560299636948851e-93
0.02194767541776493	1.2560299636948851e-93
0.022167152171942584	1.2560299636948851e-93
0.022388823693662012	1.2560299636948851e-93
0.02261271193059863	1.2560299636948851e-93
0.022838839049904615	1.2560299636948851e-93
0.023067227440403664	1.2560299636948851e-93
0.0232978997148077	1.2560299636948851e-93
0.023530878711955777	1.2560299636948851e-93
0.023766187499075334	1.2560299636948851e-93
0.024003849374066088	1.2560299636948851e-93
0.02424388786780675	1.2560299636948851e-93
0.024486326746484814	1.2560299636948851e-93
0.024731190013949664	1.2560299636948851e-93
0.024978501914089166	1.2560299636948851e-93
0.025228286933230055	1.2560299636948851e-93
0.02548056980256236	1.2560299636948851e-93
0.025735375500587982	1.2560299636948851e-93
0.025992729255593858	1.2560299636948851e-93
0.0262526565481498	1.2560299636948851e-93
0.026515183113631293	1.2560299636948851e-93
0.02678033494476761	1.2560299636948851e-93
0.027048138294215287	1.2560299636948851e-93
0.02731861967715744	1.2560299636948851e-93
0.027591805873929013	1.2560299636948851e-93
0.027867723932668304	1.2560299636948851e-93
0.02814640117199499	1.2560299636948851e-93
0.028427865183714936	1.2560299636948851e-93
0.02871214383555209	1.2560299636948851e-93
0.028999265273907608	1.2560299636948851e-93
0.029289257926646682	1.2560299636948851e-93
0.029582150505913153	1.2560299636948851e-93
0.02987797201097228	1.2560299636948851e-93
0.030176751731082006	1.2560299636948851e-93
0.030478519248392826	1.2560299636948851e-93
0.030783304440876753	1.2560299636948851e-93
0.031091137485285525	1.2560299636948851e-93
0.03140204886013838	1.2560299636948851e-93
0.03171606934873976	1.2560299636948851e-93
0.03203323004222716	1.2560299636948851e-93
0.03235356234264943	1.2560299636948851e-93
0.03267709796607593	1.2560299636948851e-93
0.03300386894573669	1.2560299636948851e-93
0.03333390763519405	1.2560299636948851e-93
0.033667246711545994	1.2560299636948851e-93
0.034003919178661454	1.2560299636948851e-93
0.03434395837044807	1.2560299636948851e-93
0.03468739795415255	1.2560299636948851e-93
0.03503427193369407	1.2560299636948851e-93
0.03538461465303102	1.2560299636948851e-93
0.03573846079956133	1.2560299636948851e-93
0.03609584540755694	1.2560299636948851e-93
0.03645680386163251	1.2560299636948851e-93
0.03682137190024883	1.2560299636948851e-93
0.03718958561925133	1.2560299636948851e-93
0.03756148147544384	1.2560299636948851e-93
0.03793709629019828	1.2560299636948851e-93
0.03831646725310026	1.2560299636948851e-93
0.038699631925631264	1.2560299636948851e-93
0.039086628244887574	1.2560299636948851e-93
0.039477494527336454	1.2560299636948851e-93
0.03987226947260982	1.2560299636948851e-93
0.04027099216733592	1.2561055465286936e-93
0.04067370208900927	1.2562178669598784e-93
0.04108043910989937	1.265614038412908e-93
0.04149124350099836	1.3131357217298313e-93
0.04190615593600835	1.3611326218799253e-93
0.042325217495368425	1.2810344841859996e-92
0.04274846967032212	2.769671867932419e-92
0.043175954367025336	1.5409325664823506e-90
0.04360771391069559	5.232425955631831e-90
0.04404379104980254	7.837583822897853e-89
0.04448422896030057	7.802978761656509e-88
0.04492907124990358	1.4892391344816944e-87
0.04537836196240262	9.3918033580758e-86
0.04583214558202665	2.046357643039535e-85
0.04629046703784691	8.704858696593818e-84
0.046753371708225376	2.2186026528029786e-83
0.04722090542530763	6.935183536123562e-82
0.047693114479560705	2.1132097722376137e-81
0.04817004562435631	4.514876024231163e-80
0.04865174608059988	1.644450044707535e-79
0.04913826354140587	2.7206649602734185e-78
0.04962964617681994	1.149884060503257e-77
0.05012594263858814	1.4257669330368471e-72
0.05062720206497402	7.100334678693434e-72
0.05113347408562376	1.0821621963845741e-70
0.051644808826479996	4.794199373758044e-70
0.0521612569147448	4.651895400048085e-69
0.052682869483892246	1.7314404876877466e-68
0.05320969817873117	1.780704628894299e-67
0.05374179516051848	5.664449860710418e-67
0.054279213112123664	6.262336220015433e-66
0.0548220052432449	1.696881452867075e-65
0.05537022529567735	1.9063414086304517e-64
0.05592392754863413	4.4511399958649165e-64
0.056483166824120475	2.973904238565504e-61
0.057047998492361675	1.1921863211347295e-60
0.057618478477285295	8.05239122582367e-60
0.05819466326205815	4.18163840818503e-59
0.05877660989467873	1.2903837911826988e-58
0.05936437599362551	1.973557990699987e-57
0.05995801975356178	4.924112930048579e-57
0.06055759995109739	3.5967136283304177e-56
0.06116317595060837	1.363562239851067e-55
0.061774807710114454	4.209459105109025e-55
0.062392555787215594	2.0215831932275118e-54
0.06301648134508775	4.829543588630291e-54
0.06364664615853863	2.368933861051657e-53
0.06428311262012401	9.790264797777836e-53
0.06492594374632525	2.423981288330519e-52
0.06557520318378851	1.210941922553429e-51
0.0662309552156264	4.6314531984904004e-51
0.06689326476778266	1.2424475926912217e-50
0.06756219741546049	5.971106298843038e-50
0.0682378193896151	2.270617412279383e-49
0.06892019758351124	6.043906610268952e-49
0.06960939955934635	2.866046430090617e-48
0.07030549355493981	1.1311990635499225e-47
0.07100854849048922	2.8500449905790745e-47
0.07171863397539412	1.2974054568926132e-46
0.07243582031514804	5.3667512444000026e-46
0.07316017851829953	1.7776642005812797e-45
0.07389178030348253	5.2769129344234437e-45
0.07463069810651736	2.228082657039075e-44
0.07537700508758254	8.296094270226737e-44
0.07613077513845835	2.5700148944742744e-43
0.07689208288984294	7.793055900708249e-43
0.07766100371874136	4.2624251894238936e-42
0.07843761375592878	2.7034382971317674e-41
0.07922198989348807	9.56881120295395e-41
0.08001420979242296	2.5260024926430985e-40
0.08081435189034718	8.714672118673156e-40
0.08162249540925066	2.985372436636124e-39
0.08243872036334317	9.618814490844289e-39
0.08326310756697661	2.5504579030305143e-38
0.08409573864264637	4.6104827423043275e-38
0.08493669602907282	7.417460348731189e-39
0.08578606298936356	3.538656010451341e-39
0.0866439236192572	9.794829874200863e-39
0.08751036285544977	2.494795894016698e-37
0.08838546648400426	2.3897248053579833e-36
0.08926932114884432	4.945422822983198e-36
0.09016201436033276	1.3200270458877577e-35
0.09106363450393609	8.233173558231186e-35
0.09197427084897544	3.611607684655197e-34
0.0928940135574652	1.7265190192492198e-34
0.09382295369303986	8.814170978660115e-34
0.09476118322997025	1.1115868911042107e-33
0.09570879506226997	7.350469144338838e-33
0.09666588301289265	1.3625637239150722e-32
0.09763254184302157	3.5405897488145687e-32
0.09860886726145181	5.917324867796624e-31
0.09959495593406631	6.508891463641893e-30
0.10059090549340699	4.898308711987403e-30
0.10159681454834106	8.44876365435626e-31
0.10261278269382446	1.328842068792222e-30
0.10363891052076271	3.6338179655969584e-30
0.10467529962597034	9.749068612335735e-30
0.10572205262223004	2.580147070769781e-29
0.10677927314845236	6.743891759554016e-29
0.10784706587993687	1.725451649020674e-28
0.10892553653873624	4.427949175726901e-28
0.1100147919041236	1.2491041466364936e-27
0.11111493982316484	4.914796004082994e-25
0.1122260892213965	1.228711716324496e-23
0.11334835011361045	3.048101164185997e-23
0.11448183361474655	5.251608745521748e-23
0.11562665195089401	2.89685199432572e-22
0.11678291847040295	8.732840171028167e-22
0.117950747655107	1.3395938534546654e-20
0.11913025513165806	4.675825755309702e-20
0.12032155768297464	2.0795315652153356e-20
0.1215247732598044	3.698269087243622e-20
0.12274002099240244	2.1324970925322783e-19
0.12396742120232647	4.388824274718656e-19
0.12520709541434974	5.007484507778918e-19
0.12645916636849325	2.3957955137466916e-19
0.12772375803217817	3.1070303153834953e-19
0.12900099561249995	1.0234889248597396e-18
0.13029100556862497	1.1783399342076898e-18
0.1315939156243112	2.4428381384633318e-18
0.1329098547805543	3.5659617159555636e-18
0.13423895332835986	7.858629544746456e-18
0.13558134286164344	1.5587476376372037e-17
0.1369371562902599	1.3432991362963916e-17
0.1383065278531625	8.486059173054032e-17
0.13968959313169413	5.9323657696939675e-16
0.14108648906301105	1.3963759527086233e-15
0.1424973539536412	3.749337014146926e-15
0.14392232749317757	6.692937701256068e-15
0.14536155076810936	4.0686367625977813e-14
0.14681516627579044	7.489205442628967e-14
0.14828331793854838	1.1385485902888506e-13
0.14976615111793384	1.990305568206987e-13
0.15126381262911318	2.488918555525501e-13
0.15277645075540433	1.043232946546748e-13
0.15430421526295837	7.483673623795953e-14
0.15584725741558797	1.7970732198200162e-13
0.15740572998974384	3.570072186471674e-13
0.15897978728964127	4.267689611983909e-13
0.1605695851625377	6.176298215473463e-13
0.16217528101416306	1.5201799514754545e-13
0.16379703382430472	3.8577374194901886e-13
0.16543500416254772	1.2352679999169064e-12
0.16708935420417323	1.1256206922443793e-11
0.16876024774621495	8.417255881653224e-13
0.17044785022367712	1.6935224997159253e-10
0.17215232872591388	4.931947947384979e-11
0.173873852013173	5.2684871618360806e-11
0.17561259053330475	2.6447304401539067e-10
0.1773687164386378	1.3007603893196649e-09
0.1791424036030242	7.866332841676962e-09
0.1809338276390544	2.0873895890297732e-10
0.18274316591544498	2.41025303181274e-08
0.18457059757459943	4.737008626694452e-09
0.1864163035503454	4.070445200555853e-10
0.18828046658584888	9.568226413577981e-10
0.19016327125170737	2.9422419227326133e-09
0.19206490396422443	1.2898454779321068e-07
0.1939855530038667	6.620804725058808e-07
0.19592540853390536	2.9954406967048733e-06
0.19788466261924442	1.5571001388244802e-05
0.19986350924543686	1.0258444747405911e-05
0.2018621443378912	1.5094325233089168e-05
0.20388076578127012	1.1268657827543975e-05
0.20591957343908285	2.013411986987355e-05
0.20797876917347366	4.341425467721373e-06
0.21005855686520844	1.087247443902099e-05
0.2121591424338605	3.901419733013639e-06
0.21428073385819912	2.414172669971144e-05
0.21642354119678112	1.536186286283313e-05
0.2185877766087489	4.6349572129989495e-05
0.2207736543748364	2.0540854184213748e-05
0.22298139091858477	0.00029245189098176915
0.2252112048277706	2.2085194245106903e-05
0.22746331687604834	0.0002873354216421776
0.22973795004480882	0.0006452922413945491
0.23203532954525688	0.0014416846970371614
0.23435568284070946	0.0038501647606433917
0.23669923966911657	0.00088838028009135
0.2390662320658077	0.004084314769008114
0.2414568943864658	0.013663924018674879
0.2438714633303305	0.0350650530493529
0.24631017796363378	0.027125053213995606
0.24877327974327013	0.0073554293502338716
0.2512610125407028	0.019014478668834846
0.25377362266610987	0.1267652315039396
0.25631135889277096	0.15906032801861608
0.25887447248169865	0.2159914401843199
0.26146321720651566	1.7691458209605986
0.2640778493785808	4.017939636795259
0.2667186278723666	2.1993113132248387
0.2693858141510903	2.501405912511805
0.2720796722926012	1.4399431867704016
0.27480046901552724	2.301973411053192
0.27754847370568253	8.142190241381577
0.28032395844273933	2.8793974440626924
0.28312719802716674	4.768698588898465
0.2859584700074384	1.8735183075407176
0.28881805470751276	16.579996833447296
0.2917062352545879	40.47842982569178
0.2946232976071338	22.55491531521453
0.2975695305832051	19.57497560174074
0.30054522588903715	27.563163350123975
0.3035506781479275	55.519993734414214
0.3065861849294068	260.0246292614409
0.3096520467787009	262.56887303902425
0.3127485672464879	3785.787073996248
0.3158760529189528	15290.73277311886
0.31903481344814233	4660.938768695114
0.3222251615826237	6628.051797346509
0.32544741319844994	39937.65594694921
0.3287018873304345	56392.70482351407
0.33198890620373883	59983.32971385542
0.3353087952657762	90970.27737140196
0.338661883218434	10874.201347532515
0.3420485020506183	4459.912345397156
0.34546898707112456	1802.276769580503
0.3489236769418358	3594.892055951299
0.35241291371125416	10772.11844838468
0.3559370428483667	38006.07236986134
0.3594964132768504	2902.3435789942523
0.3630913774096189	68357.33501592
0.3667222911837151	144865.53010660002
0.37038951409555215	26467.313053673024
0.37409340923650775	4134.501230495307
0.37783434332887283	157652.0794536817
0.38161268676216153	83295.09218752885
0.38542881362978315	30630.915407153854
0.389283101766081	16074.471635815058
0.39317593278374185	44327.35708999152
0.39710769211157926	210782.88726268098
0.401078769032695	1028052.8749304705
0.405089556723022	811077.6288407147
0.4091404522902522	1219892.6768159692
0.4132318568131547	636524.6155709132
0.4173641753812863	239787.5029714746
0.42153781713509914	50928.3683040779
0.4257531953064501	78690.05911982521
0.43001072725951467	330108.23252208455
0.43431083453210984	888920.7659044631
0.43865394287743087	1251732.518575038
0.44304048230620524	1393298.9614990894
0.44747088712926725	1975461.2004183084
0.45194559600055995	2644372.054013541
0.4564650519605655	4539023.941282671
0.4610297024801712	1902969.8531802553
0.4656399995049729	2230224.960790584
0.47029639950002267	3192133.320208141
0.47499936349502286	6334403.15258415
0.4797493571299731	1169199.211827962
0.48454685070127285	1814444.6936545284
0.48939231920828563	6271532.096898517
0.4942862424003685	20675230.37833285
0.4992291048243721	2536105.915559446
0.5042213958726158	3108566.3041924597
0.509263609831342	5097463.065013618
0.5143562459296555	13438172.957234785
0.519499808388952	2051475.039360218
0.5246948064728415	7361681.1916327
0.52994175453757	12612848.152603418
0.5352411720829456	19114398.2711046
0.5405935838037751	18112769.37921846
0.5459995196418129	6915647.055961391
0.551459514838231	7951527.510463819
0.5569741099866133	13243759.303395621
0.5625438510864794	5564635.478258144
0.5681692895973443	10109223.037168058
0.5738509824933177	16897117.911372148
0.5795894923182509	14310615.054100685
0.5853853872414334	6746852.127668839
0.5912392411138477	3070565.20010124
0.5971516335249862	7961204.081689371
0.6031231498602361	17236133.974996507
0.6091543813588385	29943398.830774877
0.6152459251724268	26559319.614279084
0.6213983844241512	7127186.33564295
0.6276123682683926	9380005.116935361
0.6338884919510765	20218812.28009176
0.6402273768705874	21476359.69372336
0.6466296506392932	31335917.13552647
0.6530959471456862	39082625.144586965
0.6596269066171431	36383640.96095045
0.6662231756833145	24770107.454030395
0.6728854074401477	14196639.701533156
0.6796142615145492	17607198.57834689
0.6864104041296946	24189112.508632682
0.6932745081709915	27651687.60246278
0.7002072532527015	64540496.372007705
0.7072093257852285	39981578.27405068
0.7142814190430807	18752936.757196333
0.7214242332335116	28251710.92208613
0.7286384755658467	101298440.69521524
0.7359248603215052	146231811.6797554
0.7432841089247202	79413082.17839566
0.7507169500139675	88486400.86633284
0.7582241195141072	150950175.71269825
0.7658063607092482	42857675.43514527
0.7734644243163408	84753797.09390265
0.781199068559504	156073652.44077963
0.7890110592450992	127801278.01038104
0.7969011698375502	99066578.27486989
0.8048701815359257	229259696.16168517
0.8129188833512849	643225391.04875
0.8210480721847978	571480225.6642764
0.8292585529066457	564978447.5700186
0.8375511384357123	596040975.9669863
0.8459266498200694	220585812.35051668
0.8543859163182701	283364498.1740742
0.8629297754814528	271150690.19555753
0.8715590732362674	272587087.5424509
0.8802746639686301	447851354.66320467
0.8890774106083162	392413695.7662613
0.8979681847143995	539154567.6449906
0.9069478665615435	595563813.2716507
0.9160173452271589	799271729.26615
0.9251775186794305	684660332.694824
0.9344292938662249	709971867.757613
0.9437735868048871	868029740.2809713
0.953211322672936	927121580.9665143
0.9627434358996654	667273574.2679124
0.9723708702586621	681197378.54388
0.9820945789612486	966066578.480652
0.9919155247508612	593016645.7468101
1.0018346799983697	725789773.2084115
1.0118530267983534	805794519.3070925
1.021971557066337	890551132.4475999
1.0321912726370004	1028643620.4972026
1.0425131853633705	1164973329.065798
1.0529383172170041	972047695.2055967
1.0634677003891742	849865322.0661075
1.074102377393066	1236199752.1164906
1.0848434011669965	1456294686.4485192
1.0956918351786664	1479860789.0034056
1.1066487535304532	1020296487.8125018
1.1177152410657578	1040591433.8366199
1.1288923934764155	1174780168.1751444
1.1401813174111797	1007432024.6874908
1.1515831305852913	1290498265.5657513
1.1630989618911443	1310280565.567292
1.1747299515100555	1188432288.1002054
1.1864772510251562	1108944569.017942
1.1983420235354079	1112428147.5724998
1.210325443770762	1159904962.4667268
1.2224286982084696	1312383389.3614852
1.2346529851905543	1307202838.8469496
1.2469995150424598	1176583089.3624318
1.2594695101928843	1320062408.212947
1.2720642052948132	1315375679.1081798
