#wavelength	surface flux
0.6450077295303345	1143895.7493196793
0.6472567915916443	1792085.583174609
0.6494921445846558	2313069.362747967
0.6517150402069092	2621509.646825813
0.6539263725280762	2933689.3565732013
0.6561272740364075	3256854.0049884734
0.6583186388015747	3591526.9242709186
0.6605015397071838	3948458.017612821
0.6626768708229065	4323835.721734699
0.6648455858230591	4704591.372006646
0.6670085787773132	5077034.261817927
0.6691668033599854	5402534.2179314615
0.6713210344314575	5731192.628988246
0.6734722256660461	6151613.638838651
0.6756211519241333	6573715.474871634
0.6777685880661011	6912875.326149873
0.6799154281616211	7195974.292275524
0.6820623278617859	7405801.856924872
0.6842101216316223	7526292.52418572
0.6863595843315125	7532502.703837226
0.688511312007904	7380263.933193212
0.6906660795211792	7186652.778684302
0.6928245425224304	7058310.280578902
0.6949873566627502	6985551.37640212
0.6971551775932312	6979059.021945229
0.6993286609649658	7095421.979568373
0.7015084028244019	7384352.549709344
0.7036949396133423	7718029.76581075
0.7058889269828796	7963393.75329517
0.7080909013748169	8136260.255611147
0.710301399230957	8300853.3687965255
0.712520956993103	8487030.57717195
0.7147500514984131	8658136.013597816
0.7169892191886902	8775632.822220784
0.7192389369010925	8813730.995096315
0.7214996814727783	8777534.550335668
0.723771870136261	8702525.30106536
0.7260559797286987	8581587.239310678
0.7283523678779602	8397099.455462886
0.7306615710258484	8131769.5870693335
0.7329838871955872	7771311.557614544
0.7353196740150452	7368285.952980446
0.7376693487167358	6938901.857242877
0.7400332689285278	6418148.586188716
0.7424117922782898	5891803.97045886
0.7448052167892456	5434229.831614597
0.7472138404846191	4946046.1783242095
0.7496379613876343	4337701.620060311
0.7520779371261597	3667204.297064526
0.7545340061187744	3008050.367536553
0.7570064663887024	2325125.3033966427
0.7594954967498779	1606965.2496047332
0.7620013952255249	883546.9267302533
0.7645244002342224	313814.4567955025
0.7670646905899048	55292.20738578778
0.7696225643157959	27279.308676706863
0.7721980810165405	192828.89980886178
0.7747915983200073	779140.9106778655
0.7774031162261963	1694991.3939860652
0.7800329327583313	2716869.6889545056
0.7826811671257019	4264530.518167906
0.7853479981422424	6148718.792345616
0.7880334854125977	7769993.22876192
0.7907378077507019	8990208.003202274
0.7934610247612	9585378.17674404
0.7962033748626709	10740453.04566521
0.7989648580551147	13163289.922008898
0.801745593547821	15507256.296796955
0.8045456409454346	17369365.406549703
0.8073651194572449	19102767.545073863
0.8102040886878967	20705271.155946508
0.8130625486373901	22224124.486885738
0.8159406185150146	23557245.69652628
0.8188382983207703	24681031.502844796
0.8217556476593018	26051216.46081653
0.8246926665306091	27624018.756637044
0.8276493549346924	28995454.768800132
0.8306257724761963	30226302.70973836
0.8336219191551208	31422925.087475006
0.8366377949714661	32593873.338004936
0.8396733403205872	33758498.408114135
0.8427285552024841	34953666.710565425
0.8458034992218018	36071521.837584585
0.8488980531692505	36404740.68473801
0.8520121574401855	36196076.779019274
0.8551458716392517	37687990.907739356
0.8582990765571594	39606420.678490974
0.8614717125892639	39291938.47818681
0.8646637797355652	38920993.21650463
0.8678751587867737	40204200.520358704
0.8711057901382446	41750290.52471301
0.8743556141853333	43152317.84634909
0.87762451171875	44750465.35275725
0.8809124231338501	46278836.85046361
0.8842192888259888	47713243.48143199
0.8875449895858765	48968537.74213394
0.8908893465995789	49327897.04198591
0.894252359867096	49152725.00021586
0.8976338505744934	50734652.72533657
0.9010337591171265	53319594.00710748
0.9044519662857056	54994484.71183283
0.9078882932662964	56180762.84215852
0.9113426208496094	57198762.583298154
0.914814829826355	58166966.29729874
0.9183048605918884	59187959.83017844
0.9218124747276306	60077292.09672353
0.925337553024292	59801908.94350415
0.9288799166679382	58415168.264028385
0.9324395060539246	58325250.78582582
0.9360161423683167	60314335.80230908
0.9396095871925354	62693962.6959167
0.943219780921936	64124688.925377786
0.9468464851379395	64813412.085091144
0.9504896402359009	65640978.33219856
0.9541489481925964	66640281.06843482
0.9578243494033813	67566809.68032901
0.9615156054496765	68622820.46730562
0.9652225375175476	70038982.58800347
0.9689450263977051	71597540.68560854
0.9726828336715698	73030072.30371436
0.9764357805252075	74352595.35769272
0.9802037477493286	75645703.74292488
0.983986496925354	76934179.99316078
0.9877838492393494	78382613.65686175
0.9915955662727356	79866267.80752766
0.9954215884208679	80715858.1832498
0.9992615580558777	80983769.19098465
1.0031154155731201	81755396.43236713
1.0069829225540161	83258288.47054474
1.0108637809753418	84828503.31608163
1.0147579908370972	86224620.30030076
1.018665075302124	87453517.03655778
1.022585153579712	88603239.14275472
1.0265177488327026	89791483.63113181
1.0304628610610962	90931781.22916326
1.0344202518463135	91967894.25536774
1.0383895635604858	93032199.58063377
1.0423706769943237	94296573.48832706
1.0463634729385376	95839957.87700008
1.0503677129745483	97469458.81459863
1.0543830394744873	98904504.90423656
1.058409333229065	100111108.11390436
1.0624464750289917	101152616.89859366
1.0664942264556885	102048771.84939246
1.0705522298812866	102831925.96186292
1.0746204853057861	103545276.09343404
1.0786986351013184	104222555.54346716
1.0827864408493042	104843065.63202916
1.086883783340454	105285775.84998249
1.0909905433654785	105335986.61106166
1.0951062440872192	104885879.58681428
1.0992310047149658	103996038.24472293
1.10336434841156	102694981.90327638
1.1075061559677124	100941353.01082204
1.1116561889648438	99133975.84984277
1.115814208984375	98409144.57113075
1.1199802160263062	99248978.32175635
1.124153733253479	101226828.61364616
1.1283347606658936	102437986.65921792
1.1325229406356812	100880361.93307169
1.1367181539535522	101154920.07018399
1.1409201622009277	104948658.74138798
1.145128846168518	107180163.76152103
1.1493438482284546	107573534.97491129
1.1535650491714478	107278850.58403349
1.1577922105789185	107029591.37625723
1.1620250940322876	107449600.48896208
1.1662636995315552	108028234.7577062
1.170507550239563	109468228.26278107
1.174756646156311	111387304.99100477
1.1790107488632202	113973783.38644794
1.1832695007324219	118043413.14172642
1.1875330209732056	121558380.34914431
1.191800832748413	123934370.55647385
1.1960728168487549	126045725.03082402
1.2003488540649414	127751208.29715012
1.2046287059783936	129149976.22758403
1.2089121341705322	130354128.81261419
1.2131990194320679	131441803.19581175
1.2174891233444214	132492078.86837418
1.2217823266983032	133457208.79693401
1.2260783910751343	134345705.1668952
1.230377197265625	135218749.3737873
1.2346785068511963	136064748.31748003
1.238982081413269	136827583.3631791
1.2432878017425537	137454855.19503322
1.2475954294204712	138015564.41886058
1.2519049644470215	138520323.1085691
1.256216049194336	139268973.46898553
1.2605286836624146	140166801.69597024
1.2648425102233887	140805603.2801898
1.2691574096679688	141307053.47481585
1.2734732627868652	141744265.62289304
1.2777899503707886	142128775.85266578
1.2821072340011597	142446104.0709991
1.2864248752593994	142730377.6646611
1.2907428741455078	143003787.09319878
1.2950609922409058	143309281.4244383
1.2993791103363037	143696076.88269407
1.303696870803833	144154600.78478757
1.3080145120620728	144667364.97903717
1.3123314380645752	144984928.35322902
1.3166478872299194	145208746.8393648
1.3209635019302368	145100359.48230615
1.3252781629562378	142782191.56795666
1.3295916318893433	134167150.84849219
1.3339040279388428	117226380.55811028
1.3382149934768677	100006057.44327602
1.3425244092941284	89973684.75506154
1.3468321561813354	83313877.76413146
1.3511382341384888	76706080.20781808
1.3554422855377197	72446792.96257764
1.3597444295883179	73558974.1186386
1.3640443086624146	78943739.293688
1.3683418035507202	82655401.7425425
1.3726370334625244	84229419.684987
1.3769296407699585	87592201.45726208
1.381219506263733	89021841.11160684
1.3855066299438477	88055388.0109313
1.3897908926010132	86927446.88326634
1.3940720558166504	84133818.00844392
1.3983501195907593	81987675.79965313
1.4026249647140503	82334446.2112004
1.4068963527679443	82121009.91477728
1.4111642837524414	79962860.18682645
1.4154287576675415	78756453.10016093
1.419689416885376	77929549.81828634
1.4239463806152344	77037626.74604176
1.4281994104385376	78669523.8512574
1.4324485063552856	82369238.24106589
1.436693549156189	85650174.74251254
1.440934419631958	87859863.99137753
1.4451709985733032	90352077.5782346
1.449403166770935	95461489.81191099
1.453631043434143	101850064.20781817
1.4578542709350586	106763080.0378095
1.4620729684829712	108923591.84467798
1.4662868976593018	109358830.17676748
1.4704961776733398	110593632.93669598
1.4747005701065063	113248822.95435295
1.4788999557495117	116093193.73881175
1.4830944538116455	118376569.32810982
1.4872838258743286	120491565.24069639
1.491468071937561	122605089.27113336
1.4956470727920532	125306450.65142041
1.4998208284378052	128254695.70275246
1.5039892196655273	131214211.39067681
1.5081522464752197	134163146.6224059
1.5123097896575928	137065102.12011808
1.5164618492126465	139908057.98735026
1.5206083059310913	142888240.29476875
1.5247491598129272	145853108.0530076
1.5288842916488647	148208815.74252218
1.5330137014389038	150459165.10534364
1.5371372699737549	152912966.93214706
1.541254997253418	155067683.210702
1.545366883277893	157068900.4946341
1.5494728088378906	158858548.57022515
1.5535727739334106	159823958.4266044
1.5576666593551636	159859961.44937357
1.561754584312439	160143656.07329944
1.5658363103866577	161634985.19827244
1.5699119567871094	163415320.24819255
1.5739814043045044	164544060.28534523
1.5780447721481323	164739917.65138853
1.582101821899414	164814744.9636051
1.5861525535583496	165359437.33226222
1.5901970863342285	165899499.01859954
1.5942351818084717	166250348.83133677
1.5982669591903687	166475888.02198815
1.6022924184799194	166530774.46791166
1.606311559677124	166521058.7075557
1.6103241443634033	166510511.68730596
1.6143304109573364	166391195.07891428
1.6183301210403442	166260923.62505507
1.6223233938217163	166584594.869493
1.6263102293014526	167014439.6316464
1.6302905082702637	166850534.36686963
1.634264349937439	166448241.20166463
1.638231635093689	166219924.4152237
1.6421923637390137	166001620.00986028
1.646146535873413	165841903.870309
1.6500942707061768	165934339.47644764
1.6540353298187256	165867933.0122371
1.6579699516296387	165396079.38440928
1.661897897720337	164897704.94176695
1.6658192873001099	164087593.81606048
1.6697341203689575	163086712.0638748
1.6736423969268799	163233341.73675993
1.677544116973877	164308960.74553335
1.6814392805099487	164452571.33262792
1.6853278875350952	163114967.4964315
1.6892099380493164	161625437.93595994
1.6930854320526123	160845026.4667087
1.696954369544983	160510363.36811796
1.7008168697357178	160812937.16138232
1.7046726942062378	161168669.22966468
1.708522081375122	160636850.77000603
1.712364912033081	159519890.82886142
1.7162011861801147	158080109.0528746
1.7200311422348022	156343128.8100112
1.723854422569275	154246770.12421975
1.7276713848114014	152263713.9027269
1.731481909751892	150429791.8994844
1.7352858781814575	148022644.93120238
1.7390835285186768	144961002.82179633
1.7428747415542603	141782338.85040206
1.7466596364974976	138777961.41639304
1.7504380941390991	135902553.7422747
1.7542102336883545	132453933.25685048
1.7579760551452637	129400327.64302768
1.7617355585098267	127481836.9189625
1.7654887437820435	124193967.1601505
1.7692357301712036	119479140.82002135
1.7729763984680176	115258179.63822956
1.776710867881775	111634200.3409901
1.7804391384124756	107713860.17348506
1.7841613292694092	102704113.32310288
1.7878772020339966	100471405.26508805
1.7915871143341064	100000528.47626433
1.7952908277511597	98387850.34880017
1.7989884614944458	94880657.84669977
1.8026801347732544	89782387.09904613
1.806365728378296	87560801.99686138
1.8100452423095703	87812829.99397936
1.8137187957763672	90262304.37458488
1.817386507987976	89060963.20714287
1.8210482597351074	86356041.59878418
1.8247040510177612	89629012.3278871
1.828354001045227	90418294.80086818
1.8319982290267944	87756149.33622679
1.8356364965438843	85548654.60802956
1.8392690420150757	83434251.43052949
1.8428958654403687	81002396.42098641
1.8465168476104736	77217217.55523367
1.8501322269439697	76367988.79667763
1.8537418842315674	75187575.85681647
1.8573459386825562	68382251.79203258
1.860944390296936	63290314.328383975
1.864537239074707	64071277.73578184
1.8681244850158691	67850582.11706078
1.871706247329712	71984029.82129513
1.8752825260162354	75872286.42003319
1.8788533210754395	81669333.10123354
1.8824186325073242	88173429.66895436
1.8859784603118896	91507014.90733477
1.8895330429077148	91910472.75430687
1.8930821418762207	94154692.60365842
1.8966259956359863	98372864.57030343
1.9001644849777222	99292907.92982645
1.9036977291107178	97646318.18394211
1.9072256088256836	98053660.24023464
1.9107483625411987	98483366.66346593
1.9142658710479736	97955631.49916524
1.9177782535552979	97869856.66655758
1.9212853908538818	95189562.28473392
1.9247875213623047	92441898.36929753
1.9282845258712769	91143391.83448923
1.9317764043807983	88469788.73310004
1.9352631568908691	84335455.45119177
1.9387450218200684	77909023.48881933
1.942221760749817	76750137.90724547
1.9456936120986938	81672704.64383434
1.9491604566574097	83834675.81754756
1.952622413635254	82028487.68128465
1.956079363822937	79334429.23204406
1.959531545639038	79485043.10555649
1.962978720664978	81134130.2601818
1.966421127319336	83896682.89562131
1.9698586463928223	85383852.75246295
1.9732913970947266	83053893.12292168
1.9767193794250488	82665971.79086635
1.9801424741744995	84762914.75971387
1.9835609197616577	87636833.40683721
1.9869745969772339	89120849.55284591
1.990383505821228	86815032.73064661
1.9937876462936401	88314172.95189115
1.9971871376037598	90908375.71523865
2.000581979751587	92353064.161509
2.003972291946411	96162838.24487117
2.007357597351074	96275778.32582906
2.0107386112213135	96274660.02092046
2.0141148567199707	99656775.08117911
2.017486572265625	100839081.5868217
2.0208535194396973	104063486.7931533
2.0242159366607666	108179537.87222654
2.027573823928833	106994975.41491415
2.0309269428253174	108073629.19805557
2.034275770187378	112987427.07419002
2.0376198291778564	115352384.23405068
2.040959596633911	115699707.6331106
2.044294595718384	117116973.32503574
2.0476250648498535	119572680.80890843
2.0509510040283203	120454563.95414016
2.054272413253784	121177787.59446505
2.057589530944824	124585670.35184081
2.0609018802642822	125996805.47464234
2.0642096996307373	125428435.09392421
2.0675129890441895	127254767.56019934
2.0708119869232178	128530854.6009522
2.074106216430664	128300140.8299825
2.0773961544036865	128984255.15362287
2.080681324005127	130016017.03897867
2.0839622020721436	130547727.6121335
2.087238311767578	131037109.17926712
2.090510129928589	131722067.66937831
2.0937774181365967	132087479.73104571
2.0970399379730225	132189896.19795297
2.1002981662750244	132352037.94371322
2.1035518646240234	132242997.1165169
2.1068007946014404	132204835.4127559
2.1100454330444336	132430613.62878606
2.1132853031158447	132692669.23237862
2.116520881652832	132414964.21409988
2.1197516918182373	132153611.0382981
2.1229779720306396	132576187.32877092
2.12619948387146	132567456.02515599
2.1294167041778564	131942236.68037157
2.132629156112671	131893372.0669763
2.1358368396759033	132001131.33770256
2.139039993286133	131328049.6142756
2.1422386169433594	130811178.910596
2.145432472229004	130924247.29912621
2.1486217975616455	130720771.70232242
2.151806354522705	130143800.10117069
2.1549863815307617	129842256.40648992
2.1581614017486572	129668607.35387631
2.16133189201355	129387182.98263808
2.1644976139068604	129000287.91521898
2.167658567428589	128614638.52147736
2.1708147525787354	128162363.5170606
2.173966407775879	127472765.83126482
2.1771130561828613	126727002.63380624
2.1802549362182617	126354457.87794586
2.183391809463501	126012603.106574
2.1865241527557373	125313070.86143221
2.1896514892578125	124719794.27797653
2.1927738189697266	123864185.89479339
2.1958916187286377	122325945.67356677
2.1990041732788086	120644818.72748399
2.2021119594573975	119061470.05173737
2.2052149772644043	117940049.01647192
2.208312749862671	117780814.06384884
2.2114057540893555	118349879.03167471
2.214493751525879	118897939.93911165
2.217576742172241	118323413.67613053
2.2206547260284424	117247765.8670859
2.2237277030944824	117267956.11798726
2.2267956733703613	117258405.06908889
2.2298583984375	116776295.2927922
2.2329163551330566	116288209.30690905
2.235969066619873	115523861.78547393
2.2390167713165283	114679901.50128147
2.2420592308044434	113401217.38058472
2.2450966835021973	112394516.35848676
2.248128890991211	112129091.18480839
2.2511560916900635	112038512.24487814
2.254178285598755	111831928.04492183
2.257194995880127	111675172.08491534
2.260206699371338	111563210.83866787
2.2632133960723877	110498144.0622042
2.266214609146118	108998522.43210664
2.2692108154296875	108105026.17566942
2.2722020149230957	108078390.40273328
2.2751877307891846	108653203.07105342
2.278168201446533	108056417.87503555
2.2811436653137207	106597207.78737378
2.284113883972168	106298247.56153491
2.287078857421875	106428097.75647262
2.290038824081421	103184312.1883477
2.2929933071136475	93412273.35217088
2.295942783355713	83352833.15607183
2.298887014389038	80358500.40850563
2.301826238632202	81514791.42016508
2.304760217666626	82602606.85634433
2.3076889514923096	82677984.33363102
2.310612440109253	82471780.74587043
2.3135311603546143	82207466.20445518
2.3164443969726562	81109392.38989213
2.319352865219116	79590027.16796169
2.322256088256836	76710078.24387838
2.3251543045043945	74456227.47347526
2.328047275543213	74770415.3325216
2.330935478210449	75875635.92474544
2.3338186740875244	77527240.18662265
2.3366971015930176	78432704.38586798
2.3395702838897705	77709096.72060668
2.3424389362335205	77482970.3342898
2.3453025817871094	79772997.137983
2.348161458969116	82358919.89300981
2.351015567779541	80814236.6080293
2.353865146636963	78528932.67033324
2.3567099571228027	78193890.71834244
2.3595502376556396	77519236.35065466
2.3623859882354736	77480828.10085072
2.3652172088623047	77635224.61235793
2.368043899536133	76518079.77866602
2.370866537094116	75397963.96305157
2.3736846446990967	76436323.41392674
2.3764986991882324	77071998.35686837
2.3793084621429443	75632012.3042285
2.3821144104003906	73485749.52695832
2.384916305541992	71596732.89131568
2.387714147567749	72611591.05299975
2.3905084133148193	75284048.34476608
2.393299102783203	75768068.92338142
2.3960859775543213	75498111.11424965
2.398869514465332	76280775.68279304
2.4016497135162354	75965714.81468819
2.4044265747070312	74969024.05938777
2.407200336456299	73082318.09042354
2.409970998764038	71244674.75300118
2.4127390384674072	71022592.77788676
2.415503978729248	70069159.15031408
2.418266534805298	68455200.28555053
2.4210267066955566	68314310.90694787
2.4237842559814453	68498090.59993161
2.426539897918701	67407739.8599238
2.429293394088745	66880020.114531316
2.4320452213287354	65214064.55586826
2.4347951412200928	61219294.0999358
2.4375438690185547	61235709.001767434
2.440291166305542	63685031.24828379
2.443037271499634	61201966.81137988
2.445782423019409	57101977.90092188
2.4485268592834473	56032217.643997215
2.451270818710327	53208127.68802757
2.454014539718628	50496946.40831328
2.4567582607269287	56121750.73453772
2.4595019817352295	57590998.15157748
2.4622461795806885	55021949.10582074
2.4649908542633057	55582336.41509652
2.4677364826202393	50678257.94180355
2.4704833030700684	45491548.777538225
2.473231554031372	42277467.08514051
2.4759814739227295	41656322.14208079
2.4787333011627197	43614032.85545464
2.481487512588501	43962174.10204914
