#wavelength	surface flux
0.676892	449613.3823044106
0.678297	477652.5354544074
0.679702	505291.8990511103
0.681109	531205.8898811343
0.682517	553674.7080804945
0.683926	576741.4274138001
0.685337	596357.351567414
0.686749	613045.3902820661
0.688164	627882.4714910995
0.689581	637994.8906902527
0.691	627762.5011082083
0.692422	639862.6560070099
0.693847	629395.2596570088
0.695274	654214.6760408625
0.696705	656853.8588618212
0.698139	658172.0221272587
0.699576	654328.8929158369
0.701017	644712.191019665
0.702461	637826.3667930854
0.70391	628405.5678044006
0.705362	608198.5656322797
0.706819	591807.1729232536
0.70828	576406.2175267554
0.709745	550734.1464714645
0.711216	531994.5661972614
0.71269	509743.10192459467
0.71417	486944.7151403928
0.715655	452592.87962470093
0.717145	421032.2244768426
0.71864	389213.24091899727
0.72014	373065.3660368988
0.721647	353028.9211681103
0.723158	341478.246875106
0.724676	313783.5166401378
0.726199	286832.6583133782
0.727728	250600.2418087382
0.729264	244583.2838365427
0.730805	220490.841548838
0.732353	208215.69798001685
0.733907	188067.1375549584
0.735468	161804.49460196338
0.737035	152522.9201480616
0.738609	136512.22493120108
0.74019	121305.92273856176
0.741777	106577.3371616669
0.743372	93220.53187206328
0.744973	80249.96932836054
0.746582	68050.51067323514
0.748197	56797.43696206728
0.74982	47384.262832849505
0.751451	38541.30072798766
0.753088	30846.057528861005
0.754734	24220.577068925042
0.756386	18584.036996991083
0.758047	13893.318215457099
0.759715	10069.819507794648
0.76139	6993.193995630491
0.763074	4514.455248566126
0.764765	2291.2266121053517
0.766464	678.2700947530313
0.768172	1499.5196045112532
0.769887	1030.637340361796
0.77161	3478.365362978028
0.773341	6955.081285063739
0.775081	11113.522171254685
0.776829	16454.628723176807
0.778585	20691.3650755163
0.780349	21946.673089483967
0.782121	41864.268688511824
0.783902	56685.32212237723
0.785691	73247.05141257102
0.787489	93256.35561159412
0.789295	116291.93201783771
0.79111	141441.3473451002
0.792933	152436.93044359883
0.794764	102645.28415876025
0.796604	217858.3841554379
0.798453	284564.73703870067
0.80031	337976.1635181385
0.802176	393472.25627852627
0.804051	456239.1445261108
0.805934	521148.74587755883
0.807826	592947.2186162559
0.809727	667641.0129231052
0.811636	744658.1276248187
0.813554	821005.6126059032
0.81548	924508.8295679864
0.817416	1026573.3995717943
0.81936	1019548.1891893337
0.821313	1281194.91132038
0.823274	1441097.1168334458
0.825244	1552464.047326016
0.827223	1748718.9983735175
0.829211	1857307.9492865263
0.831208	2000358.6990621262
0.833213	2290454.541288762
0.835227	2450472.3070502672
0.837249	2493034.0063007674
0.83928	2835758.975561462
0.841321	3138666.4785050205
0.843369	3360425.464587978
0.845427	3566209.92755312
0.847493	3945603.470101073
0.849567	3876130.098197221
0.851651	2716514.4148010896
0.853742	4242046.823859638
0.855843	5111576.749447757
0.857952	5487731.833204974
0.86007	5754128.13860383
0.862196	4347088.566468052
0.864331	4688821.607491059
0.866474	5297095.448843279
0.868626	5444244.396703823
0.870786	5348064.960770421
0.872955	5657499.148198856
0.875132	5252394.00094155
0.877317	7291292.963072003
0.879511	7641106.114296255
0.881713	6942070.983425879
0.883923	7383452.395557866
0.886142	8362332.398171311
0.888369	7839656.974412036
0.890604	9020108.060831167
0.892847	7282625.753252302
0.895099	6350636.7326404
0.897358	9774501.346613077
0.899626	11213655.489494106
0.901901	12312875.393717181
0.904185	14724329.590152193
0.906476	14143207.6096105
0.908776	12007343.15727134
0.911083	14009629.47499359
0.913398	14708469.586638082
0.915721	17219040.26219995
0.918051	17667674.226623796
0.92039	19620506.56280677
0.922736	18534571.67780513
0.925089	17154145.899376165
0.927451	14061545.624336153
0.929819	10164390.786113
0.932195	7666544.302674567
0.934579	7398786.390439394
0.93697	16224385.492714003
0.939369	18284762.24265056
0.941774	16234206.07629476
0.944187	14271128.141210996
0.946607	19048103.90632527
0.949035	20541693.639705095
0.951469	13485590.22348129
0.953911	16600876.559655793
0.956359	14073325.094359854
0.958814	19065077.84616102
0.961277	14222758.115043432
0.963746	13221424.50142999
0.966222	19243345.7328792
0.968705	20684899.170755398
0.971194	23170743.0641751
0.97369	21004505.933413245
0.976193	26903762.24162624
0.978702	25320886.213833924
0.981217	26703046.767394196
0.983739	21578000.95745787
0.986268	27342736.89958422
0.988802	29529812.52021083
0.991343	24619006.867964856
0.99389	29784924.534912843
0.996444	31174949.37406083
0.999003	17883567.16594924
1.00157	19299082.423138037
1.00414	21937895.577494532
1.00672	23388587.423912607
1.0093	22980889.307635643
1.01189	24946301.744213637
1.01448	30534662.190399405
1.01708	31020078.729249213
1.01969	37539809.88581438
1.0223	38004533.76074924
1.02492	38119945.05932964
1.02754	38113424.302966595
1.03017	46765905.383495346
1.0328	45524622.81595768
1.03544	47230313.363918155
1.03808	57420789.19111323
1.04073	55105529.865943864
1.04339	56064947.32398122
1.04604	52235611.62340527
1.04871	53101714.078676835
1.05138	54998442.62118682
1.05405	60285197.47987674
1.05673	56082905.72056501
1.05941	65197977.14398741
1.0621	61447671.01204849
1.06479	66343526.65672056
1.06749	69004599.39583811
1.07019	77044714.77808663
1.07289	74269413.68396701
1.0756	75764697.43358961
1.07832	75044685.52624623
1.08104	77097278.54754905
1.08376	76496387.69552395
1.08649	70308677.85355844
1.08922	58874973.758456305
1.09195	49212756.68110463
1.09469	44890572.973746136
1.09743	35133132.16405609
1.10018	34056865.72628225
1.10293	27972079.08044855
1.10568	21277384.49743784
1.10844	25967308.656082325
1.1112	21242033.017845917
1.11396	17821631.469915777
1.11673	12191879.689624155
1.1195	18642486.949553538
1.12228	15087430.131751332
1.12505	17151551.538100652
1.12783	24117695.497998744
1.13062	21703238.26029354
1.13341	8771147.178063288
1.1362	11438708.301647091
1.13899	14583501.854562096
1.14178	22828826.933434233
1.14458	18228708.700909097
1.14738	19473777.626128852
1.15019	29086411.119941317
1.153	22191011.504841127
1.1558	15990061.903080625
1.15862	25577284.718166556
1.16143	16077486.654910522
1.16425	10309629.403558653
1.16707	15723451.13188282
1.16989	16091091.67137818
1.17271	24228201.40569385
1.17554	21059906.095991474
1.17837	13960391.112092642
1.1812	30068249.22272248
1.18403	33805868.76269992
1.18686	29872232.016917586
1.1897	33666583.07788923
1.19253	38445174.983510695
1.19537	44933355.33770849
1.19822	38795305.39871533
1.20106	40908049.41097683
1.2039	46564735.23930025
1.20675	54240654.053948775
1.2096	63140009.268342376
1.21245	65183115.877364166
1.2153	66487051.58720609
1.21815	67134405.78165026
1.221	69885597.57924606
1.22385	76148528.53547692
1.22671	78105917.63399142
1.22957	85040461.85203852
1.23242	87502110.00712043
1.23528	81312062.29252115
1.23814	86086566.10086192
1.241	86716514.59069304
1.24387	72351631.77296512
1.24673	95187579.2040759
1.24959	83763646.72067684
1.25245	55195238.99210226
1.25532	94097479.2070236
1.25818	103572867.91968276
1.26105	111046639.71821876
1.26392	86721749.69558029
1.26678	100823524.82044695
1.26965	86449252.32487462
1.27252	105870214.17182751
1.27538	110375527.02760312
1.27825	101655463.06738321
1.28112	105324373.03756724
1.28399	83137057.583614
1.28686	87334617.6705692
1.28973	83047744.60699242
1.2926	88823436.06803954
1.29546	76387221.04377621
1.29833	66868464.58371023
1.3012	86773526.05138405
1.30407	88967705.52212444
1.30694	69811015.18031275
1.30981	73447111.14136885
1.31267	78842743.3170593
1.31554	62066417.24682367
1.31841	58243591.12864466
1.32128	64958877.17424135
1.32414	45815444.97643827
1.32701	27566841.797239635
1.32987	21055617.44309416
1.33274	15995748.264191551
1.3356	12037730.72466864
1.33847	3943180.62798474
1.34133	3433471.58572476
1.34419	3865664.2701489283
1.34705	3314836.9579536123
1.34991	4625179.164955122
1.35277	5263211.740985612
1.35563	2232357.5019996115
1.35849	2409143.0569149028
1.36135	3062638.1643998805
1.3642	4549960.801706477
1.36706	3999220.4884438
1.36991	3327752.3809708394
1.37277	4073622.978382039
1.37562	2426729.1473670513
1.37847	1823671.9444437486
1.38132	4012608.2319280813
1.38417	1885941.2045121114
1.38701	536109.6534061923
1.38986	2520189.72168327
1.39271	3323025.9176237285
1.39555	2298514.9665163294
1.39839	3785677.193721968
1.40123	5629118.102647978
1.40407	4889697.286034407
1.40691	3189305.885371773
1.40974	2332482.1318185832
1.41258	4256812.4202076085
1.41541	4096258.6108610556
1.41824	1869650.9544974952
1.42107	1083985.3540083552
1.4239	1243853.6722544734
1.42673	4277543.757416223
1.42955	5578702.119374232
1.43237	3363187.138864146
1.43519	5920242.811409432
1.43801	6835650.0920474855
1.44083	5161504.423161401
1.44365	5679041.101038581
1.44646	5120673.399388183
1.44927	6524177.500148073
1.45208	9749993.529835885
1.45489	8458873.630255356
1.45769	12672941.731460286
1.4605	10863994.27020166
1.4633	6461227.912033421
1.4661	9514430.66630416
1.4689	9192334.303974759
1.47169	8399057.644520873
1.47449	9293261.127716685
1.47728	9725144.496925006
1.48007	9884595.627153425
1.48286	10138744.65392822
1.48564	9377398.465518855
1.48842	10789025.310262743
1.4912	13783901.17568772
1.49398	9783762.275142761
1.49676	13012321.818181239
1.49953	14280671.822566444
1.5023	20701042.50590389
1.50507	23801850.79183839
1.50784	18895165.13810663
1.51061	20845937.840947744
1.51337	23387161.560384575
1.51613	17644949.884973608
1.51888	14961232.185162095
1.52164	18352625.722092006
1.52439	24031153.383028112
1.52714	18225101.046834387
1.52989	19692550.770668518
1.53263	24710467.439625725
1.53538	29336721.285924334
1.53812	24192721.043583464
1.54086	21659165.832257066
1.54359	18188226.537610803
1.54632	25500504.353257194
1.54905	28464066.732969057
1.55178	28489365.48860091
1.5545	26343069.185108494
1.55723	29351616.19118695
1.55995	33143002.235855557
1.56266	31876295.900223706
1.56538	37186976.67546953
1.56809	43469464.49706428
1.5708	39321362.30204703
1.57351	42213904.361261226
1.57621	40774599.08459127
1.57891	38864258.36322728
1.58161	45093386.73439196
1.5843	43862845.563726775
1.587	44854109.78459315
1.58969	43216025.39184194
1.59238	38583116.62607082
1.59506	45392338.611082494
1.59774	48575106.30307755
1.60042	42162715.942706585
1.6031	39005367.233579904
1.60577	36895697.06920346
1.60844	32341781.319776513
1.61111	36888100.42320837
1.61378	36856165.39822409
1.61644	35251360.201165594
1.6191	32467813.04389573
1.62176	35294640.479792975
1.62441	36418238.64203901
1.62707	39455847.76753072
1.62971	38237736.92579686
1.63236	40007418.24458036
1.635	48094139.78419166
1.63764	50904018.15411427
1.64028	36469454.47227299
1.64292	35581144.81766872
1.64555	31413550.638414152
1.64818	31981475.471246053
1.65081	41689931.16222183
1.65343	42425945.95133273
1.65605	34064174.74043933
1.65867	32567273.232599556
1.66128	43535722.40058176
1.6639	35014063.62271798
1.66651	11171576.027544357
1.66911	4832385.168414033
1.67172	14447338.699661497
1.67432	24379504.642505474
1.67692	31702968.674674172
1.67951	28827005.241065096
1.68211	25056847.1164107
1.6847	17653225.250950083
1.68728	17425582.64952783
1.68987	17457735.933938324
1.69245	15129891.114548385
1.69503	13307649.098995566
1.6976	14386953.418249374
1.70018	15719769.3341156
1.70275	11214466.69505959
1.70531	10078606.251072379
1.70788	14580710.902661258
1.71044	19642197.719670277
1.713	24256229.396886725
1.71556	26152031.537330717
1.71811	26797010.37131416
1.72066	20314450.156285994
1.72321	12037430.43079451
1.72575	16272829.391339222
1.7283	22267719.698045354
1.73084	22616088.36331521
1.73337	15362304.414656127
1.73591	13435855.66511854
1.73844	15780531.815868571
1.74097	14084207.500150226
1.74349	13963869.015983338
1.74602	17397383.286958624
1.74854	21501946.742331795
1.75105	21546569.965527922
1.75357	16325712.18667649
1.75608	11136227.03168921
1.75859	9465116.492516955
1.7611	9041336.55199172
1.7636	11277035.38688785
1.7661	11002796.054071506
1.7686	10086617.287530255
1.7711	12176682.497254608
1.77359	8997369.589014066
1.77608	6072945.089887895
1.77857	9901336.919504697
1.78105	12462800.791901592
1.78354	9245848.781220838
1.78602	8040926.358531488
1.78849	9279323.47486067
1.79097	8131227.91216807
1.79344	7626866.502023399
1.79591	8903844.78781242
1.79837	11914489.329109011
1.80084	8721000.880499864
1.8033	8052264.940483659
1.80576	8072907.71217377
1.80821	8344847.442224837
1.81067	8337836.8791999705
1.81312	9115704.30892561
1.81557	9661077.881696386
1.81801	5934950.8984046485
1.82046	5480852.552493379
1.8229	7422924.754158431
1.82533	6445800.14273126
1.82777	6144336.62198391
1.8302	7022703.556524156
1.83263	6482471.055629718
1.83506	5694584.735954084
1.83749	6182138.838805075
1.83991	7021465.19995276
1.84233	8114915.86679925
1.84475	9188881.745109906
1.84716	7725103.81063252
1.84957	7086991.374990156
1.85198	6825298.36557076
1.85439	6092028.5132703595
1.8568	4719826.435468051
1.8592	3337052.637075177
1.8616	4033868.14962193
1.864	4460183.144070757
1.86639	3735924.3681642087
1.86878	3743801.830310601
1.87118	5908007.249043749
1.87356	6301196.690944759
1.87595	5962690.295417189
1.87833	8893459.587762037
1.88071	11290252.340602128
1.88309	9378713.774466693
1.88547	8664731.871575551
1.88784	10418487.378039036
1.89021	11294161.964744376
1.89258	12463067.732758423
1.89494	14472825.775875123
1.89731	12845639.973434582
1.89967	9360154.777406478
1.90203	8994899.019404449
1.90439	9572949.99328446
1.90674	11853445.62788481
1.90909	12469026.727796901
1.91144	8291166.567352945
1.91379	8164462.517461847
1.91613	11758623.902352668
1.91848	12820514.17786401
1.92082	10367782.84335165
1.92315	8966205.318832897
1.92549	9766015.835802387
1.92782	10115686.133259553
1.93015	8043988.895361958
1.93248	6113525.212696923
1.93481	5084923.541601959
1.93713	3768462.696374963
1.93945	3731011.1416425225
1.94177	6538812.015651135
1.94409	8513129.277264552
1.94641	8691433.31800672
1.94872	9378069.647982271
1.95103	11527317.87159299
1.95334	10910873.81853325
1.95564	7904109.0132703055
1.95795	7099400.780279721
1.96025	5934275.338936499
1.96255	5527728.4341888735
1.96484	7986760.583555896
1.96714	9623794.684516989
1.96943	8811954.446868232
1.97172	9469943.754361827
1.97401	9900179.927072324
1.97629	9567383.673662405
1.97858	10361664.293084322
1.98086	9550557.920088716
1.98314	7403119.864365912
1.98541	7930173.175913534
1.98769	11074963.727655927
1.98996	11645951.738325918
1.99223	10580324.63671988
1.9945	11488099.948929548
1.99677	11907399.47597837
1.99903	11134961.065566828
2.00129	10693493.295946693
2.00355	11395079.714068936
2.00581	12722322.94258452
2.00806	12980753.74999832
2.01031	13916192.357187448
2.01256	17638785.45111673
2.01481	19006160.934843674
2.01706	15952722.510717701
2.0193	15327503.201025145
2.02154	17674732.906089902
2.02378	17620210.0794794
2.02602	15011217.001416333
2.02825	14345952.449774023
2.03049	15846024.533097321
2.03272	18680860.932531066
2.03494	19570366.589005504
2.03717	18578434.804453406
2.03939	18338861.728929013
2.04162	20278948.37221347
2.04384	22959182.20671466
2.04605	23041332.802946527
2.04827	21260843.843645897
2.05048	21533979.324874245
2.05269	21330059.248579357
2.0549	18951662.158184625
2.05711	20297850.656985275
2.05931	22100853.171519943
2.06151	21654641.29849422
2.06371	20993159.132539947
2.06591	20191344.714046974
2.06811	21379372.727281027
2.0703	23484421.602359094
2.07249	24788887.49521399
2.07468	24903792.795492604
2.07686	23810742.351538256
2.07905	23851752.168772247
2.08123	25255926.44270288
2.08341	25665332.495605063
2.08559	24545058.40620629
2.08776	24700891.79590447
2.08994	25915333.86272142
2.09211	26229456.60838548
2.09428	27154024.773679767
2.09645	28260861.455709804
2.09861	27210203.028719645
2.10077	25183242.334313776
2.10293	24446128.634487666
2.10509	25008792.231231067
2.10725	25071633.76847333
2.1094	22754548.016048852
2.11155	19456090.7697826
2.1137	18959811.05454574
2.11585	19693059.180230692
2.11799	20693719.230341293
2.12013	22658808.39740431
2.12227	23465027.526665743
2.12441	23680961.430159815
2.12655	23579842.93456935
2.12868	22405442.103855323
2.13081	21989831.63040974
2.13294	21947617.096335117
2.13507	19923838.977424346
2.13719	18171614.781188313
2.13931	19136683.661867455
2.14143	20273806.037257664
2.14355	19756750.22921372
2.14567	18747075.497845292
2.14778	16578974.927242523
2.14989	14675012.136585394
2.152	14828822.7856597
2.1541	15160331.400348298
2.15621	15024359.56804024
2.15831	14459694.21352887
2.16041	13044691.758661335
2.16251	12581368.932517475
2.1646	12785149.663198164
2.1667	12533306.924684437
2.16879	13107222.746104762
2.17087	14306647.639004057
2.17296	14268226.056420492
2.17504	13777690.005247446
2.17713	13824828.580216845
2.1792	13235890.722225001
2.18128	11274911.538159203
2.18336	8688039.524579644
2.18543	7390608.765117026
2.1875	7186721.48603257
2.18957	6876851.038138141
2.19163	7029408.296795683
2.1937	7812256.534504
2.19576	7275152.045942737
2.19782	5071580.671791778
2.19987	2975388.197793416
2.20193	2133787.1725515993
2.20398	2074244.0588336969
2.20603	2001402.1895229958
2.20808	1995331.746239001
2.21012	2124869.3022355298
2.21217	2330700.759333318
2.21421	2853328.3065278875
2.21625	3366649.3486185824
2.21828	3481446.823463514
2.22032	3647651.2224799283
2.22235	3857680.921353021
2.22438	3783124.249641307
2.22641	3421590.5800035656
2.22843	3386761.850397494
2.23046	3217994.7199053047
2.23248	2507613.082984909
2.2345	1921534.3460349655
2.23651	1673276.6891456346
2.23853	1662347.4368141645
2.24054	1960243.167566708
2.24255	2446048.659142867
2.24456	2896194.4675414236
2.24657	3113956.7810852136
2.24857	3059923.3698067428
2.25057	2788802.905780333
2.25257	2438529.4118372872
2.25457	2088724.7268043708
2.25656	1830362.150203468
2.25856	1684743.8462656897
2.26055	1612092.2823965105
2.26254	1370900.657136035
2.26453	1171671.5430834673
2.26651	1213764.645081646
2.2685	1341686.284201515
2.27048	1411413.250503808
2.27246	1456128.6348612541
2.27443	1423428.25016006
2.27641	1446263.1022784142
2.27838	1564001.5871132754
2.28036	1549685.8920277643
2.28233	1415759.746914851
2.28429	1275866.7843579152
2.28626	1169002.1325155525
2.28823	1085280.7793056595
2.29019	971840.9418539243
2.29215	838617.0123026597
2.29411	795813.6968175743
2.29607	867532.2156650667
2.29802	1056819.4290892263
2.29998	1347086.4063435195
2.30193	1729267.0216381093
2.30388	2052635.4299822545
2.30583	2227781.629981056
2.30778	2441195.5102786217
2.30972	2710184.7165829316
2.31167	2872386.1834814344
2.31361	2541408.4248198746
2.31555	1859164.1144073608
2.31749	1211848.5910680678
2.31943	994053.2513203399
2.32137	887212.5802196204
2.32331	738670.5922428531
2.32524	615218.7659403132
2.32718	529945.1880268105
2.32911	498156.3994405198
2.33104	532887.950628939
2.33297	616965.1234023165
2.3349	771918.4279186468
2.33683	1025540.8695900316
2.33876	1204828.2723850932
2.34068	1272291.1679902622
2.34261	1315089.814091848
2.34453	1429359.9598179462
2.34646	1590490.7778125666
2.34838	1697839.3802599893
2.3503	1643268.5415399806
2.35223	1584583.525681898
2.35415	1498899.8876733617
2.35607	1313124.2932171149
2.35799	1281258.67054735
2.35991	1510673.0886157872
2.36183	1835906.045448328
2.36375	2065769.7249926943
2.36566	2156467.212573871
2.36758	2075585.3283992186
2.3695	1957297.5308371584
2.37142	1901110.1279986037
2.37334	1794624.5682638406
2.37526	1487677.6755467462
2.37718	1145778.8224308768
2.3791	965373.5303652284
2.38101	901710.6498054363
2.38293	913792.5871307544
2.38485	1083700.5247407868
2.38677	1452671.7904678276
2.3887	1728138.9067791083
2.39062	1670970.0704357147
2.39254	1575453.721443958
2.39446	1770097.7854317236
2.39639	2054225.4509768633
2.39831	2157132.0200319993
2.40024	2213300.425991308
2.40216	2376075.937231713
2.40409	2697412.0769327125
2.40602	2777436.2873830493
2.40795	2619642.7513963035
2.40989	2623042.6089509707
2.41182	2858695.470079903
2.41376	2981883.4505337034
2.4157	3166286.6676185513
2.41764	3248355.6666201754
2.41958	3124789.6995534413
2.42152	2852443.421144683
2.42347	2756819.1731146197
2.42542	2885097.3085371573
