#wavelength	surface flux
0.676892	577584.4909949078
0.678297	612592.1275713982
0.679702	644957.8273985994
0.681109	675314.1392223552
0.682517	702987.2662383402
0.683926	729520.7913919219
0.685337	753280.6877487623
0.686749	774403.199242774
0.688164	792883.925129943
0.689581	807300.9718044169
0.691	810464.2361703967
0.692422	817175.1005624695
0.693847	812504.857621935
0.695274	831926.3567323041
0.696705	835787.0996786252
0.698139	834297.8570536464
0.699576	827185.4321714395
0.701017	816895.3911849739
0.702461	803323.113715628
0.70391	789178.772907599
0.705362	769243.0785841538
0.706819	748303.4045777251
0.70828	726142.3537832318
0.709745	699139.3550408777
0.711216	672048.2172914672
0.71269	643370.9972537596
0.71417	613936.4862143255
0.715655	576566.0498920811
0.717145	537745.760231315
0.71864	505536.3554588689
0.72014	478523.24403658375
0.721647	449411.44967929064
0.723158	423770.92066731467
0.724676	390858.4155625487
0.726199	358256.8926707189
0.727728	323066.2722786175
0.729264	301387.5934840488
0.730805	272627.18816671165
0.732353	252175.20522237255
0.733907	227128.35647969297
0.735468	199550.13692368855
0.737035	181107.52541717334
0.738609	159873.1055592375
0.74019	140370.1114103402
0.741777	121871.42389979733
0.743372	105014.48819076858
0.744973	89271.46684330601
0.746582	74846.12864732636
0.748197	61856.029355981416
0.74982	50605.14118029317
0.751451	40607.838036018504
0.753088	32034.9342177568
0.754734	24835.79728723878
0.756386	18920.5748550002
0.758047	14169.568805077843
0.759715	10441.945930289172
0.76139	7547.1574054134235
0.763074	5214.9417327312685
0.764765	2909.8154242967266
0.766464	975.608342921836
0.768172	2045.0715950943209
0.769887	1433.1413179411636
0.77161	4233.957631940618
0.773341	7739.238474398345
0.775081	11707.458448978585
0.776829	16885.633902098114
0.778585	21103.034059901467
0.780349	22587.638494481747
0.782121	43181.1577930611
0.783902	59350.76086230639
0.785691	77864.91085238036
0.787489	100141.06596562298
0.789295	126192.96160488494
0.79111	155291.05673015726
0.792933	168358.47503013522
0.794764	112681.45081249095
0.796604	246567.92380647277
0.798453	326692.78017209185
0.80031	390542.5637413192
0.802176	458223.53258322115
0.804051	534282.7302148411
0.805934	615033.6977462093
0.807826	703991.2456498463
0.809727	798709.590861978
0.811636	897821.9107382323
0.813554	995975.1688112401
0.81548	1134353.4838170935
0.817416	1258846.0985398472
0.81936	1296102.660693966
0.821313	1577950.4625562457
0.823274	1754884.2348662359
0.825244	1931177.2274583997
0.827223	2152140.5366481366
0.829211	2338868.0970814694
0.831208	2531611.5689042895
0.833213	2822495.964216239
0.835227	3054954.7768177865
0.837249	3261171.332309986
0.83928	3603048.1608551913
0.841321	3921573.4089620775
0.843369	4242097.6354501285
0.845427	4542830.767415552
0.847493	4943918.3611634765
0.849567	5055415.079920025
0.851651	3420155.718051827
0.853742	5317305.664523077
0.855843	6516077.73869997
0.857952	7049018.255762315
0.86007	7315039.869637283
0.862196	5577259.234429914
0.864331	6147852.846293244
0.866474	6923592.8433476435
0.868626	7356971.3847185
0.870786	7216002.866009594
0.872955	7578443.750185824
0.875132	7310493.071416112
0.877317	9875288.714705251
0.879511	10494236.641569672
0.881713	10022842.146325216
0.883923	10918702.981790131
0.886142	11753869.294233171
0.888369	11176807.159490556
0.890604	12877906.623834155
0.892847	10389386.578406308
0.895099	8995807.772740554
0.897358	13893596.16170331
0.899626	16019013.961049661
0.901901	18223547.735321723
0.904185	20432871.924072858
0.906476	19695401.950808357
0.908776	18780765.14070044
0.911083	20530917.528834898
0.913398	21498258.92172545
0.915721	23994932.146985825
0.918051	24699471.557557773
0.92039	28101844.468147285
0.922736	28247554.59622451
0.925089	26708842.842832506
0.927451	21631157.805805337
0.929819	16714806.683572672
0.932195	14996737.321532236
0.934579	16419646.027025739
0.93697	27152602.892975535
0.939369	30004968.527843717
0.941774	29362343.894253265
0.944187	25522290.05524078
0.946607	31417892.819611862
0.949035	32417322.758398432
0.951469	26199332.990528364
0.953911	28819112.402686916
0.956359	24421963.228068165
0.958814	33008492.584758986
0.961277	24931737.65474669
0.963746	24537371.304383468
0.966222	33552328.443723228
0.968705	37576427.85452601
0.971194	41607730.21541905
0.97369	38933328.802135386
0.976193	47192556.58386762
0.978702	46265025.96903739
0.981217	49029271.19833715
0.983739	45619181.88072244
0.986268	53179193.82509597
0.988802	53699072.56617073
0.991343	44249369.074590184
0.99389	49632774.895993866
0.996444	49470849.92396407
0.999003	34523426.281423554
1.00157	33530837.892896283
1.00414	38576809.39175333
1.00672	39514931.52997631
1.0093	41866937.165189065
1.01189	43765091.06706538
1.01448	51674839.12362399
1.01708	53240733.31090223
1.01969	60485136.52409153
1.0223	61882898.008800864
1.02492	62477340.53611297
1.02754	62236906.60280873
1.03017	70862451.54287417
1.0328	73278045.16173081
1.03544	73273591.32865082
1.03808	84593161.25444797
1.04073	84447962.47870813
1.04339	84637784.57136108
1.04604	83140033.38390854
1.04871	83479755.90275396
1.05138	85143775.5478816
1.05405	90418650.05863583
1.05673	88415052.30690068
1.05941	96329666.07288434
1.0621	94731706.16994187
1.06479	101186605.37640634
1.06749	103617192.08931935
1.07019	111307718.16114166
1.07289	110099219.06389752
1.0756	115027399.20573385
1.07832	119058378.29140434
1.08104	118045884.70845962
1.08376	124384007.11480369
1.08649	113922404.03685932
1.08922	106493602.80814154
1.09195	97614093.36624932
1.09469	90728119.27406538
1.09743	73615387.34960786
1.10018	64514557.47214736
1.10293	51939696.41059705
1.10568	39126150.14995325
1.10844	45765147.62858925
1.1112	36319657.68339037
1.11396	30804733.073074654
1.11673	26091071.584945574
1.1195	36127652.562902704
1.12228	29613602.07459266
1.12505	38213560.83240828
1.12783	46943884.70640782
1.13062	41530008.72088688
1.13341	18107733.815271612
1.1362	23408726.913056437
1.13899	30726419.311647616
1.14178	42619337.373240076
1.14458	35591788.732683465
1.14738	37473570.04973456
1.15019	57206151.34443488
1.153	43293041.23689399
1.1558	36378181.576983064
1.15862	50347488.29544867
1.16143	32595714.300286908
1.16425	26148119.223275702
1.16707	26094058.594180476
1.16989	30266372.94648114
1.17271	43496168.15853975
1.17554	34172871.73737845
1.17837	26756874.713934485
1.1812	53366362.40408304
1.18403	56503271.73062786
1.18686	58039714.60502629
1.1897	66268894.614626
1.19253	72350610.64641258
1.19537	79928026.32888183
1.19822	84042347.55592647
1.20106	90855474.72087955
1.2039	93833489.46252726
1.20675	101726814.70265482
1.2096	110587197.94117805
1.21245	115088138.54442826
1.2153	120214094.77493659
1.21815	120928273.66830274
1.221	129752472.72255309
1.22385	136586480.0642753
1.22671	140598690.02622646
1.22957	146021283.24147624
1.23242	149494603.38391936
1.23528	145148015.2906189
1.23814	144645709.07590923
1.241	127233631.60147963
1.24387	103613282.72301266
1.24673	138786404.88469052
1.24959	116989769.75568713
1.25245	76115497.97232527
1.25532	130654466.51603454
1.25818	158345696.00956672
1.26105	171683759.50467214
1.26392	163045324.49225888
1.26678	173863715.22716412
1.26965	166545011.23481196
1.27252	178433029.85817116
1.27538	180363370.43577233
1.27825	178773711.87699115
1.28112	178391359.96916965
1.28399	152241311.9869979
1.28686	158304084.4981562
1.28973	155642224.4086969
1.2926	156662337.75642863
1.29546	138318532.82299942
1.29833	128782585.8499148
1.3012	147511944.12636527
1.30407	152490007.3016218
1.30694	132307128.32864687
1.30981	141778595.65687788
1.31267	141515551.9800166
1.31554	121472562.01864567
1.31841	111534214.24757244
1.32128	124777636.98774959
1.32414	90143609.61134462
1.32701	61549487.647539675
1.32987	47157442.02969927
1.33274	26158452.436074864
1.3356	18496136.721114453
1.33847	5148049.705072769
1.34133	4016772.5564403157
1.34419	5489535.0592223955
1.34705	4387617.708038836
1.34991	5319325.544881972
1.35277	6163297.363111382
1.35563	2381523.112454341
1.35849	2445703.9583741412
1.36135	3508954.2395360856
1.3642	5486260.313722872
1.36706	5478556.1090904195
1.36991	5142055.84853074
1.37277	5365170.168008131
1.37562	4795086.640179388
1.37847	4047921.4638444125
1.38132	4446952.265385632
1.38417	2454755.647325665
1.38701	950593.3643167816
1.38986	3865746.9890744416
1.39271	4845971.9567645015
1.39555	2981395.2878218926
1.39839	4755141.303408476
1.40123	6187503.664094783
1.40407	5984794.695297122
1.40691	4612450.826902588
1.40974	3338916.958873422
1.41258	4903354.349018838
1.41541	5522659.914697264
1.41824	2712616.056602132
1.42107	1951431.2080814485
1.4239	2007612.8652235637
1.42673	5596445.790587081
1.42955	7526408.068442481
1.43237	5192881.3804225335
1.43519	7462885.6644538995
1.43801	8463750.173277825
1.44083	7525772.890427642
1.44365	9049143.95487181
1.44646	7867356.794788565
1.44927	10457957.427981371
1.45208	14511310.657806588
1.45489	10477660.953858292
1.45769	16321090.438876275
1.4605	15621603.568976425
1.4633	9341813.425626013
1.4661	15561778.738183394
1.4689	15198173.344067365
1.47169	15444730.183067076
1.47449	14907101.910527099
1.47728	15302405.864086488
1.48007	15604491.119573798
1.48286	18000300.787757955
1.48564	16923465.070000716
1.48842	17334310.95533304
1.4912	20126336.810807742
1.49398	18160305.55144006
1.49676	22975853.123498768
1.49953	24398859.60961531
1.5023	29420578.083421826
1.50507	34191024.824390054
1.50784	29745654.04274558
1.51061	33675666.687144056
1.51337	35601982.31283235
1.51613	29842342.190909892
1.51888	27618807.189702608
1.52164	32827914.392224118
1.52439	39609384.57609657
1.52714	34978308.54075376
1.52989	37651133.382822834
1.53263	44498783.96588229
1.53538	50888281.23380823
1.53812	48754521.07677079
1.54086	44684955.79452164
1.54359	41639254.4757798
1.54632	51514922.89837821
1.54905	52645977.2727885
1.55178	52600604.68005479
1.5545	54588869.80295739
1.55723	56456498.3537339
1.55995	61693416.991248526
1.56266	59863875.56466703
1.56538	65054027.0427542
1.56809	73800971.65685421
1.5708	71971571.14712979
1.57351	72181110.24900891
1.57621	72648397.0353136
1.57891	72321461.01679131
1.58161	75789231.15356994
1.5843	75736680.6458555
1.587	76172169.43491533
1.58969	73295725.11537306
1.59238	69925031.78365603
1.59506	74461072.41462003
1.59774	76538044.28480574
1.60042	72972701.65849845
1.6031	69199477.65235463
1.60577	64547594.99818349
1.60844	61155821.1225515
1.61111	64511633.62758652
1.61378	61916665.811932206
1.61644	57270258.74872952
1.6191	52992803.12856311
1.62176	58023509.58245849
1.62441	57098996.61788911
1.62707	58189469.47834071
1.62971	53810030.152306296
1.63236	57896536.86089901
1.635	62781270.9086209
1.63764	67245051.73362033
1.64028	55853319.5244537
1.64292	58186519.32493274
1.64555	51704401.349814855
1.64818	55223759.1620739
1.65081	62844844.89359579
1.65343	58890614.1341706
1.65605	51313655.03894598
1.65867	52851624.59645889
1.66128	64050355.74281382
1.6639	54153911.07331174
1.66651	20152728.038570452
1.66911	12829134.486265225
1.67172	30759033.317425262
1.67432	45185523.99903711
1.67692	52062240.93439825
1.67951	49672577.22453897
1.68211	43051867.24750336
1.6847	33644623.23706138
1.68728	35633805.159943245
1.68987	35153553.679708965
1.69245	29492110.00719937
1.69503	28066034.814496577
1.6976	27716163.55385707
1.70018	28808724.396926563
1.70275	24020619.0972093
1.70531	22516255.295776818
1.70788	28716097.61135809
1.71044	33213186.76346088
1.713	36282815.71932944
1.71556	37795306.98814744
1.71811	38526037.62761672
1.72066	33567937.63782581
1.72321	23447059.711269367
1.72575	28366233.285427354
1.7283	34169964.51069311
1.73084	32819518.07431832
1.73337	25963418.647240173
1.73591	24686885.68355964
1.73844	26709469.6720951
1.74097	24906695.306709137
1.74349	22901147.932655726
1.74602	24317919.321422998
1.74854	30099492.35443792
1.75105	29659436.272903048
1.75357	21731805.012818996
1.75608	15479501.69059451
1.75859	16660408.862873495
1.7611	16751019.25265512
1.7636	17311741.150059946
1.7661	16043470.482446523
1.7686	13499099.596870558
1.7711	15077596.42871306
1.77359	13954912.974579802
1.77608	9986551.037831495
1.77857	11415189.201777637
1.78105	13147093.54596701
1.78354	9909471.089108808
1.78602	8519819.968115432
1.78849	10649991.97169941
1.79097	9613651.928003766
1.79344	8536647.56664337
1.79591	10163935.877156742
1.79837	13300874.65426937
1.80084	9223696.52070436
1.8033	8259823.167041527
1.80576	8544052.697975334
1.80821	8356420.541827057
1.81067	8480924.670352861
1.81312	10069507.377615862
1.81557	10938985.239144517
1.81801	7808416.282325444
1.82046	6696729.777729411
1.8229	8175484.637020343
1.82533	7456247.00393942
1.82777	6458141.393821227
1.8302	6957655.953431468
1.83263	6895026.392054217
1.83506	6646971.740131242
1.83749	6979624.847046555
1.83991	7443048.453588284
1.84233	8293477.815622332
1.84475	9603277.959963454
1.84716	8124537.559445027
1.84957	8875180.294173207
1.85198	10285330.454187347
1.85439	7887200.8171853265
1.8568	5317936.166796567
1.8592	4062861.9798892257
1.8616	4470746.735994639
1.864	4738315.115689282
1.86639	4165633.6629916136
1.86878	3712221.36211296
1.87118	5317853.028277845
1.87356	6081652.474294356
1.87595	6520614.876894557
1.87833	9852619.022539021
1.88071	12411616.20512466
1.88309	10827836.22607386
1.88547	9734446.074920973
1.88784	11416555.359667141
1.89021	12188629.39155837
1.89258	13718262.48823299
1.89494	15496621.317179201
1.89731	13481467.530359246
1.89967	10325797.131398577
1.90203	10386535.106192535
1.90439	10619993.040746318
1.90674	13748702.576322522
1.90909	15127238.24203892
1.91144	9558373.565149559
1.91379	8311996.032882722
1.91613	12605500.653919684
1.91848	13968244.313171182
1.92082	10735389.21478789
1.92315	9029439.444549058
1.92549	9807531.291645052
1.92782	10063609.124068204
1.93015	8338854.119707641
1.93248	7115312.208596406
1.93481	6637553.24905125
1.93713	5121095.789629782
1.93945	4359337.350592401
1.94177	7377789.742130281
1.94409	9400840.645348769
1.94641	8768841.974026466
1.94872	9172026.320540046
1.95103	11754731.33128254
1.95334	11347314.16758006
1.95564	8227872.278897882
1.95795	7253172.835386413
1.96025	6338704.705402525
1.96255	6059253.344954601
1.96484	8511578.781888094
1.96714	10315744.010535967
1.96943	9936406.200582104
1.97172	10955011.681658585
1.97401	11529879.649484728
1.97629	11433429.304894846
1.97858	11911680.575321889
1.98086	10191502.804018393
1.98314	8461194.154108528
1.98541	10489058.919088012
1.98769	13350596.420947434
1.98996	12086966.228477342
1.99223	10851482.094476713
1.9945	12926275.467093352
1.99677	13855546.635186112
1.99903	12734224.231666526
2.00129	12274509.759998707
2.00355	13270645.580203585
2.00581	15054112.38133448
2.00806	14776516.272578845
2.01031	15061096.760448022
2.01256	18900383.795506336
2.01481	20404803.236077756
2.01706	17549724.954015188
2.0193	17448850.327548668
2.02154	20806823.53227936
2.02378	21677036.887155443
2.02602	18985262.75873238
2.02825	17827967.197913274
2.03049	19510242.999381352
2.03272	22534010.259464424
2.03494	23463280.738448054
2.03717	22660610.943031076
2.03939	22892203.53769499
2.04162	24902257.889999207
2.04384	26771477.6162582
2.04605	27011391.092166018
2.04827	25629763.96614227
2.05048	25464727.28398556
2.05269	25215845.865044847
2.0549	23511867.55924637
2.05711	25280629.182255536
2.05931	26978497.459953573
2.06151	26655387.525676336
2.06371	26942829.37810023
2.06591	26865877.35687233
2.06811	27707542.618084382
2.0703	29454564.240615573
2.07249	30418587.492897272
2.07468	29853637.634515584
2.07686	29039341.10490759
2.07905	29621164.732170213
2.08123	30670582.538838062
2.08341	31168253.709955484
2.08559	30879155.534446344
2.08776	30918708.55964654
2.08994	31372463.03532908
2.09211	31276075.001132805
2.09428	31562134.897370536
2.09645	32150917.65431504
2.09861	31521418.554802563
2.10077	30189092.308344096
2.10293	29871485.59354334
2.10509	30697446.499630652
2.10725	30898282.23930302
2.1094	29270788.00984171
2.11155	26826374.92382261
2.1137	26309582.63889396
2.11585	27031598.245036345
2.11799	27759745.95979748
2.12013	28850190.71125989
2.12227	29296928.2065388
2.12441	29443643.78048359
2.12655	29229891.271832176
2.12868	28289208.493760616
2.13081	27853735.826357078
2.13294	27761206.727398198
2.13507	26520063.72225713
2.13719	25629057.708378766
2.13931	26468752.280742608
2.14143	27082644.660807736
2.14355	26208050.490005802
2.14567	24635150.563625902
2.14778	22679827.136597924
2.14989	21493574.880750805
2.152	21584836.516942583
2.1541	21507886.47577213
2.15621	21186753.98291301
2.15831	20521445.70968331
2.16041	19247022.35275287
2.16251	19064951.73398176
2.1646	19506237.890006322
2.1667	19668145.259656116
2.16879	20329046.99890185
2.17087	20939369.28446657
2.17296	20408961.37844222
2.17504	19784202.530266978
2.17713	19645039.601631206
2.1792	18646564.210012555
2.18128	16143235.018692108
2.18336	13681178.035505326
2.18543	13324232.289383411
2.1875	13745587.743275816
2.18957	13276330.253895577
2.19163	12980458.15526388
2.1937	13057423.053387139
2.19576	11811205.45732582
2.19782	9076498.91631073
2.19987	6356920.444779804
2.20193	4989023.827885716
2.20398	4635279.312500837
2.20603	4509524.915785866
2.20808	4752637.2686842475
2.21012	5157136.885617409
2.21217	5506109.432388522
2.21421	6295361.832435243
2.21625	7141600.223811664
2.21828	7462480.518922092
2.22032	7748105.209271979
2.22235	7922582.657207197
2.22438	7519477.8702970175
2.22641	6488206.084635033
2.22843	5981878.341532587
2.23046	5829334.970407614
2.23248	5255281.004416487
2.2345	4597101.615093124
2.23651	4113441.4412783245
2.23853	3952549.9146556105
2.24054	4303291.544230814
2.24255	4986234.28627276
2.24456	5607602.9950434035
2.24657	5876820.024507037
2.24857	5778793.333115686
2.25057	5410448.0441065645
2.25257	4914619.715484061
2.25457	4333917.940128742
2.25656	3925776.2085502422
2.25856	3787105.2579823756
2.26055	3701861.835452593
2.26254	3292599.839769455
2.26453	2984275.4171617394
2.26651	3084582.5210083397
2.2685	3259885.736931513
2.27048	3335378.0865329425
2.27246	3549156.7021332933
2.27443	3603178.3900885587
2.27641	3651832.5527869593
2.27838	3888904.7633727374
2.28036	3850298.8964645537
2.28233	3492105.4584754324
2.28429	3156133.0095475866
2.28626	2852510.9975617575
2.28823	2581657.182528862
2.29019	2422413.2581779463
2.29215	2321068.589104814
2.29411	2307518.4414275642
2.29607	2410707.261647201
2.29802	2741847.1642714436
2.29998	3256349.1531103696
2.30193	3871643.80768555
2.30388	4365394.519874716
2.30583	4618789.338257587
2.30778	4933662.102501647
2.30972	5463321.837208231
2.31167	5894129.239943964
2.31361	5279475.823197372
2.31555	3868446.224553485
2.31749	2650201.272211007
2.31943	2319904.364366739
2.32137	2185112.4218653226
2.32331	1914041.4009063654
2.32524	1621492.3448404109
2.32718	1352076.1876141457
2.32911	1222600.4343187613
2.33104	1317340.4910505055
2.33297	1552806.6834426587
2.3349	1877635.9977287916
2.33683	2338316.4931499157
2.33876	2724827.483065965
2.34068	2946564.7297093477
2.34261	3087203.1782980836
2.34453	3247698.3907234007
2.34646	3382468.1430896516
2.34838	3373717.473354763
2.3503	3158384.534077599
2.35223	3070071.633428649
2.35415	2972692.5042640814
2.35607	2713756.2429477065
2.35799	2869702.965031974
2.35991	3432341.446013446
2.36183	3958793.611313866
2.36375	4312645.7730894545
2.36566	4674558.816997926
2.36758	4540408.690451204
2.3695	3935941.2758703497
2.37142	3366678.74683601
2.37334	3082723.0177873666
2.37526	2755093.487397655
2.37718	2405501.524362126
2.3791	2267983.381310774
2.38101	2252091.603494068
2.38293	2267393.4163515866
2.38485	2440274.2416305076
2.38677	2990874.3359831194
2.3887	3578678.3518503476
2.39062	3719918.7004245166
2.39254	3668954.4950015103
2.39446	3849624.223633264
2.39639	4023267.4457149757
2.39831	3862401.003137052
2.40024	3783342.325658901
2.40216	3977879.393414694
2.40409	4423350.884166584
2.40602	4510619.731131869
2.40795	4373014.690056248
2.40989	4652294.543518344
2.41182	5271683.805586563
2.41376	5469253.943351541
2.4157	5499691.132315623
2.41764	5437769.986026967
2.41958	5346024.118530753
2.42152	5158581.767333436
2.42347	5082606.532149316
2.42542	5031017.755806027
