#wavelength	surface flux
0.676892	170979.44676946718
0.678297	180555.36647755036
0.679702	189593.03913801018
0.681109	198173.40602551753
0.682517	206166.79305970966
0.683926	213766.55630571936
0.685337	220754.765515014
0.686749	226974.33068508474
0.688164	232398.0092081216
0.689581	236181.2556706163
0.691	237437.58292840043
0.692422	238193.72205325635
0.693847	239393.0446461896
0.695274	242652.70861870746
0.696705	243589.48464485363
0.698139	243305.2925668217
0.699576	241168.38810761666
0.701017	238268.30056219595
0.702461	234105.5708895946
0.70391	230441.97505164176
0.705362	225366.51037413912
0.706819	219511.42791335942
0.70828	213038.03523796517
0.709745	205163.19049959342
0.711216	197078.53618359932
0.71269	188600.87071243665
0.71417	179890.2186484743
0.715655	168272.56392611333
0.717145	155984.24089086047
0.71864	146188.75042994536
0.72014	138395.86122904922
0.721647	129884.07262741038
0.723158	122337.51284138666
0.724676	112267.19544799562
0.726199	102293.45995205367
0.727728	91579.84715096044
0.729264	85522.25636188324
0.730805	76977.08931613689
0.732353	71378.34308225354
0.733907	64193.59120430721
0.735468	56177.379517236885
0.737035	51099.47496580752
0.738609	45122.142669286906
0.74019	39732.931545986634
0.741777	34670.402951231
0.743372	30140.59149028104
0.744973	25947.170609796212
0.746582	22154.13623667069
0.748197	18784.032500955258
0.74982	15922.445608955495
0.751451	13392.158354004787
0.753088	11225.12603415685
0.754734	9387.44296579925
0.756386	7834.07685173138
0.758047	6516.30622351541
0.759715	5382.720349389223
0.76139	4356.497996982448
0.763074	3287.6176641111697
0.764765	1944.3880986318127
0.766464	705.800737992442
0.768172	1436.2790020116142
0.769887	1019.0256317939844
0.77161	2778.155281602043
0.773341	4723.479323973677
0.775081	6437.141536351515
0.776829	8318.470133803501
0.778585	9709.516837315541
0.780349	10040.28813711786
0.782121	16397.61120125004
0.783902	21044.98808903109
0.785691	26323.984589930602
0.787489	32709.34411024498
0.789295	40234.64464535855
0.79111	48752.63901371905
0.792933	52784.21585309004
0.794764	37178.4535807622
0.796604	76330.71437650228
0.798453	100494.61906957
0.80031	120223.9579129175
0.802176	141503.1804027548
0.804051	165783.05300187724
0.805934	191673.78413484935
0.807826	220547.28650713465
0.809727	251510.99646018934
0.811636	283509.7527459954
0.813554	314351.8449730251
0.81548	361664.302818826
0.817416	409350.51375604596
0.81936	441349.2006655485
0.821313	516000.58614800015
0.823274	570381.709854824
0.825244	631110.6296254984
0.827223	706994.2152022832
0.829211	768640.856473703
0.831208	829740.4860336197
0.833213	927707.1740548541
0.835227	1003935.624863645
0.837249	1069690.479020277
0.83928	1184059.598487163
0.841321	1287134.0612692423
0.843369	1392168.2403482292
0.845427	1490555.155640776
0.847493	1626845.7305650439
0.849567	1674179.7258957655
0.851651	1183511.1903094063
0.853742	1783210.9940861424
0.855843	2144580.766515193
0.857952	2313857.805926534
0.86007	2432925.2071455866
0.862196	2174404.0447658403
0.864331	2368215.6468465314
0.866474	2596737.0280368202
0.868626	2770512.2030022945
0.870786	2825835.834446552
0.872955	2970463.7724014763
0.875132	2986148.889233716
0.877317	3561790.3129005595
0.879511	3757610.2854867945
0.881713	3618669.8331641727
0.883923	3755807.019717267
0.886142	3940465.403353547
0.888369	3791817.514008958
0.890604	4191435.1730550737
0.892847	3481220.894978029
0.895099	3022357.0119924373
0.897358	4553235.053019001
0.899626	5180577.685941802
0.901901	5870467.820522777
0.904185	6545219.206786135
0.906476	6643975.842865841
0.908776	6197951.19138067
0.911083	6859665.0169626
0.913398	6889277.485659445
0.915721	7571287.05537998
0.918051	7639288.12345976
0.92039	8480311.698791068
0.922736	8544062.952694362
0.925089	7913746.762981262
0.927451	6099993.660166637
0.929819	4530799.534421398
0.932195	3914924.629277889
0.934579	4337502.255162264
0.93697	7535073.380418678
0.939369	8501016.442164596
0.941774	8312037.710688371
0.944187	7052399.909763165
0.946607	8535553.370585885
0.949035	8868343.571561052
0.951469	6913175.762165937
0.953911	7808747.655518049
0.956359	6525965.674473813
0.958814	9025513.059418673
0.961277	6539736.811391361
0.963746	6799235.905952353
0.966222	9183089.093883004
0.968705	10481103.297570426
0.971194	11400054.743771626
0.97369	10497905.232670154
0.976193	12853805.637417879
0.978702	12615138.319122702
0.981217	13060806.09926441
0.983739	12063800.046244336
0.986268	13982377.939124605
0.988802	14510351.639989715
0.991343	14128675.013931805
0.99389	15470495.588143192
0.996444	15655632.373172594
0.999003	12926913.792190555
1.00157	13409436.939176893
1.00414	14873168.136852771
1.00672	15552864.825136326
1.0093	16123844.015023936
1.01189	16864985.38081128
1.01448	18604641.36569901
1.01708	19257204.511807103
1.01969	20686472.68971305
1.0223	21231510.433404315
1.02492	21583258.111978196
1.02754	21878179.76342771
1.03017	23550631.97342771
1.0328	23919435.410118494
1.03544	24217536.609691754
1.03808	26577880.063393217
1.04073	26413296.58933912
1.04339	27012199.20824954
1.04604	26938219.442792073
1.04871	27483300.221872702
1.05138	28237047.69493606
1.05405	29579552.66583478
1.05673	29461149.85063086
1.05941	31028605.49182763
1.0621	30934475.23871246
1.06479	31840439.84628915
1.06749	32323056.083057076
1.07019	33388021.90785542
1.07289	33205716.120733183
1.0756	33820848.93151201
1.07832	33898277.45541765
1.08104	34334709.18428608
1.08376	35042875.68435393
1.08649	32881145.73805649
1.08922	29846243.005633347
1.09195	27347130.885997124
1.09469	24591640.871185932
1.09743	20579364.92272095
1.10018	17838904.549631987
1.10293	14241591.757266058
1.10568	10565866.96366785
1.10844	12201291.411024233
1.1112	9694239.834777826
1.11396	8054132.550060975
1.11673	6773783.367619679
1.1195	9351271.488073887
1.12228	7547809.189747539
1.12505	9837653.225334777
1.12783	11668640.669595651
1.13062	10810096.15916498
1.13341	4732424.477347663
1.1362	6380011.324345573
1.13899	10321252.14792819
1.14178	13252227.66430177
1.14458	9620271.903329521
1.14738	9458196.666018832
1.15019	14664276.748878432
1.153	11137145.96729364
1.1558	9276801.962720016
1.15862	12954087.444529802
1.16143	8402789.532220023
1.16425	6976387.416803335
1.16707	8115560.184366809
1.16989	10237453.519294314
1.17271	14017184.716319593
1.17554	12624536.872576753
1.17837	10366952.900859958
1.1812	18718767.067675374
1.18403	19068995.51698348
1.18686	18733087.043509286
1.1897	21493880.70534441
1.19253	23051259.770302482
1.19537	25493905.041255392
1.19822	26838809.298614446
1.20106	28531301.06226706
1.2039	29689255.26544848
1.20675	32477487.760080952
1.2096	34328366.768169835
1.21245	35062617.943092965
1.2153	36700964.779977635
1.21815	37220400.12812377
1.221	39025326.904790595
1.22385	40495751.76175885
1.22671	41670716.31364651
1.22957	43606427.19769291
1.23242	44040698.80235636
1.23528	43650127.69388901
1.23814	44036969.47662143
1.241	41895308.09638503
1.24387	37538930.69180098
1.24673	44334584.95922205
1.24959	40333544.52138784
1.25245	31250363.484740295
1.25532	43770770.30647
1.25818	48540386.85059692
1.26105	50617665.1240176
1.26392	48159963.83848264
1.26678	50062469.73891724
1.26965	48090166.81978402
1.27252	50828772.91221006
1.27538	51569854.09644462
1.27825	50787381.15501056
1.28112	49945525.01388038
1.28399	42481753.448900364
1.28686	43753268.09788269
1.28973	43508214.750715375
1.2926	42913991.190042265
1.29546	37732340.20439888
1.29833	35119629.378902435
1.3012	39982672.480192296
1.30407	40894995.97520175
1.30694	36093541.805756055
1.30981	38918065.52616594
1.31267	37901436.59733281
1.31554	32774514.600775957
1.31841	30497505.37218867
1.32128	35396221.91909278
1.32414	26556456.24986999
1.32701	19070192.902872592
1.32987	14252092.28603765
1.33274	9185780.326787462
1.3356	7123789.816220919
1.33847	2026460.7012312545
1.34133	1575305.6943312066
1.34419	2082940.3638111497
1.34705	1633982.6098142494
1.34991	1947798.7839513968
1.35277	2225137.7312677214
1.35563	870919.290705361
1.35849	868246.9375639512
1.36135	1197111.327126971
1.3642	1941724.6847514661
1.36706	1959436.9750734414
1.36991	1859055.5727553852
1.37277	1939313.3809075835
1.37562	1865011.4877682184
1.37847	1579605.4565486072
1.38132	1553010.1895978916
1.38417	841503.9893361294
1.38701	367074.28347050527
1.38986	1480184.8972266368
1.39271	1877458.1171160163
1.39555	1106990.4938611959
1.39839	1709961.3421770686
1.40123	2182189.797735402
1.40407	2110556.7950940398
1.40691	1680586.3532157007
1.40974	1246941.9948103013
1.41258	1915196.463693111
1.41541	2154904.306909812
1.41824	1079013.7134408583
1.42107	790309.6033505402
1.4239	817121.1629278858
1.42673	2223039.9654121357
1.42955	3010044.9663097975
1.43237	2099330.699494144
1.43519	3084513.5158819878
1.43801	3447699.3411832326
1.44083	3151624.968452275
1.44365	3726220.6203371473
1.44646	3230291.1695707804
1.44927	4380004.73281945
1.45208	6141988.045066361
1.45489	4412531.513652298
1.45769	6837206.398542427
1.4605	6544980.675007199
1.4633	4156422.7691946123
1.4661	6887678.526162436
1.4689	6658955.080965604
1.47169	6676820.709405016
1.47449	6244915.7661058875
1.47728	6257290.523166276
1.48007	6369037.544066783
1.48286	7454907.8231233265
1.48564	7066429.355061202
1.48842	7300441.342992306
1.4912	8306472.874221515
1.49398	7657605.963499429
1.49676	9509760.843111698
1.49953	10321344.000201521
1.5023	12274778.570100198
1.50507	14200727.237329487
1.50784	12683029.956754586
1.51061	14357522.975971946
1.51337	14709910.523781922
1.51613	12599462.49805905
1.51888	11862082.386400409
1.52164	14019446.588773035
1.52439	16538364.756861677
1.52714	15025772.361496916
1.52989	16227674.041979922
1.53263	18772172.479923155
1.53538	21384352.550592918
1.53812	20771646.115659785
1.54086	18587410.68379006
1.54359	18021830.136550304
1.54632	21698131.25773657
1.54905	22002386.453204963
1.55178	21584548.927197393
1.5545	22762110.01924945
1.55723	23995465.47183044
1.55995	26013517.438925553
1.56266	24970749.546753213
1.56538	27751635.136798248
1.56809	31037239.684820764
1.5708	30122276.49050873
1.57351	29852398.11921115
1.57621	30354120.01403793
1.57891	30312532.825214434
1.58161	31710706.174837884
1.5843	31498258.163454544
1.587	31370521.37827095
1.58969	30061163.17060762
1.59238	28573994.145822313
1.59506	30251450.085813913
1.59774	31084299.333358653
1.60042	29284410.163598157
1.6031	27323997.8299112
1.60577	25355202.226796538
1.60844	23741409.805012286
1.61111	24537503.229860235
1.61378	23162429.99230385
1.61644	21197683.4699232
1.6191	19446636.12569633
1.62176	21430838.70141602
1.62441	21161667.548613448
1.62707	21337101.578278806
1.62971	19894882.65726436
1.63236	21220639.527224496
1.635	23525156.487890765
1.63764	25566157.76122263
1.64028	21691327.41008774
1.64292	22444199.22750834
1.64555	19408210.459692936
1.64818	20258035.27186235
1.65081	23983365.199386172
1.65343	22911024.02862256
1.65605	19125253.188117284
1.65867	20037722.581626464
1.66128	25181412.405310202
1.6639	20871824.57630458
1.66651	7105858.501859652
1.66911	4287786.460485177
1.67172	11302188.248581296
1.67432	17116180.803223126
1.67692	19994490.583788227
1.67951	18827622.485497124
1.68211	15939396.589513835
1.6847	12215520.423722474
1.68728	12817836.292180924
1.68987	12740281.952782784
1.69245	10484116.272921987
1.69503	10009448.726893177
1.6976	9753883.378733601
1.70018	10025482.87510428
1.70275	8204219.15948474
1.70531	7849197.308789508
1.70788	10503837.790243447
1.71044	12659550.46346953
1.713	14534138.89886916
1.71556	15393818.162731413
1.71811	15727275.8888127
1.72066	13637779.486617014
1.72321	9483249.30866031
1.72575	11864464.053370152
1.7283	14168205.827267576
1.73084	13779442.854480173
1.73337	11180001.946762523
1.73591	10613827.978617758
1.73844	11684926.530713135
1.74097	11107068.65054036
1.74349	10474160.439461937
1.74602	11258608.978726337
1.74854	13685318.737587772
1.75105	13599099.827348536
1.75357	10087003.242323866
1.75608	7036282.794972345
1.75859	7509889.228880445
1.7611	7511338.587731018
1.7636	7659223.585268445
1.7661	7247523.309158511
1.7686	6252339.45230306
1.7711	6971972.953271198
1.77359	6438310.290252131
1.77608	4658309.44187002
1.77857	5307580.309741545
1.78105	6163007.9397321
1.78354	4682173.864510602
1.78602	4016148.529201464
1.78849	4973268.204990094
1.79097	4443888.976871373
1.79344	3936723.3190384237
1.79591	4702650.554433839
1.79837	6126952.539043249
1.80084	4286174.653748831
1.8033	3838187.763648137
1.80576	3968446.6136576957
1.80821	3877320.573361149
1.81067	3921797.0236781193
1.81312	4706400.935394889
1.81557	5109003.837943792
1.81801	3689488.2570785843
1.82046	3168430.93791404
1.8229	3819148.0559310014
1.82533	3516463.1192020276
1.82777	2960520.1712544835
1.8302	3100164.592495319
1.83263	3151121.916540719
1.83506	3069066.718035962
1.83749	3154821.1117933057
1.83991	3381164.6832589884
1.84233	3885884.571011112
1.84475	4691333.031588005
1.84716	4006894.8987431666
1.84957	4375333.4023151705
1.85198	5157318.636227199
1.85439	3987757.916919327
1.8568	2635549.7310205256
1.8592	2013998.7217481954
1.8616	2249802.222221839
1.864	2310554.5492629777
1.86639	1931327.162033657
1.86878	1687991.4029836303
1.87118	2442541.814219314
1.87356	2848641.6186312516
1.87595	3212506.811178324
1.87833	5013231.178478548
1.88071	6224292.340212186
1.88309	5363709.025689213
1.88547	4852327.045618829
1.88784	5671484.266248128
1.89021	5984277.225610766
1.89258	6684892.488165376
1.89494	7615426.8381844815
1.89731	6594518.649886814
1.89967	4946907.957406852
1.90203	4990250.823931217
1.90439	5009546.1849962305
1.90674	6316751.255368773
1.90909	6732912.027041938
1.91144	4073014.292322777
1.91379	3579906.1000843453
1.91613	5632694.224623716
1.91848	6370038.05363965
1.92082	4891161.741436493
1.92315	4126852.162526554
1.92549	4501167.552896099
1.92782	4611708.680879618
1.93015	3802851.698631708
1.93248	3156945.3888216796
1.93481	3018049.9610541547
1.93713	2478202.989823954
1.93945	2162296.0229630205
1.94177	3627201.707111606
1.94409	4503661.732309001
1.94641	4114458.164833471
1.94872	4220527.821709311
1.95103	5329826.952576826
1.95334	5228240.350741624
1.95564	3876107.464518182
1.95795	3506979.290301177
1.96025	3152286.6311127804
1.96255	3038340.3852213393
1.96484	4315383.365698915
1.96714	5358741.173595588
1.96943	5249921.375465038
1.97172	5634627.6612700205
1.97401	5825444.184460661
1.97629	5775355.675821784
1.97858	5975234.399933231
1.98086	5083065.885144455
1.98314	4159920.5375202177
1.98541	5224543.504412327
1.98769	6788497.746409814
1.98996	6261335.047284217
1.99223	5682125.3755626185
1.9945	6786542.6624990115
1.99677	7431624.589051639
1.99903	6971862.840778445
2.00129	6707923.635450243
2.00355	6989652.7496121535
2.00581	7697664.927073309
2.00806	7740781.125167665
2.01031	8063904.667598671
2.01256	9820870.600710956
2.01481	10439730.652888427
2.01706	9171748.147083413
2.0193	9139627.231769748
2.02154	10645222.71459656
2.02378	11181602.53399341
2.02602	10071034.785853423
2.02825	9365328.233449174
2.03049	9980523.668685671
2.03272	11334181.708536966
2.03494	11932885.119625574
2.03717	11611881.17417692
2.03939	11519725.703791413
2.04162	12631983.574929962
2.04384	13775679.102432976
2.04605	14009199.559547683
2.04827	13350127.240652611
2.05048	13130373.863133764
2.05269	13009803.486243643
2.0549	12301458.11388235
2.05711	13085074.70636745
2.05931	13854130.14938783
2.06151	13847140.385648608
2.06371	14097214.53237625
2.06591	14073553.025469363
2.06811	14361074.816989064
2.0703	15156960.110574584
2.07249	15713053.015621621
2.07468	15566625.632907886
2.07686	15299794.771744383
2.07905	15510791.092409682
2.08123	15765852.659345828
2.08341	15875208.012259444
2.08559	15811181.809119578
2.08776	15874433.237461237
2.08994	16036334.58473714
2.09211	15917018.688647557
2.09428	15991223.405749205
2.09645	16257668.443662867
2.09861	15982068.099116514
2.10077	15359554.683648665
2.10293	15205936.680712437
2.10509	15590872.528763618
2.10725	15687797.867322518
2.1094	14937838.116227074
2.11155	13787865.880350495
2.1137	13508370.579579212
2.11585	13842644.74191107
2.11799	14210852.225843119
2.12013	14694224.993930984
2.12227	14817027.704663146
2.12441	14837911.369320009
2.12655	14750149.445962166
2.12868	14345734.152195739
2.13081	14116758.816577734
2.13294	13961640.338315789
2.13507	13273019.521051655
2.13719	12846570.74812451
2.13931	13357257.74449377
2.14143	13706866.1158383
2.14355	13186736.815571403
2.14567	12276574.360091427
2.14778	11239362.660930684
2.14989	10675080.482705243
2.152	10773146.744326387
2.1541	10711282.629058829
2.15621	10482964.116185714
2.15831	10090387.391760515
2.16041	9284862.317798294
2.16251	9053400.776099415
2.1646	9401660.23719813
2.1667	9672258.289988594
2.16879	10056372.858781775
2.17087	10403574.024038415
2.17296	10209312.551679188
2.17504	9964842.787872182
2.17713	9967865.235688485
2.1792	9486092.48749969
2.18128	8219399.19787478
2.18336	7027322.641683952
2.18543	6922569.369405501
2.1875	7155087.686571632
2.18957	6870696.958674771
2.19163	6625846.389736169
2.1937	6553021.7647015955
2.19576	5873390.577379772
2.19782	4467048.79844693
2.19987	3054968.4661892075
2.20193	2380715.28852204
2.20398	2280678.1615644
2.20603	2305297.166072285
2.20808	2477817.706661386
2.21012	2675023.996162584
2.21217	2787934.367377429
2.21421	3126449.06576181
2.21625	3535989.2423811783
2.21828	3688740.4004833507
2.22032	3814696.5218237084
2.22235	3941740.022704379
2.22438	3820672.9172645155
2.22641	3322726.560593658
2.22843	3014425.9586095214
2.23046	2841725.2220238876
2.23248	2466597.573214047
2.2345	2085599.2212998606
2.23651	1851251.0519529546
2.23853	1834969.9588964777
2.24054	2078417.2106700034
2.24255	2447920.301174769
2.24456	2760689.1253973185
2.24657	2887040.856843233
2.24857	2807707.860358047
2.25057	2556927.7791348756
2.25257	2181684.093747092
2.25457	1818760.9984987532
2.25656	1689765.310745593
2.25856	1756236.5017500343
2.26055	1770137.9408438515
2.26254	1570476.8952693325
2.26453	1416723.697864937
2.26651	1502171.0949888276
2.2685	1623379.373680847
2.27048	1666682.5480817389
2.27246	1792269.8154476855
2.27443	1832340.5261430286
2.27641	1855651.9627490018
2.27838	1992844.6017292524
2.28036	2000566.0959258052
2.28233	1811780.1460883124
2.28429	1612292.9726088168
2.28626	1424787.156688851
2.28823	1252564.261639331
2.29019	1149759.4204240236
2.29215	1088872.544673573
2.29411	1093326.93431804
2.29607	1169453.8451408544
2.29802	1354225.564001875
2.29998	1624690.8882466208
2.30193	1967308.648805162
2.30388	2252755.1998625738
2.30583	2373955.5883499896
2.30778	2488605.3237661184
2.30972	2795602.778627044
2.31167	3147439.708096685
2.31361	2884582.0192148034
2.31555	2050091.2248479258
2.31749	1281870.5362876742
2.31943	1061035.3931830423
2.32137	1012109.3816433647
2.32331	909345.3274209339
2.32524	776530.5983603515
2.32718	642565.085446539
2.32911	576169.3434290924
2.33104	620999.2885639528
2.33297	749929.9774864159
2.3349	947339.265745077
2.33683	1218541.8198335588
2.33876	1425233.2563838048
2.34068	1518045.7602481956
2.34261	1561127.5516123727
2.34453	1624457.9487835024
2.34646	1704464.9953279982
2.34838	1731343.113112608
2.3503	1638432.8802356024
2.35223	1596357.003607526
2.35415	1537647.7301472898
2.35607	1397044.0962907665
2.35799	1500411.9557636136
2.35991	1817739.3587165934
2.36183	2100062.9978108243
2.36375	2292279.313064423
2.36566	2496776.292796665
2.36758	2387493.7796072643
2.3695	2005682.5930677245
2.37142	1672801.76083659
2.37334	1546112.778443158
2.37526	1406330.6568810828
2.37718	1241471.6851847766
2.3791	1182496.9238106145
2.38101	1193032.7690187225
2.38293	1228150.2516790142
2.38485	1332764.0098141474
2.38677	1629795.9162812454
2.3887	1951423.4436690318
2.39062	2044718.5834608437
2.39254	2034685.205232865
2.39446	2144503.7753513264
2.39639	2243213.3522579675
2.39831	2157119.1704684393
2.40024	2147984.6273794873
2.40216	2286020.032473245
2.40409	2510847.095224504
2.40602	2477374.053734057
2.40795	2344891.368929684
2.40989	2509093.8888349105
2.41182	2905289.2532415995
2.41376	3048683.3540004464
2.4157	3066750.677031778
2.41764	3039889.7450703587
2.41958	3012406.537527982
2.42152	2922136.1204328793
2.42347	2859793.791646039
