#wavelength	surface flux
0.676892	110458.61646015779
0.678297	116433.68860364382
0.679702	122132.31334322607
0.681109	127569.7541980119
0.682517	132653.11961037506
0.683926	137441.05330946014
0.685337	141810.84594803266
0.686749	145676.88717216425
0.688164	148987.01853832736
0.689581	151394.34670725692
0.691	152621.39637675654
0.692422	152800.15032628577
0.693847	153923.7100979014
0.695274	154797.97625803223
0.696705	154860.6065211328
0.698139	154041.02721235258
0.699576	152111.4366174064
0.701017	149712.20814037556
0.702461	146480.14838577295
0.70391	143317.8561283747
0.705362	139294.32752571735
0.706819	134962.61631269427
0.70828	130266.2375128074
0.709745	124883.14007515273
0.711216	119406.22089014997
0.71269	113671.23603863888
0.71417	107973.50409289765
0.715655	101009.96444895478
0.717145	93414.78942931896
0.71864	87449.60074409068
0.72014	82509.6889701332
0.721647	77268.65547193577
0.723158	72294.95036442514
0.724676	66494.81440694272
0.726199	60913.49100057427
0.727728	55330.407937985576
0.729264	51373.433559304096
0.730805	46653.3639993748
0.732353	43385.68234354175
0.733907	39508.39619603517
0.735468	35327.576655160345
0.737035	32306.119170494592
0.738609	29028.02981820078
0.74019	26085.331246599082
0.741777	23315.180540898316
0.743372	20806.89912826179
0.744973	18464.449465147452
0.746582	16304.856313321205
0.748197	14357.54004382058
0.74982	12655.308527435214
0.751451	11111.491582777173
0.753088	9738.944640634476
0.754734	8521.112861182844
0.756386	7431.204908892943
0.758047	6422.673084067338
0.759715	5445.879904459834
0.76139	4441.598381619815
0.763074	3340.7026152326034
0.764765	1900.4059560843104
0.766464	593.2552908387329
0.768172	1291.4070796933918
0.769887	892.7891782244795
0.77161	2772.57848748152
0.773341	4803.882289737798
0.775081	6539.724270060814
0.776829	8294.748086688312
0.778585	9417.409686449104
0.780349	9418.628327555827
0.782121	14622.232704631417
0.783902	17962.582853084765
0.785691	21549.838866746504
0.787489	25763.628110552665
0.789295	30614.681877623087
0.79111	36026.43788399968
0.792933	38580.378329125044
0.794764	28411.763913419916
0.796604	53135.5019474773
0.798453	67778.368251947
0.80031	79652.99929924161
0.802176	92502.91342173527
0.804051	107062.2809900262
0.805934	122789.57059477647
0.807826	140424.7670534675
0.809727	159376.3638386238
0.811636	179304.8404156579
0.813554	199003.97836015443
0.81548	228536.83914161107
0.817416	259657.81901640893
0.81936	289161.68927881087
0.821313	328627.1353950143
0.823274	362296.51875770517
0.825244	405117.2082777893
0.827223	454493.7465469699
0.829211	499620.1438009975
0.831208	546467.099910315
0.833213	609945.5788200038
0.835227	667826.6621180316
0.837249	726219.1991130194
0.83928	804828.0993478014
0.841321	879416.1404744972
0.843369	961610.088382066
0.845427	1042039.9258589242
0.847493	1140958.0703599097
0.849567	1196025.7567567246
0.851651	856423.9355182031
0.853742	1286274.436573106
0.855843	1562870.3855143504
0.857952	1700778.9660623937
0.86007	1819564.0555643595
0.862196	1794573.7642720127
0.864331	1951289.075075599
0.866474	2129413.6014155564
0.868626	2288054.325474951
0.870786	2403023.885065337
0.872955	2554092.0427317615
0.875132	2670764.418600708
0.877317	2970866.0577261234
0.879511	3148316.991423518
0.881713	3144380.315401366
0.883923	3260043.370312314
0.886142	3409583.1322851176
0.888369	3399987.998691921
0.890604	3661702.275450461
0.892847	3066278.2960345335
0.895099	2635459.763033305
0.897358	4071172.367130454
0.899626	4605622.91156355
0.901901	5200020.654301424
0.904185	5765679.478179336
0.906476	6040906.052468603
0.908776	5892989.73987126
0.911083	6389943.860724726
0.913398	6467757.65385578
0.915721	6985731.017671132
0.918051	7105853.405864653
0.92039	7766841.192842349
0.922736	8019543.682606906
0.925089	7571224.226308732
0.927451	5676154.776817267
0.929819	4232672.287699468
0.932195	3873502.1698660105
0.934579	4446840.372097725
0.93697	7153484.812245689
0.939369	8236149.453286847
0.941774	8371750.076590245
0.944187	7018625.438152678
0.946607	8153931.2322610915
0.949035	8308255.065260078
0.951469	7275810.015061629
0.953911	7821683.122249977
0.956359	6733511.274097695
0.958814	8994413.126908267
0.961277	6952211.150805321
0.963746	7514680.186689981
0.966222	9644028.18795095
0.968705	11207580.798300844
0.971194	12162820.13336445
0.97369	11436591.08785034
0.976193	13520380.127821362
0.978702	13829430.336107641
0.981217	14322179.846816044
0.983739	13908051.136226624
0.986268	15759030.167905735
0.988802	16194967.038701896
0.991343	16438142.947960442
0.99389	17697923.585387178
0.996444	17913253.845464643
0.999003	15934665.68307068
1.00157	16648871.246221935
1.00414	18308582.359101694
1.00672	19120431.848233715
1.0093	20152043.71940098
1.01189	21155181.87251069
1.01448	22470292.307225775
1.01708	23228294.85513788
1.01969	24613015.116855565
1.0223	25472732.78745371
1.02492	26243453.487277813
1.02754	26671672.231449533
1.03017	27861893.66382899
1.0328	28516839.263793077
1.03544	29536481.41375449
1.03808	31415539.233563922
1.04073	31850382.09568215
1.04339	32588248.555453554
1.04604	33247549.458818372
1.04871	33829931.83997912
1.05138	34778782.73727148
1.05405	36030829.499850884
1.05673	36412309.75201131
1.05941	37464051.19892438
1.0621	37715126.66969707
1.06479	38657530.24600305
1.06749	39269954.90077704
1.07019	40001650.89978004
1.07289	40392774.10830762
1.0756	40989392.379151
1.07832	41236845.271841176
1.08104	41616574.82145895
1.08376	42376961.58024179
1.08649	39944722.669298165
1.08922	36867018.07136014
1.09195	33463470.56347582
1.09469	28996611.881651796
1.09743	24956598.05004326
1.10018	20277730.071907863
1.10293	16020596.64594051
1.10568	12000823.376338273
1.10844	12311115.366457907
1.1112	8837952.628230397
1.11396	7401533.716195233
1.11673	6591927.845006405
1.1195	8697518.687103927
1.12228	7360270.021073784
1.12505	10322106.931403384
1.12783	11697647.248631362
1.13062	10907363.847779978
1.13341	4714295.452721909
1.1362	6615228.961426474
1.13899	12167093.565546662
1.14178	13851199.384206975
1.14458	9707126.62506507
1.14738	10226933.632380368
1.15019	14760615.407152234
1.153	10996900.874471175
1.1558	9781624.865357375
1.15862	12511295.738531206
1.16143	8767526.673627274
1.16425	8639916.080484807
1.16707	8898325.039770834
1.16989	11238753.620958118
1.17271	14544366.772585044
1.17554	13020370.669871079
1.17837	11964075.976151029
1.1812	19878818.290178854
1.18403	21014652.905915625
1.18686	22123394.965484306
1.1897	24781388.303854875
1.19253	27275345.111776587
1.19537	30236365.07363889
1.19822	32181933.142786838
1.20106	34484824.008149005
1.2039	36065489.843346156
1.20675	39156720.44745366
1.2096	40378543.64304029
1.21245	41181942.23953805
1.2153	43857823.06592239
1.21815	44659068.41929968
1.221	46819783.44507852
1.22385	48358749.43879014
1.22671	49848161.49877013
1.22957	52229417.56016996
1.23242	52793258.84792447
1.23528	53028947.889725186
1.23814	52954112.188084394
1.241	49277175.13959921
1.24387	44751452.73425157
1.24673	51429574.83621912
1.24959	45936133.92446118
1.25245	36529898.13944317
1.25532	49973872.75286088
1.25818	57533210.19118163
1.26105	60909599.98998033
1.26392	60685358.14872611
1.26678	62200486.503369056
1.26965	61606238.14271212
1.27252	62549879.13359609
1.27538	62948671.042296536
1.27825	62490865.99530692
1.28112	60919753.77749397
1.28399	54468428.60555477
1.28686	54250911.699213706
1.28973	53746705.06576947
1.2926	52174174.64365713
1.29546	47807030.31284405
1.29833	46383474.23541632
1.3012	48334371.248924896
1.30407	49998943.97328871
1.30694	44843436.264957055
1.30981	46968803.26491647
1.31267	44802348.26230753
1.31554	39602618.9334891
1.31841	36798573.82255055
1.32128	40412970.93738768
1.32414	30165170.42844916
1.32701	23199624.391091354
1.32987	15787759.74500878
1.33274	8720487.136204658
1.3356	6680814.065128049
1.33847	1797836.3060283468
1.34133	1228132.1130329773
1.34419	1497351.4123001713
1.34705	1154064.120016816
1.34991	1257316.9111412477
1.35277	1381077.499277423
1.35563	556905.8264994565
1.35849	536534.5652202163
1.36135	736040.8537363807
1.3642	1341897.00678773
1.36706	1442787.4403931748
1.36991	1431822.2965160308
1.37277	1496825.4122032824
1.37562	1795056.8988297936
1.37847	1719191.0642858287
1.38132	1097729.0134008834
1.38417	619364.3819825508
1.38701	361041.5054280378
1.38986	1134152.3255803147
1.39271	1303663.1539833655
1.39555	737883.4436473751
1.39839	1191358.180989262
1.40123	1481153.8819592276
1.40407	1518131.4435682571
1.40691	1279273.522453305
1.40974	941650.2400690012
1.41258	1375157.2912987864
1.41541	1672766.2108775147
1.41824	929934.5738235455
1.42107	743551.3640801715
1.4239	732699.0957881126
1.42673	1658448.33339266
1.42955	2359453.9664721335
1.43237	1706938.743710515
1.43519	2505515.938891864
1.43801	2772010.6120501165
1.44083	2630224.248924619
1.44365	3192499.194854121
1.44646	2828734.8838601466
1.44927	3903383.9810105152
1.45208	5456917.34178414
1.45489	3808007.6423809347
1.45769	6049692.5226440765
1.4605	6241699.9081451995
1.4633	4036204.6282962444
1.4661	6490712.162397605
1.4689	5922311.735815291
1.47169	6450870.310467902
1.47449	6019039.005182291
1.47728	5784572.9643823765
1.48007	5839191.769694221
1.48286	6740861.923142933
1.48564	6618692.4267728515
1.48842	6742780.868764471
1.4912	7648216.947490534
1.49398	7609933.4547455
1.49676	8660058.751468392
1.49953	10114855.026885482
1.5023	10823516.697127955
1.50507	12338076.418743618
1.50784	11732738.62277209
1.51061	12889641.807214314
1.51337	12840362.79916406
1.51613	12249688.563750025
1.51888	12417904.238495845
1.52164	14320369.24331163
1.52439	15801112.906474506
1.52714	15244214.722453566
1.52989	16684319.968356453
1.53263	18491886.96368965
1.53538	20404471.27009132
1.53812	20617543.34085851
1.54086	18951016.312933967
1.54359	19414356.611199167
1.54632	22191504.569468603
1.54905	21978942.367084607
1.55178	21624140.646960147
1.5545	23495743.365816668
1.55723	24287548.731938537
1.55995	25997241.835898973
1.56266	25855543.581995152
1.56538	28141356.70065943
1.56809	30567074.29945616
1.5708	30216900.384230975
1.57351	29838963.46893661
1.57621	30763318.53097112
1.57891	30727892.724398218
1.58161	31420788.779157616
1.5843	31381282.95430011
1.587	31230444.32109838
1.58969	30305484.800384913
1.59238	29089793.16778725
1.59506	29968002.712856878
1.59774	30381713.0081979
1.60042	29021767.23757903
1.6031	27365438.393841993
1.60577	25518142.069928225
1.60844	24178108.448911313
1.61111	24201908.75633441
1.61378	22790053.519036286
1.61644	20827906.4773706
1.6191	18977167.056671098
1.62176	19863759.34550653
1.62441	19408685.35916012
1.62707	19393680.61821584
1.62971	17693858.333608363
1.63236	18737475.606202092
1.635	20100700.084618915
1.63764	21815337.387561966
1.64028	19861893.041689117
1.64292	20742994.284993634
1.64555	18092747.449166704
1.64818	19076097.637799866
1.65081	21530795.71732776
1.65343	20265847.613334965
1.65605	17570181.90259493
1.65867	19252292.45664838
1.66128	23055454.921235554
1.6639	18537694.52073647
1.66651	6154440.2109103445
1.66911	4406213.251977886
1.67172	11292132.87799574
1.67432	16603774.1908409
1.67692	18532784.560613096
1.67951	17806880.89944079
1.68211	15015289.437466903
1.6847	12021267.754211737
1.68728	12651863.914774548
1.68987	12624367.045070753
1.69245	10415376.744254244
1.69503	9885674.577314503
1.6976	9552553.41805008
1.70018	9595638.286126094
1.70275	8349055.354425886
1.70531	8075820.076265038
1.70788	10275652.733833319
1.71044	11838681.62723892
1.713	13011425.46567418
1.71556	13697357.27368991
1.71811	13999218.359603513
1.72066	12998918.397190778
1.72321	10287028.77144635
1.72575	11824510.815075738
1.7283	13053246.772021893
1.73084	12498758.027415149
1.73337	10906617.479277624
1.73591	10486569.456355898
1.73844	11135741.995190995
1.74097	10836360.612483367
1.74349	10427818.625390196
1.74602	10495221.557444222
1.74854	11892253.139297094
1.75105	11568897.232904207
1.75357	8732556.973830488
1.75608	6290549.182030956
1.75859	7043071.900988881
1.7611	7028144.453207842
1.7636	6750296.037982655
1.7661	6285287.580685995
1.7686	5309563.250862005
1.7711	5726481.167838788
1.77359	5547748.054772053
1.77608	4062479.0337741785
1.77857	4150897.1568772863
1.78105	4677875.833764722
1.78354	3653867.7675921847
1.78602	2991321.4657600108
1.78849	3746021.0173143735
1.79097	3361712.2630224326
1.79344	2905270.798194384
1.79591	3433248.1299867616
1.79837	4346530.4907141775
1.80084	2937782.833208483
1.8033	2566457.061077678
1.80576	2748571.9751340067
1.80821	2701839.298548187
1.81067	2710759.138926287
1.81312	3276335.6312582
1.81557	3487033.683369881
1.81801	2633185.1717608976
1.82046	2262534.785813148
1.8229	2842491.005461736
1.82533	2730734.1284671333
1.82777	2003389.5588849923
1.8302	2011697.0424026253
1.83263	2225071.1469536875
1.83506	2157163.734289766
1.83749	2057138.0942011443
1.83991	2180217.9107835926
1.84233	2604760.391172423
1.84475	3385996.804499266
1.84716	2868287.393900121
1.84957	3181315.036275186
1.85198	3922975.5055196364
1.85439	2947367.6858088477
1.8568	1926292.3725774526
1.8592	1515353.1956720622
1.8616	1607678.613258588
1.864	1633333.0955992928
1.86639	1346975.9428405904
1.86878	1081149.2914444958
1.87118	1480111.8892654646
1.87356	1843766.008135772
1.87595	2306280.7445305386
1.87833	3813695.2157401186
1.88071	4715032.48471841
1.88309	4077250.0689180684
1.88547	3634635.0444864198
1.88784	4186357.220645242
1.89021	4283467.055796935
1.89258	4799654.9916505525
1.89494	5607721.796077199
1.89731	4792617.867971284
1.89967	3448175.504437278
1.90203	3517210.8227038514
1.90439	3420076.55043401
1.90674	4187731.53492786
1.90909	4496540.404473043
1.91144	2684035.6094654407
1.91379	2264058.752844007
1.91613	3621530.59169263
1.91848	4097922.396976155
1.92082	3055362.654191302
1.92315	2602201.30234659
1.92549	2872050.1620662236
1.92782	2945210.2277327413
1.93015	2465656.8646085025
1.93248	2099599.6533564385
1.93481	2101000.3155535306
1.93713	1776535.5983888751
1.93945	1522618.7404480367
1.94177	2531686.782373878
1.94409	3051774.4266381674
1.94641	2638560.317483116
1.94872	2627532.4530839548
1.95103	3359773.575107455
1.95334	3329120.7303978815
1.95564	2537757.976989123
1.95795	2457900.7228913982
1.96025	2338673.341917425
1.96255	2238637.3596181367
1.96484	3111286.6928028865
1.96714	3934810.395924521
1.96943	3942976.3611072185
1.97172	4057551.412806185
1.97401	4071457.5587376063
1.97629	4155608.369378835
1.97858	4369957.926616186
1.98086	3715214.2500940883
1.98314	3261780.8883272777
1.98541	4255540.211747943
1.98769	5192251.336607311
1.98996	4544346.0180434855
1.99223	4152139.693576129
1.9945	5150273.557949668
1.99677	5818331.063797576
1.99903	5561153.682589161
2.00129	5410097.669837864
2.00355	5499709.808235796
2.00581	5889169.95183887
2.00806	5996001.936314826
2.01031	6332124.519782847
2.01256	7518373.442064959
2.01481	7828114.296269301
2.01706	7054741.347322867
2.0193	7073289.020254161
2.02154	8062773.852439327
2.02378	8569849.936801326
2.02602	7953742.777500177
2.02825	7274542.112757388
2.03049	7493457.992484223
2.03272	8376846.89510796
2.03494	9004542.595489366
2.03717	9039022.839955376
2.03939	8961843.743213026
2.04162	9627056.107763425
2.04384	10325060.039778575
2.04605	10590313.610717902
2.04827	10352108.303748984
2.05048	10152109.771307634
2.05269	10139749.314188354
2.0549	10010505.37658288
2.05711	10373209.208006477
2.05931	10672887.69549495
2.06151	10784662.293104026
2.06371	11030884.664955437
2.06591	11103876.966309605
2.06811	11176546.522006862
2.0703	11490168.74736069
2.07249	11784265.996233081
2.07468	11762969.0303166
2.07686	11751326.215347026
2.07905	11888575.164580943
2.08123	11900350.49771762
2.08341	11902252.61242514
2.08559	11921346.974485733
2.08776	11956431.240504876
2.08994	12007423.02902449
2.09211	11909213.122791499
2.09428	11864282.478055757
2.09645	11955263.953153603
2.09861	11858040.988402452
2.10077	11590852.597441347
2.10293	11531010.051088022
2.10509	11721188.494561268
2.10725	11773782.451561928
2.1094	11463261.673789462
2.11155	10983475.609219406
2.1137	10854073.064496672
2.11585	10976016.436198862
2.11799	11084745.181528905
2.12013	11221838.149590714
2.12227	11208484.75191451
2.12441	11189405.4972364
2.12655	11151574.562872
2.12868	10957801.991710931
2.13081	10807466.501047857
2.13294	10680152.875278248
2.13507	10320739.96287908
2.13719	10111222.132237783
2.13931	10359313.889196264
2.14143	10477187.630771149
2.14355	10125768.260492677
2.14567	9580804.338542638
2.14778	9040364.356280835
2.14989	8761662.06678486
2.152	8751807.0915354
2.1541	8639392.981831565
2.15621	8481438.171899874
2.15831	8210638.030763711
2.16041	7573938.795007139
2.16251	7252335.83856436
2.1646	7471723.217937726
2.1667	7755142.316525658
2.16879	8025425.757509483
2.17087	8218142.758424084
2.17296	8080031.1379393935
2.17504	7896843.683595881
2.17713	7857014.041026463
2.1792	7504793.14391394
2.18128	6660351.293093241
2.18336	5946136.643638409
2.18543	6032184.908676913
2.1875	6267270.337299234
2.18957	5989849.541047305
2.19163	5607998.454669181
2.1937	5292464.3963398095
2.19576	4736056.189939981
2.19782	3782092.0089719966
2.19987	2738040.404530448
2.20193	2181263.1837562155
2.20398	2086944.8892033405
2.20603	2144631.865577618
2.20808	2301136.799181152
2.21012	2440786.4988351404
2.21217	2471157.8156795744
2.21421	2691710.569751973
2.21625	3059579.832021893
2.21828	3276758.8811395117
2.22032	3361637.5313510206
2.22235	3416130.18098987
2.22438	3344350.9969007648
2.22641	2899693.666736192
2.22843	2468451.152714246
2.23046	2250975.041850852
2.23248	2084830.9194536568
2.2345	1902047.143103677
2.23651	1726508.2054462375
2.23853	1700642.79801482
2.24054	1863587.3337619957
2.24255	2095952.7980138923
2.24456	2260112.4131982448
2.24657	2260031.3547011255
2.24857	2139620.3419706384
2.25057	1963210.5736027984
2.25257	1716378.856656791
2.25457	1449667.9861247835
2.25656	1374673.690741183
2.25856	1517195.2944748898
2.26055	1597103.6210416444
2.26254	1456478.683028667
2.26453	1316166.4483526836
2.26651	1373779.1843856834
2.2685	1490161.294777016
2.27048	1554696.4003082768
2.27246	1693034.9055732666
2.27443	1732956.777357523
2.27641	1713237.8680543047
2.27838	1790454.1991535036
2.28036	1791891.809841248
2.28233	1626112.0633544724
2.28429	1451625.9147268042
2.28626	1289790.2858725607
2.28823	1153554.184645822
2.29019	1090349.6832051724
2.29215	1046420.957607799
2.29411	1045010.5124978808
2.29607	1119572.7498191295
2.29802	1284576.4469636707
2.29998	1494024.7350496075
2.30193	1764155.9446726632
2.30388	2008754.5725273378
2.30583	2144452.4938528687
2.30778	2284473.591462985
2.30972	2602328.676396321
2.31167	2912505.3935062066
2.31361	2636044.9712835676
2.31555	1827474.1887306697
2.31749	1117350.0801092
2.31943	911241.7943944832
2.32137	894313.07000249
2.32331	844729.6677103366
2.32524	756248.9725605547
2.32718	641104.2819328718
2.32911	579301.2299255921
2.33104	617491.9198565744
2.33297	727734.3130995369
2.3349	864645.7737775494
2.33683	1030322.375165987
2.33876	1166932.603228838
2.34068	1242603.2545722593
2.34261	1289382.2626781282
2.34453	1330889.0283666397
2.34646	1369626.101437651
2.34838	1380237.298584754
2.3503	1322302.2743921322
2.35223	1321040.9858840604
2.35415	1302002.4615431314
2.35607	1208836.941677326
2.35799	1328686.1033273318
2.35991	1613551.9002801548
2.36183	1845873.2979466945
2.36375	2011227.8727143956
2.36566	2180471.023228787
2.36758	2018625.4814220422
2.3695	1589823.207396305
2.37142	1251654.188557757
2.37334	1182911.7862101188
2.37526	1175791.701250865
2.37718	1144602.660125248
2.3791	1161039.6176019295
2.38101	1198813.263886944
2.38293	1223945.451238945
2.38485	1259898.291591364
2.38677	1452334.568941811
2.3887	1731231.510677997
2.39062	1887962.9407206452
2.39254	1916942.4899426019
2.39446	1971592.3701302258
2.39639	2010984.7617169057
2.39831	1941418.2391033145
2.40024	1981473.6031765388
2.40216	2115644.4506567093
2.40409	2242280.3825965696
2.40602	2107577.7483674213
2.40795	1956694.4131483068
2.40989	2153471.4734222717
2.41182	2593404.3819663897
2.41376	2743468.4461096814
2.4157	2645932.1624117787
2.41764	2535172.150638011
2.41958	2565619.784654626
2.42152	2597426.456407489
2.42347	2558894.4709180756
