#wavelength	surface flux
0.8	318885.2749335476
0.8002000000000001	324691.18802513904
0.8004000500000003	330669.3566910326
0.8006001500125003	336466.162466056
0.8008003000500035	342500.0723768856
0.8010005001250161	348381.2304587237
0.8012007502500472	354936.5461715574
0.8014010504376099	360792.0390159654
0.8016014007002193	366575.2337980584
0.8018018010503944	373175.2126450683
0.8020022515006572	378854.0461699437
0.8022027520635323	385677.19815862324
0.8024033027515483	392277.7667213282
0.8026039035772362	398161.17663422547
0.8028045545531306	405606.061425859
0.8030052556917691	411487.8506740475
0.803206007005692	418735.9258288282
0.8034068085074435	424868.3158685161
0.8036076602095705	432725.3771305395
0.8038085621246229	439936.96072413225
0.8040095142651542	447382.62339608505
0.8042105166437206	453013.5498501696
0.8044115692728815	460532.06713337946
0.8046126721651998	467536.8023001377
0.8048138253332411	475952.3249388999
0.8050150287895745	484252.62198681856
0.805216282546772	491218.2044791005
0.8054175866174087	497143.64596998104
0.8056189410140631	505873.5550461538
0.8058203457493168	512996.6202234689
0.8060218008357541	522127.20951330836
0.8062233062859632	526675.6070321344
0.8064248621125346	536875.0193043587
0.806626468328063	545821.2806741743
0.8068281249451449	552991.7892674912
0.8070298319763813	560313.8709884426
0.8072315894343755	567682.1080537577
0.8074333973317341	577767.2176356118
0.8076352556810671	587208.484624425
0.8078371644949874	594952.1483474525
0.8080391237861113	605600.6781500628
0.8082411335670578	610726.9024414486
0.8084431938504498	619263.6979316716
0.8086453046489125	628413.66562614
0.8088474659750746	635771.1172846309
0.8090496778415686	644824.7084182692
0.809251940261029	647156.150589684
0.8094542532460944	664939.8268640522
0.8096566168094059	673661.7073932481
0.8098590309636085	682801.8801827666
0.8100614957213493	682944.3015694635
0.8102640110952797	697084.4605464932
0.8104665770980536	705522.7696858884
0.8106691937423283	717336.3486346469
0.8108718610407639	724025.0886524302
0.8110745790060241	730975.230244475
0.8112773476507757	743732.931940502
0.8114801669876885	751282.6941241191
0.8116830370294355	758302.0445174982
0.8118859577886929	784554.8908835221
0.8120889292781401	786218.0784604674
0.8122919515104597	789166.5640801743
0.8124950244983374	794691.0457721343
0.8126981482544621	818502.5502106529
0.8129013227915257	830037.2391955919
0.8131045481222237	838379.9377683214
0.8133078242592543	838520.7729701815
0.8135111512153191	849834.9876992702
0.813714529003123	856552.1638226501
0.8139179576353739	878043.4029984812
0.8141214371247829	888857.4222084472
0.8143249674840641	885668.8558407972
0.814528548725935	913671.4719427753
0.8147321808631167	931843.0866752322
0.8149358639083326	935306.0588614449
0.8151395978743097	927414.696008827
0.8153433827737784	968838.7038067684
0.8155472186194719	968399.9700258818
0.8157511054241268	980102.2705849365
0.815955043200483	1001924.5048690619
0.8161590319612831	1018751.7924442051
0.8163630717192736	999235.1658398204
0.8165671624872033	1032623.2535703911
0.8167713042778252	1050226.4078983578
0.8169754971038948	1072248.186529609
0.8171797409781707	1051829.6898037312
0.8173840359134155	1099853.755132346
0.8175883819223938	1112415.1575403237
0.8177927790178745	1118881.7058136095
0.8179972272126291	1109900.7477951006
0.8182017265194322	1103147.0928471326
0.8184062769510622	1086824.121589936
0.8186108785203001	1161236.9783417333
0.8188155312399301	1171140.5444846842
0.8190202351227402	1179072.9806425588
0.819224990181521	1142887.066690431
0.8194297964290664	1034709.5797580224
0.8196346538781738	1117849.8652970628
0.8198395625416434	1224600.087194061
0.8200445224322789	1249349.576489254
0.820249533562887	1280557.3054775589
0.8204545959462778	1303509.4684867621
0.8206597095952644	1319215.813753534
0.8208648745226633	1335673.9029568275
0.8210700907412941	1350476.770799241
0.8212753582639793	1367488.1884952355
0.8214806771035456	1385740.1067668183
0.8216860472728215	1401699.5003780096
0.8218914687846397	1413984.9036154961
0.822096941651836	1431331.1059548194
0.822302465887249	1447384.7027242403
0.8225080415037209	1463525.0060887025
0.8227136685140968	1449124.9526826546
0.8229193469312254	1412120.1115363196
0.8231250767679583	1411312.1513997384
0.8233308580371503	1478887.2930345805
0.8235366907516598	1508877.0750990596
0.8237425749243477	1541463.7023899315
0.8239485105680789	1555532.6526666218
0.824154497695721	1584615.7763163846
0.824360536320145	1591561.9202389503
0.8245666264542252	1590549.2554847975
0.8247727681108388	1650510.6261813908
0.8249789613028664	1665587.1136022054
0.8251852060431922	1685090.3412882166
0.825391502344703	1708484.6107803495
0.8255978502202894	1725502.4070839796
0.8258042496828445	1730711.4939223658
0.8260107007452654	1759312.6262165038
0.8262172034204517	1752924.8885795807
0.8264237577213068	1783181.4475083842
0.8266303636607373	1803082.9624261174
0.8268370212516525	1834682.1112219228
0.8270437305069654	1851870.4735759113
0.8272504914395923	1867096.5071335495
0.8274573040624523	1873102.7160191915
0.8276641683884679	1890361.8770950926
0.8278710844305652	1909881.7937834384
0.8280780522016729	1944416.6800520173
0.8282850717147234	1950737.8002620868
0.8284921429826521	1975782.108529103
0.8286992660183978	2002466.2287760996
0.8289064408349024	2000541.219051256
0.8291136674451112	2009035.0223225756
0.8293209458619727	2050025.1870960125
0.8295282760984382	2047559.3066116231
0.829735658167463	2028516.3718508126
0.8299430920820048	2107611.7863153247
0.8301505778550254	2133221.1437317664
0.8303581154994891	2149069.3468791964
0.8305657050283641	2175435.739743981
0.8307733464546212	2157209.881343639
0.8309810397912352	2221221.441443845
0.8311887850511829	2251067.5087867407
0.8313965822474458	2237061.812689404
0.8316044313930077	2285462.904157421
0.8318123325008561	2298078.1052484675
0.8320202855839813	2303572.9013982746
0.8322282906553774	2336348.250426017
0.8324363477280413	2332378.2589369584
0.8326444568149735	2405937.4224816775
0.8328526179291771	2431714.7725750403
0.8330608310836596	2428463.6294990033
0.8332690962914304	2425692.467674055
0.8334774135655034	2457979.4917565486
0.833685782918895	2483484.105286335
0.8338942043646247	2533727.699787727
0.834102677915716	2501391.936033508
0.834311203585195	2569503.6094095805
0.8345197813860912	2602387.896951635
0.8347284113314379	2638019.5342349634
0.8349370934342709	2656383.0161974626
0.8351458277076294	2620298.79631751
0.8353546141645565	2691455.709040425
0.8355634528180977	2663577.7623628196
0.8357723436813022	2696699.624617774
0.8359812867672226	2679613.447684611
0.8361902820889144	2790364.3444444085
0.8363993296594368	2708875.6084879274
0.8366084294918518	2820993.0133127416
0.8368175815992247	2837694.5158553836
0.8370267859946247	2839250.6459676153
0.8372360426911234	2903878.5589340185
0.8374453517017962	2938537.3689080556
0.8376547130397217	2908990.769396998
0.8378641267179816	2914463.2367567928
0.8380735927496613	3007201.135165351
0.8382831111478488	3045045.2605180047
0.8384926819256358	3069302.629186347
0.8387023050961173	3056745.7816350134
0.8389119806723914	3071155.472281663
0.8391217086675596	3159781.7446542457
0.8393314890947265	3198592.3427894097
0.8395413219670003	3202413.351224045
0.8397512072974922	3224610.8981107255
0.8399611450993165	3206983.41219926
0.8401711353855914	3254351.0662370445
0.8403811781694378	3305928.579106335
0.8405912734639802	3291105.317270603
0.8408014212823464	3300783.8336548293
0.8410116216376671	3368642.5239837365
0.8412218745430766	3423980.8597498974
0.8414321800117124	3460942.2051898055
0.8416425380567154	3446614.7027459135
0.8418529486912297	3488635.9188375166
0.8420634119284025	3432295.9351076246
0.8422739277813847	3542466.295765819
0.8424844962633302	3581545.93552073
0.842695117387396	3637413.924849014
0.8429057911667428	3653146.1670341906
0.8431165176145345	3633397.610228072
0.8433272967439382	3702403.9009515764
0.8435381285681244	3711952.392134207
0.8437490131002665	3738432.7087722574
0.8439599503535415	3804486.5539373844
0.84417094034113	3791994.5593651207
0.8443819830762154	3780714.110564095
0.8445930785719846	3871482.034248687
0.8448042268416277	3909663.233382206
0.8450154278983382	3923609.8908837573
0.8452266817553128	3951970.21695088
0.8454379884257517	3975740.876570712
0.8456493479228583	3949175.3568331995
0.845860760259839	4068563.855006058
0.846072225449904	4121863.832173792
0.8462837435062666	4128748.1794334296
0.8464953144421433	4085951.1095993705
0.8467069382707537	4152535.5374461827
0.8469186150053215	4225192.614671946
0.847130344659073	4221453.778352014
0.8473421272452377	4271055.460856402
0.8475539627770492	4288638.66542485
0.8477658512677435	4321487.368443629
0.8479777927305605	4372416.679925893
0.8481897871787432	4399866.662440491
0.848401834625538	4434014.272941262
0.8486139350841944	4448074.573048347
0.8488260885679657	4447476.732828435
0.8490382950901076	4471649.488577622
0.8492505546638802	4529395.630562077
0.8494628673025462	4513607.604008273
0.8496752330193721	4573166.45001347
0.8498876518276269	4547282.773824118
0.8501001237405839	4517332.029116121
0.8503126487715191	4523951.675330666
0.850525226933712	4501202.154882521
0.8507378582404455	4432034.601247619
0.8509505427050057	4292339.159367348
0.8511632803406821	4105387.441315137
0.8513760711607672	3706941.2063917057
0.8515889151785576	3047528.207698054
0.8518018124073523	1890276.0998400098
0.8520147628604541	520521.7244201923
0.8522277665511693	604184.5589555994
0.8524408234928071	2028807.2437988038
0.8526539336986805	3202226.8089164393
0.8528670971821053	3920519.0724904216
0.8530803139564007	4362820.246390057
0.8532935840348901	4636805.322655087
0.8535069074308987	4868191.107124025
0.8537202841577566	5012524.041004496
0.8539337142287962	5106557.263450661
0.8541471976573534	5189992.1597845545
0.8543607344567677	5302387.701583408
0.8545743246403821	5385525.169485752
0.8547879682215422	5430123.564580807
0.8550016652135977	5494863.793144058
0.8552154156299011	5536330.777579093
0.8554292194838088	5586799.003659297
0.8556430767886797	5626881.331410273
0.855856987557877	5707846.740009951
0.8560709518047664	5767942.457531989
0.8562849695427177	5815798.940119518
0.8564990407851035	5826453.44606281
0.8567131655452999	5900607.586934908
0.8569273438366862	5964356.494211043
0.8571415756726455	6001905.071342073
0.8573558610665638	6028062.744442084
0.8575702000318304	6038663.254268609
0.8577845925818384	6112688.941002004
0.857999038729984	6186842.4665501565
0.8582135384896665	6223759.7079147305
0.858428091874289	6250814.360816801
0.8586426988972576	6304482.062051352
0.8588573595719821	6334791.274734619
0.8590720739118751	6378915.913051099
0.8592868419303532	6423962.45863617
0.8595016636408359	6480854.287411079
0.8597165390567462	6527848.787020524
0.8599314681915105	6545334.391417188
0.8601464510585584	6575907.130979032
0.860361487671323	6631955.1066414835
0.8605765780432408	6670336.483520352
0.8607917221877518	6692775.160503354
0.8610069201182988	6687322.954781067
0.8612221718483286	6249734.918939738
0.8614374773912907	5057247.16503514
0.8616528367606385	5540566.278779313
0.8618682499698288	5057043.1302170465
0.8620837170323213	5003830.469967488
0.8622992379615795	5459260.402068107
0.8625148127710699	5368526.385232154
0.8627304414742627	4985338.793894646
0.8629461240846313	6091453.360321049
0.8631618606156526	5152402.750915426
0.8633776510808066	5131987.636407443
0.8635934954935769	5280988.234372297
0.8638093938674504	5508371.880272576
0.8640253462159173	5653992.789912197
0.8642413525524714	5432739.254273889
0.8644574128906095	5928515.024199101
0.8646735272438323	5986435.261799358
0.8648896956256433	5336540.942698768
0.8651059180495498	6267597.44810762
0.8653221945290621	5826526.639632299
0.8655385250776946	6922730.897132582
0.8657549097089641	6364768.008216963
0.8659713484363913	6349993.409835172
0.8661878412735006	6542721.891251089
0.866404388233819	6652105.5100970715
0.8666209893308775	6288042.507070693
0.8668376445782103	7342386.823060214
0.8670543539893549	6660868.11360329
0.8672711175778525	6678520.326489079
0.8674879353572469	6654901.532814886
0.8677048073410862	7091540.467531784
0.8679217335429217	7283947.404856004
0.8681387139763074	7160551.887202872
0.8683557486548015	6644973.668585322
0.8685728375919655	6437377.231737208
0.8687899808013633	7369779.39591375
0.8690071782965637	7575172.344409877
0.869224430091138	7852802.9919788
0.8694417361986609	7613475.005495731
0.8696590966327107	6543877.917480977
0.869876511406869	6918739.934959394
0.8700939805347206	7401419.562315383
0.8703115040298544	7608477.511815962
0.870529081905862	7137766.909266813
0.8707467141763385	7514722.403395201
0.8709644008548827	6966637.3990150085
0.8711821419550964	6973588.047714852
0.8713999374905854	7069572.71254056
0.871617787474958	7907734.080166198
0.8718356919218269	7695308.4926512735
0.8720536508448075	7133753.946799216
0.8722716642575187	7350942.959152629
0.8724897321735832	7168187.233673979
0.8727078546066265	8022800.386321126
0.8729260315702784	7401761.626239756
0.873144263078171	7895750.534628328
0.8733625491439405	8094463.38003111
0.8735808897812266	7132445.187448811
0.8737992850036719	7724099.219835448
0.874017734824923	7852123.528851356
0.8742362392586293	8451112.348760216
0.874454798318444	8417115.264298454
0.8746734120180236	8400054.977224907
0.8748920803710283	8672305.076560244
0.875110803391121	8185257.041310055
0.8753295810919689	7761888.336214898
0.875548413487242	8782129.088560779
0.8757673005906139	8691489.61610277
0.8759862424157616	9061242.893122312
0.8762052389763657	9057639.199771233
0.8764242902861098	8596611.800375884
0.8766433963586814	9169475.035471292
0.8768625572077712	8209203.705717907
0.8770817728470732	7837051.64071166
0.8773010432902849	9153435.361807842
0.8775203685511077	8871024.362837415
0.8777397486432454	10054729.469475457
0.8779591835804065	9728583.545550644
0.8781786733763015	8768955.519859152
0.8783982180446457	9158493.896295946
0.878617817599157	9469894.185142202
0.8788374720535569	8359838.814209228
0.8790571814215703	9040251.383558424
0.8792769457169257	9428738.088023411
0.879496764953355	9265915.464539105
0.8797166391445934	10554289.676967304
0.8799365683043796	10457732.017073268
0.8801565524464557	9425785.787612882
0.8803765915845676	8992738.617507642
0.8805966857324639	9632763.680546537
0.880816834903897	8819920.067325722
0.881037039112623	9772214.559237568
0.8812572983724012	9693987.373042602
0.8814776126969944	9584242.260936623
0.8816979821001687	10088574.064568315
0.8819184065956938	10930313.52057046
0.8821388861973429	10504619.742561933
0.8823594209188923	9406013.330564303
0.882580010774122	9397441.76481743
0.8828006557768155	9576090.770803487
0.8830213559407598	9299468.129230337
0.8832421112797452	10872017.492762549
0.8834629218075651	9530471.53031679
0.8836837875380171	9370325.660730889
0.8839047084849018	10374741.477266751
0.884125684662023	11272796.843711758
0.8843467160831886	11398382.139873633
0.8845678027622095	11192540.486698247
0.8847889447129001	9051019.078925218
0.8850101419490785	9908946.38223109
0.8852313944845657	10293421.056366596
0.885452702333187	11998267.425477652
0.8856740655087704	11498793.981612995
0.8858954840251476	9831071.616046961
0.8861169578961539	9877367.137081278
0.886338487135628	11944409.016848674
0.886560071757412	11939085.954182824
0.8867817117753515	11588978.561607396
0.8870034072032955	10882436.043948608
0.8872251580550963	9093081.81633202
0.8874469643446101	9778638.146551127
0.8876688260856963	10472628.747778775
0.8878907432922178	11878159.731651071
0.8881127159780409	12293965.958548028
0.8883347441570356	11758391.981731474
0.8885568278430749	9268032.036772909
0.8887789670500358	11463523.819000369
0.8890011617917983	12110450.781394968
0.8892234120822464	12913222.602703536
0.8894457179352669	12521092.894297088
0.8896680793647509	10945063.454679122
0.8898904963845921	9715234.205835607
0.8901129690086883	11518608.571529519
0.8903354972509405	12991423.903006759
0.8905580811252535	12920562.157071607
0.8907807206455347	12330456.1591874
0.8910034158256963	11657869.357472708
0.8912261666796527	9972160.19735674
0.8914489732213227	12118522.676626524
0.8916718354646282	12738517.220747048
0.8918947534234944	11683312.82705605
0.8921177271118502	10876900.672148474
0.8923407565436284	11697552.190894067
0.8925638417327644	9575288.405422192
0.8927869826931977	11073383.203056665
0.8930101794388711	10997301.398689425
0.8932334319837308	10592513.624011934
0.8934567403417267	10372448.316398997
0.8936801045268123	8422102.505274678
0.8939035245529441	6107758.20386423
0.8941270004340824	2956072.8756615045
0.894350532184191	724708.5264342473
0.8945741198172371	3190509.4063056563
0.8947977633471915	6427097.423236736
0.8950214627880284	8865199.392523298
0.8952452181537254	10010045.644785155
0.8954690294582639	9230039.510657603
0.8956928967156286	11107854.976008022
0.8959168199398075	12791154.07242786
0.8961407991447926	13632526.540148046
0.8963648343445789	13520815.245827356
0.896588925553165	12134840.28934531
0.8968130727845534	11338034.288171122
0.8970372760527496	12222358.772718033
0.8972615353717629	13431943.515176661
0.8974858507556059	13111182.175029337
0.8977102222182949	14148729.000736851
0.8979346497738496	15254214.746055532
0.8981591334362931	14020016.158237211
0.8983836732196523	12254414.679454
0.8986082691379572	14296383.184293263
0.8988329212052417	15072141.859213872
0.8990576294355432	14265163.787423827
0.8992823938429022	14664361.413801327
0.8995072144413631	15287045.148103336
0.8997320912449734	14453752.405630106
0.8999570242677847	14362691.815661993
0.9001820135238516	13240735.307051133
0.9004070590272328	15586683.904154366
0.9006321607919896	16450888.449998781
0.9008573188321878	16628597.55047764
0.9010825331618959	15967957.822732154
0.9013078037951865	14914404.632793745
0.9015331307461353	15440023.965807175
0.9017585140288219	15378428.75793449
0.9019839536573292	17081984.14495884
0.9022094496457435	18086399.074015614
0.9024350020081551	17550054.78329413
0.9026606107586572	17637548.702449165
0.902886275911347	15144112.021647407
0.9031119974803249	15454812.693533419
0.9033377754796951	16480553.197341438
0.903563609923565	17752023.19746589
0.903789500826046	19207639.003037833
0.9040154482012526	19431042.59981737
0.904241452063303	17906270.692660946
0.9044675124263188	16696182.833542561
0.9046936293044254	17496755.381576892
0.9049198027117517	17423379.501093112
0.9051460326624297	18906191.285332315
0.9053723191705955	19698408.09894539
0.9055986622503881	18805292.103126124
0.9058250619159507	19317256.730604205
0.9060515181814298	17453802.930225104
0.9062780310609752	18344506.96084017
0.9065046005687405	18389369.506806992
0.906731226718883	18603161.096454546
0.9069579095255627	19793570.04502619
0.907184649002944	18995389.291805763
0.907411445165195	19192997.342006247
0.9076382980264862	18665666.02458917
0.907865207600993	19240593.935045317
0.9080921739028933	19156083.943446245
0.9083191969463691	17800387.925170068
0.9085462767456058	20136717.689158928
0.9087734133147922	20889353.818731397
0.9090006066681211	19544077.162788454
0.909227856819788	20080754.28958805
0.9094551637839932	19593707.05275198
0.9096825275749393	20604847.760929152
0.9099099482068329	19668838.407180026
0.9101374256938848	19971955.881489173
0.9103649600503083	19864820.47906649
0.9105925512903209	22138213.066835947
0.9108201994281437	18851310.499666963
0.9110479044780008	19027585.98315056
0.9112756664541204	21056154.143269915
0.911503485370734	20773127.885454696
0.9117313612420768	21700221.672719058
0.9119592940823873	20040255.54042297
0.912187283905908	21828310.41019415
0.9124153307268845	22628148.358778078
0.9126434345595664	22731283.45673356
0.9128715954182063	20697136.399895865
0.9130998133170609	19228325.68769704
0.9133280882703902	19811707.402727544
0.913556420292458	22307264.613430485
0.9137848093975312	21165821.54763553
0.9140132555998806	20767043.437962294
0.9142417589137806	22742352.893633727
0.9144703193535092	20879854.47294517
