#wavelength	surface flux
0.8	779216.8316583275
0.8002000000000001	791984.2950629826
0.8004000500000003	805830.5035700792
0.8006001500125003	819531.3769205341
0.8008003000500035	833585.5978599228
0.8010005001250161	847120.9821120328
0.8012007502500472	862928.1864951506
0.8014010504376099	874902.5802812446
0.8016014007002193	888234.5383911484
0.8018018010503944	904096.325094619
0.8020022515006572	916287.8118157933
0.8022027520635323	931745.3827621323
0.8024033027515483	947568.7015276678
0.8026039035772362	960610.8167503866
0.8028045545531306	975185.7058915858
0.8030052556917691	989347.0329334965
0.803206007005692	1005397.3706891696
0.8034068085074435	1019975.0380146984
0.8036076602095705	1038846.6579682373
0.8038085621246229	1055291.9740986465
0.8040095142651542	1071072.9163854623
0.8042105166437206	1081269.8504142563
0.8044115692728815	1099910.006014888
0.8046126721651998	1114874.8665579676
0.8048138253332411	1133963.4521484736
0.8050150287895745	1152922.3740910331
0.805216282546772	1167549.1890256335
0.8054175866174087	1178840.5942625543
0.8056189410140631	1198659.4643699673
0.8058203457493168	1214436.866817521
0.8060218008357541	1235986.493355381
0.8062233062859632	1242015.1176995742
0.8064248621125346	1264345.1301943206
0.806626468328063	1287787.2119074627
0.8068281249451449	1303384.2648822109
0.8070298319763813	1317369.4366138752
0.8072315894343755	1329925.091802843
0.8074333973317341	1355367.4591071028
0.8076352556810671	1376557.807257036
0.8078371644949874	1391780.4191937216
0.8080391237861113	1418883.342910256
0.8082411335670578	1428402.5093199988
0.8084431938504498	1443069.2701903773
0.8086453046489125	1464353.0800943165
0.8088474659750746	1478860.499714659
0.8090496778415686	1495466.689253082
0.809251940261029	1497030.7830044327
0.8094542532460944	1542204.9724206794
0.8096566168094059	1564277.8830890136
0.8098590309636085	1581815.0563708376
0.8100614957213493	1568959.5646179116
0.8102640110952797	1608085.6451335447
0.8104665770980536	1622437.085326192
0.8106691937423283	1651531.7220212377
0.8108718610407639	1657984.5392416692
0.8110745790060241	1677320.7558493777
0.8112773476507757	1715228.5663085578
0.8114801669876885	1717221.5590497698
0.8116830370294355	1732500.1374544431
0.8118859577886929	1797629.1417999743
0.8120889292781401	1795372.098113092
0.8122919515104597	1795301.057193391
0.8124950244983374	1791457.961574195
0.8126981482544621	1864450.4702642143
0.8129013227915257	1896935.3181396155
0.8131045481222237	1914957.2737523268
0.8133078242592543	1912221.107783764
0.8135111512153191	1935914.2399978014
0.813714529003123	1948025.215738154
0.8139179576353739	1995364.966346232
0.8141214371247829	2010597.333976072
0.8143249674840641	1991795.449709321
0.814528548725935	2066520.6705026715
0.8147321808631167	2106892.2045539445
0.8149358639083326	2099130.204253235
0.8151395978743097	2069554.0443953988
0.8153433827737784	2179076.283467335
0.8155472186194719	2171674.3732033963
0.8157511054241268	2201000.4607192907
0.815955043200483	2251092.2232305175
0.8161590319612831	2283936.579620747
0.8163630717192736	2220987.9797861087
0.8165671624872033	2316092.981833126
0.8167713042778252	2348172.107682055
0.8169754971038948	2394958.123045378
0.8171797409781707	2334867.1921030884
0.8173840359134155	2453531.886089707
0.8175883819223938	2465056.8071186715
0.8177927790178745	2486737.494675915
0.8179972272126291	2448965.4507218264
0.8182017265194322	2271378.0957929404
0.8184062769510622	2142251.5144240055
0.8186108785203001	2530290.7051525847
0.8188155312399301	2552830.5554525936
0.8190202351227402	2563403.357604225
0.819224990181521	2390111.5466401097
0.8194297964290664	1796488.4271906295
0.8196346538781738	2186282.199281233
0.8198395625416434	2626391.1774230446
0.8200445224322789	2723209.8028710955
0.820249533562887	2805415.137102445
0.8204545959462778	2846203.6580271083
0.8206597095952644	2882955.10398742
0.8208648745226633	2928752.0134316324
0.8210700907412941	2958503.927121395
0.8212753582639793	2995055.9416998196
0.8214806771035456	3029693.950619886
0.8216860472728215	3061180.2729425426
0.8218914687846397	3083167.7246289197
0.822096941651836	3122497.4805758037
0.822302465887249	3163994.7859842493
0.8225080415037209	3200649.644453743
0.8227136685140968	3154240.0718645724
0.8229193469312254	3055496.6268984824
0.8231250767679583	3078292.8833568315
0.8233308580371503	3244832.303892665
0.8235366907516598	3263140.017494087
0.8237425749243477	3349499.3158075623
0.8239485105680789	3376326.6632769993
0.824154497695721	3428313.704344768
0.824360536320145	3428372.4897788246
0.8245666264542252	3390517.2623861358
0.8247727681108388	3564843.046416932
0.8249789613028664	3597071.0284302956
0.8251852060431922	3637480.7542567323
0.825391502344703	3695534.008153148
0.8255978502202894	3725882.331646161
0.8258042496828445	3739287.905388498
0.8260107007452654	3794256.301670833
0.8262172034204517	3744889.2921686694
0.8264237577213068	3824594.6343597556
0.8266303636607373	3886753.350589666
0.8268370212516525	3945508.4510878366
0.8270437305069654	3980448.7592780557
0.8272504914395923	4007333.258661201
0.8274573040624523	3999870.1826565466
0.8276641683884679	4065308.969302118
0.8278710844305652	4091689.6928301514
0.8280780522016729	4169751.893313924
0.8282850717147234	4173569.3027827665
0.8284921429826521	4242375.683473012
0.8286992660183978	4280226.676341955
0.8289064408349024	4269597.372283407
0.8291136674451112	4274072.472100793
0.8293209458619727	4357197.677484359
0.8295282760984382	4334840.760553357
0.829735658167463	4264904.23323608
0.8299430920820048	4471227.590859446
0.8301505778550254	4542767.460832934
0.8303581154994891	4572683.159972772
0.8305657050283641	4634762.121475682
0.8307733464546212	4569228.683991062
0.8309810397912352	4711183.156058689
0.8311887850511829	4775342.213848333
0.8313965822474458	4724565.899764392
0.8316044313930077	4843843.303314432
0.8318123325008561	4884310.163813454
0.8320202855839813	4891661.260302331
0.8322282906553774	4964744.11947234
0.8324363477280413	4965965.218405272
0.8326444568149735	5089701.12888833
0.8328526179291771	5140566.841238343
0.8330608310836596	5120240.792074306
0.8332690962914304	5096754.352919124
0.8334774135655034	5178114.354161602
0.833685782918895	5223845.3787467
0.8338942043646247	5345888.381611318
0.834102677915716	5285107.9151690155
0.834311203585195	5412519.60385926
0.8345197813860912	5482182.846337718
0.8347284113314379	5554150.421298939
0.8349370934342709	5599586.385611991
0.8351458277076294	5450203.259682829
0.8353546141645565	5642182.0283241
0.8355634528180977	5557909.280875393
0.8357723436813022	5614672.824556706
0.8359812867672226	5547196.336151455
0.8361902820889144	5847971.623463431
0.8363993296594368	5574171.051123439
0.8366084294918518	5896270.483644921
0.8368175815992247	5906488.614124343
0.8370267859946247	5891349.355475895
0.8372360426911234	6088916.224078595
0.8374453517017962	6156367.861005598
0.8376547130397217	6040182.188411521
0.8378641267179816	6031762.557076038
0.8380735927496613	6270298.771044878
0.8382831111478488	6352232.275523313
0.8384926819256358	6408873.924579986
0.8387023050961173	6370604.951578409
0.8389119806723914	6387539.383840633
0.8391217086675596	6591265.366151046
0.8393314890947265	6672474.763342137
0.8395413219670003	6679490.446711582
0.8397512072974922	6728532.403734545
0.8399611450993165	6686689.641128808
0.8401711353855914	6762600.968427556
0.8403811781694378	6880007.021030731
0.8405912734639802	6817890.9655829845
0.8408014212823464	6841163.217226089
0.8410116216376671	7002978.77341435
0.8412218745430766	7109035.13305627
0.8414321800117124	7191319.560704851
0.8416425380567154	7145283.542091936
0.8418529486912297	7233841.976625302
0.8420634119284025	7067725.379232963
0.8422739277813847	7316575.985538494
0.8424844962633302	7380838.506416845
0.842695117387396	7536303.932550348
0.8429057911667428	7569950.8247585315
0.8431165176145345	7500080.900579843
0.8433272967439382	7652846.798787619
0.8435381285681244	7629584.58119739
0.8437490131002665	7654063.482910591
0.8439599503535415	7831908.239069222
0.84417094034113	7783016.446518152
0.8443819830762154	7742893.695448022
0.8445930785719846	7927574.339671929
0.8448042268416277	8004832.182414564
0.8450154278983382	8055563.809201224
0.8452266817553128	8086486.613523529
0.8454379884257517	8105864.3824743815
0.8456493479228583	7956421.418682545
0.845860760259839	8283477.779507333
0.846072225449904	8416660.427197725
0.8462837435062666	8435804.189665314
0.8464953144421433	8263408.749537762
0.8467069382707537	8403937.638901688
0.8469186150053215	8600465.049198966
0.847130344659073	8552395.284265261
0.8473421272452377	8663301.103242045
0.8475539627770492	8680118.697903965
0.8477658512677435	8751916.477764966
0.8479777927305605	8873938.094241768
0.8481897871787432	8919308.396815037
0.848401834625538	8989637.590360826
0.8486139350841944	9016920.173297178
0.8488260885679657	9007334.994154926
0.8490382950901076	9042688.734897679
0.8492505546638802	9169299.20115332
0.8494628673025462	9068571.010984639
0.8496752330193721	9252298.061093343
0.8498876518276269	9178034.443558637
0.8501001237405839	9059147.32946986
0.8503126487715191	9080677.128519818
0.850525226933712	9035595.791089654
0.8507378582404455	8852318.619584557
0.8509505427050057	8511566.200230766
0.8511632803406821	8131883.317330606
0.8513760711607672	7237755.734266425
0.8515889151785576	5845860.893792347
0.8518018124073523	3510853.5702927434
0.8520147628604541	879588.4135329715
0.8522277665511693	1035042.970819169
0.8524408234928071	3769808.962224694
0.8526539336986805	6137611.60420295
0.8528670971821053	7646724.265674558
0.8530803139564007	8595173.647510095
0.8532935840348901	9163995.341441274
0.8535069074308987	9701928.911261752
0.8537202841577566	10008425.009659283
0.8539337142287962	10215058.218778623
0.8541471976573534	10362919.595220918
0.8543607344567677	10514241.92926551
0.8545743246403821	10751280.212174714
0.8547879682215422	10807694.162693167
0.8550016652135977	10969992.241747644
0.8552154156299011	11033346.07600587
0.8554292194838088	11134213.575896828
0.8556430767886797	11175769.536933927
0.855856987557877	11389867.794791048
0.8560709518047664	11503603.43459717
0.8562849695427177	11621010.670114204
0.8564990407851035	11638719.415717209
0.8567131655452999	11786481.051526593
0.8569273438366862	11921834.638129937
0.8571415756726455	11971265.695498101
0.8573558610665638	11883234.55483517
0.8575702000318304	11892952.486137629
0.8577845925818384	12114840.504885534
0.857999038729984	12307723.716101578
0.8582135384896665	12384995.771502506
0.858428091874289	12402365.29832337
0.8586426988972576	12517217.41965298
0.8588573595719821	12505707.668492071
0.8590720739118751	12557835.165851565
0.8592868419303532	12685057.173150335
0.8595016636408359	12776925.31581945
0.8597165390567462	12878070.63140931
0.8599314681915105	12870398.51461516
0.8601464510585584	12872366.702910103
0.860361487671323	13055934.112548037
0.8605765780432408	13106717.84888991
0.8607917221877518	13137720.554805174
0.8610069201182988	12964897.856111938
0.8612221718483286	11603179.8193001
0.8614374773912907	7759987.25269875
0.8616528367606385	9141896.046762612
0.8618682499698288	7570468.743548369
0.8620837170323213	7515649.267176319
0.8622992379615795	8678218.352815889
0.8625148127710699	8697772.363927493
0.8627304414742627	7367070.022718144
0.8629461240846313	10596512.752351345
0.8631618606156526	7782131.223944219
0.8633776510808066	7283600.1097402545
0.8635934954935769	7724323.609231715
0.8638093938674504	8267161.676061639
0.8640253462159173	8858934.210072104
0.8642413525524714	8212091.475895705
0.8644574128906095	9477951.360711278
0.8646735272438323	9712176.269722562
0.8648896956256433	7661394.652926699
0.8651059180495498	10122954.74401291
0.8653221945290621	9124075.380072316
0.8655385250776946	12264883.629579693
0.8657549097089641	10402061.026747705
0.8659713484363913	10289123.581303379
0.8661878412735006	10759355.861786539
0.866404388233819	10978734.186432661
0.8666209893308775	9817430.692160038
0.8668376445782103	13191036.459320348
0.8670543539893549	11078336.168271407
0.8672711175778525	10698456.815774854
0.8674879353572469	10828413.86440799
0.8677048073410862	11894480.332192358
0.8679217335429217	12534065.015771084
0.8681387139763074	12013586.051058251
0.8683557486548015	10162863.65660172
0.8685728375919655	9686973.992656851
0.8687899808013633	12326102.116871865
0.8690071782965637	13189514.489372946
0.869224430091138	13850864.999343155
0.8694417361986609	12817071.17476022
0.8696590966327107	9903693.788721036
0.869876511406869	10740091.95064937
0.8700939805347206	12062569.643309874
0.8703115040298544	12464385.033415316
0.870529081905862	11007449.466666307
0.8707467141763385	12429596.977050612
0.8709644008548827	10708631.952505728
0.8711821419550964	10133258.291172007
0.8713999374905854	10315933.112131134
0.871617787474958	12484082.997269128
0.8718356919218269	12060401.809680002
0.8720536508448075	10141326.061006099
0.8722716642575187	11429827.314790562
0.8724897321735832	10565200.92008439
0.8727078546066265	12976140.866709657
0.8729260315702784	10951740.81356416
0.873144263078171	12262306.200494437
0.8733625491439405	12851983.308618145
0.8735808897812266	9858106.704918744
0.8737992850036719	11699689.435239974
0.874017734824923	12268203.633319959
0.8742362392586293	13255395.422476178
0.874454798318444	13461519.91439927
0.8746734120180236	13575980.858280098
0.8748920803710283	14176123.591123972
0.875110803391121	12497092.295862082
0.8753295810919689	11868547.256111428
0.875548413487242	14713054.227131274
0.8757673005906139	14178231.200597882
0.8759862424157616	14856282.83184534
0.8762052389763657	15014832.282390729
0.8764242902861098	13667119.59394558
0.8766433963586814	14735801.521358589
0.8768625572077712	12268385.808349445
0.8770817728470732	11258274.974380223
0.8773010432902849	14985467.958411157
0.8775203685511077	14091803.802614354
0.8777397486432454	17279327.681398053
0.8779591835804065	16462619.46031929
0.8781786733763015	13402564.09200122
0.8783982180446457	14476945.557989774
0.878617817599157	15497964.28462725
0.8788374720535569	12577705.947860995
0.8790571814215703	13959952.308381388
0.8792769457169257	14542972.338437835
0.879496764953355	14613733.870205412
0.8797166391445934	18439548.880531695
0.8799365683043796	17896917.410647642
0.8801565524464557	14866173.94613817
0.8803765915845676	13315551.746424496
0.8805966857324639	15159586.283620378
0.880816834903897	13390545.120174482
0.881037039112623	16017603.721027438
0.8812572983724012	15743510.400480617
0.8814776126969944	15161387.86502972
0.8816979821001687	16725628.032284686
0.8819184065956938	19394138.230588146
0.8821388861973429	17722829.16384063
0.8823594209188923	14928057.521880616
0.882580010774122	15059723.559981145
0.8828006557768155	15554612.396723751
0.8830213559407598	14375206.03110317
0.8832421112797452	19477108.40251734
0.8834629218075651	15322075.002797844
0.8836837875380171	14869389.040712658
0.8839047084849018	17750539.48200233
0.884125684662023	20210553.509406522
0.8843467160831886	20313445.67707753
0.8845678027622095	19387093.40259459
0.8847889447129001	13186009.830570694
0.8850101419490785	15424882.089095129
0.8852313944845657	16830453.92175466
0.885452702333187	21942658.59609401
0.8856740655087704	19561908.616723306
0.8858954840251476	15117738.022162598
0.8861169578961539	15627930.149981517
0.886338487135628	21701812.822691515
0.886560071757412	21085662.766133714
0.8867817117753515	20522594.031942092
0.8870034072032955	18299945.191927116
0.8872251580550963	13634720.46285561
0.8874469643446101	15530366.059718251
0.8876688260856963	16727055.964956526
0.8878907432922178	21230859.32713105
0.8881127159780409	22656311.733877923
0.8883347441570356	20691685.809628177
0.8885568278430749	13604926.782858027
0.8887789670500358	19257922.19797612
0.8890011617917983	21022448.930858828
0.8892234120822464	23525410.897320114
0.8894457179352669	22025909.58588862
0.8896680793647509	16937749.603533313
0.8898904963845921	14220292.709581114
0.8901129690086883	19420895.50799143
0.8903354972509405	23772766.14327115
0.8905580811252535	23257955.31659303
0.8907807206455347	21255392.40544639
0.8910034158256963	19455009.40905819
0.8912261666796527	15608326.881243631
0.8914489732213227	20928256.84056241
0.8916718354646282	23367539.907394007
0.8918947534234944	19223491.519654874
0.8921177271118502	16980780.733635
0.8923407565436284	20267188.215393852
0.8925638417327644	14656296.125043755
0.8927869826931977	19064188.781344324
0.8930101794388711	18644179.047697436
0.8932334319837308	18635052.996942405
0.8934567403417267	19051371.045576338
0.8936801045268123	15031294.384725325
0.8939035245529441	10006870.1340829
0.8941270004340824	4593789.48396298
0.894350532184191	1025911.8697383332
0.8945741198172371	5255620.010282725
0.8947977633471915	10848311.722808328
0.8950214627880284	15956218.353549672
0.8952452181537254	17355722.481744472
0.8954690294582639	14176678.426487995
0.8956928967156286	19394352.710307214
0.8959168199398075	23152033.136753347
0.8961407991447926	25025844.20744643
0.8963648343445789	24703735.780008007
0.896588925553165	20063804.68498628
0.8968130727845534	17550969.331580717
0.8970372760527496	19293334.54533903
0.8972615353717629	23051667.488046005
0.8974858507556059	22094606.33009271
0.8977102222182949	24144364.969395388
0.8979346497738496	27119026.1047277
0.8981591334362931	23857911.629587725
0.8983836732196523	19010528.822766125
0.8986082691379572	24451846.64915716
0.8988329212052417	27156137.29298368
0.8990576294355432	24999423.701035142
0.8992823938429022	26127030.473230425
0.8995072144413631	27531393.984279
0.8997320912449734	23585145.518989317
0.8999570242677847	23352717.306265
0.9001820135238516	20607928.593004365
0.9004070590272328	26921845.297572237
0.9006321607919896	29099518.13040373
0.9008573188321878	29716838.14151138
0.9010825331618959	27691641.744433805
0.9013078037951865	24298489.759700656
0.9015331307461353	25517453.00743176
0.9017585140288219	25286852.511498883
0.9019839536573292	30518450.37527771
0.9022094496457435	31949191.201108962
0.9024350020081551	30536452.379115887
0.9026606107586572	31084564.182333928
0.902886275911347	22963067.720607676
0.9031119974803249	23804107.716545597
0.9033377754796951	27239823.16888905
0.903563609923565	30636946.86834439
0.903789500826046	35150027.70885833
0.9040154482012526	35677085.77244791
0.904241452063303	30788287.9061955
0.9044675124263188	27040305.012420166
0.9046936293044254	29209604.182731386
0.9049198027117517	29339167.80512799
0.9051460326624297	33333180.77443215
0.9053723191705955	34954660.39975422
0.9055986622503881	31477433.34830856
0.9058250619159507	33025584.377185777
0.9060515181814298	27757495.054596968
0.9062780310609752	30508632.808588892
0.9065046005687405	31496406.342483763
0.906731226718883	31479952.20047318
0.9069579095255627	35042876.736510925
0.907184649002944	31720976.30512593
0.907411445165195	33039803.896305628
0.9076382980264862	31364060.609723926
0.907865207600993	32222542.01521988
0.9080921739028933	32647671.975186706
0.9083191969463691	28636614.56737195
0.9085462767456058	33900264.18915093
0.9087734133147922	36821286.46640401
0.9090006066681211	33639184.308117
0.909227856819788	34012704.66071321
0.9094551637839932	33269757.584532905
0.9096825275749393	35915803.550291836
0.9099099482068329	33266235.519358158
0.9101374256938848	34088029.68957766
0.9103649600503083	33912208.30127575
0.9105925512903209	40592033.964675054
0.9108201994281437	32042487.014173616
0.9110479044780008	31438383.56722026
0.9112756664541204	36422630.39213862
0.911503485370734	35785095.9946167
0.9117313612420768	39160418.057970025
0.9119592940823873	32960907.1946182
0.912187283905908	39133219.99303503
0.9124153307268845	39752146.05988617
0.9126434345595664	40331814.82289833
0.9128715954182063	35172954.67547493
0.9130998133170609	32827372.44865455
0.9133280882703902	34125940.00103082
0.913556420292458	39939990.392537944
0.9137848093975312	37563036.68822858
0.9140132555998806	35289241.23418802
0.9142417589137806	39382486.54059659
0.9144703193535092	34330818.25072446
