#wavelength	surface flux
0.8	398017.9999957693
0.8002000000000001	405391.81343789224
0.8004000500000003	412805.77892551746
0.8006001500125003	419997.0500728984
0.8008003000500035	427671.73493061686
0.8010005001250161	434878.99944742053
0.8012007502500472	443588.2039664333
0.8014010504376099	450425.56921030395
0.8016014007002193	457443.7126236112
0.8018018010503944	466257.88060961536
0.8020022515006572	472565.69908928097
0.8022027520635323	481250.8675390015
0.8024033027515483	489874.8901160753
0.8026039035772362	496829.3879421299
0.8028045545531306	505998.1603575955
0.8030052556917691	513018.4137541532
0.803206007005692	522165.38753398997
0.8034068085074435	529715.4024882533
0.8036076602095705	540201.0930483559
0.8038085621246229	549361.0087342116
0.8040095142651542	558415.8018147399
0.8042105166437206	564024.8669673415
0.8044115692728815	573970.8630411017
0.8046126721651998	582107.1013732682
0.8048138253332411	593078.9920250401
0.8050150287895745	603825.3775429097
0.805216282546772	611994.4233221828
0.8054175866174087	618001.3273344527
0.8056189410140631	629508.0078012869
0.8058203457493168	637887.0396971838
0.8060218008357541	649960.0369916259
0.8062233062859632	652981.3859385641
0.8064248621125346	666591.5027512031
0.806626468328063	678772.67840558
0.8068281249451449	687258.4450549268
0.8070298319763813	695088.1396311795
0.8072315894343755	702657.2590878705
0.8074333973317341	716636.3689677912
0.8076352556810671	728388.319609736
0.8078371644949874	737275.0078868906
0.8080391237861113	752405.5055140068
0.8082411335670578	756807.0065521973
0.8084431938504498	765955.553766394
0.8086453046489125	777748.6447982505
0.8088474659750746	785278.5999047541
0.8090496778415686	795498.806175049
0.809251940261029	794207.1594946404
0.8094542532460944	821800.8452578965
0.8096566168094059	832876.0512536579
0.8098590309636085	842748.4050828662
0.8100614957213493	834837.7773870752
0.8102640110952797	857373.2782749397
0.8104665770980536	864878.3083864134
0.8106691937423283	881897.003747303
0.8108718610407639	884734.644456023
0.8110745790060241	894374.2379181822
0.8112773476507757	916137.1454693327
0.8114801669876885	918608.8289844878
0.8116830370294355	925663.1563519177
0.8118859577886929	966293.5623983515
0.8120889292781401	962098.6362168303
0.8122919515104597	960203.4526012004
0.8124950244983374	958645.7014379889
0.8126981482544621	1001396.6756608748
0.8129013227915257	1019090.6158521635
0.8131045481222237	1029094.1928284123
0.8133078242592543	1025679.2637939748
0.8135111512153191	1039334.0417253743
0.813714529003123	1043186.0218299266
0.8139179576353739	1072987.0442635252
0.8141214371247829	1082886.426869585
0.8143249674840641	1068035.3675429204
0.814528548725935	1116172.3447550791
0.8147321808631167	1138997.2343317235
0.8149358639083326	1134041.861558248
0.8151395978743097	1110122.6371712245
0.8153433827737784	1180534.7171801943
0.8155472186194719	1172051.9474043201
0.8157511054241268	1189166.5576181614
0.815955043200483	1220313.876090331
0.8161590319612831	1241319.7107122683
0.8163630717192736	1198976.8352659305
0.8165671624872033	1256244.0892425678
0.8167713042778252	1276118.8823742054
0.8169754971038948	1306058.1416099842
0.8171797409781707	1261628.588433157
0.8173840359134155	1340853.004202767
0.8175883819223938	1352209.6494315644
0.8177927790178745	1362139.8357452552
0.8179972272126291	1341956.8367621503
0.8182017265194322	1297882.585001022
0.8184062769510622	1241781.1925418635
0.8186108785203001	1403798.27673903
0.8188155312399301	1407118.2804197914
0.8190202351227402	1423120.6282099562
0.819224990181521	1356670.7005555711
0.8194297964290664	1118811.9723802
0.8196346538781738	1289644.774825899
0.8198395625416434	1474991.9658428656
0.8200445224322789	1506139.296113913
0.820249533562887	1548982.7736327786
0.8204545959462778	1573622.2244352207
0.8206597095952644	1593084.2534213855
0.8208648745226633	1614955.6080260526
0.8210700907412941	1631541.5537479478
0.8212753582639793	1652002.6911818897
0.8214806771035456	1672958.941602349
0.8216860472728215	1690621.9681935566
0.8218914687846397	1702467.5582596662
0.822096941651836	1725503.565984273
0.822302465887249	1747480.9003791274
0.8225080415037209	1769039.6314812365
0.8227136685140968	1737223.293052324
0.8229193469312254	1668117.1671607478
0.8231250767679583	1671699.7242178356
0.8233308580371503	1779231.6360416333
0.8235366907516598	1799914.2245812975
0.8237425749243477	1852023.7927868546
0.8239485105680789	1864715.0301202233
0.824154497695721	1898485.5575693445
0.824360536320145	1896081.4661858964
0.8245666264542252	1870425.5013699615
0.8247727681108388	1984601.2523670315
0.8249789613028664	2000424.9550057575
0.8251852060431922	2024373.0918509844
0.825391502344703	2057827.0206440613
0.8255978502202894	2075857.0867324308
0.8258042496828445	2079548.1045161022
0.8260107007452654	2116815.1963628014
0.8262172034204517	2082617.7810010607
0.8264237577213068	2131461.1210392118
0.8266303636607373	2165711.254880696
0.8268370212516525	2204800.1525236955
0.8270437305069654	2224371.432544145
0.8272504914395923	2239033.071454801
0.8274573040624523	2230981.451307068
0.8276641683884679	2265662.9569021165
0.8278710844305652	2283083.1013244744
0.8280780522016729	2332357.7955901837
0.8282850717147234	2334649.1323762517
0.8284921429826521	2373010.067366151
0.8286992660183978	2398533.276546861
0.8289064408349024	2388400.124070133
0.8291136674451112	2389910.7306854534
0.8293209458619727	2445070.1472816905
0.8295282760984382	2426937.398044303
0.829735658167463	2375748.822827037
0.8299430920820048	2509087.3838252258
0.8301505778550254	2549894.341252483
0.8303581154994891	2566726.531142781
0.8305657050283641	2602954.14710812
0.8307733464546212	2553699.701260573
0.8309810397912352	2650564.469624955
0.8311887850511829	2689859.2348575746
0.8313965822474458	2649351.6109053837
0.8316044313930077	2726169.432025215
0.8318123325008561	2746752.1786982818
0.8320202855839813	2748342.614356643
0.8322282906553774	2794542.336106181
0.8324363477280413	2786898.9003858655
0.8326444568149735	2876054.863339523
0.8328526179291771	2906487.813798302
0.8330608310836596	2887892.498623119
0.8332690962914304	2864856.3050922137
0.8334774135655034	2914914.4808095475
0.833685782918895	2945688.545352457
0.8338942043646247	3024482.339498835
0.834102677915716	2969337.610971455
0.834311203585195	3059621.9616064923
0.8345197813860912	3102707.2545959754
0.8347284113314379	3148966.2493821345
0.8349370934342709	3173333.3522087075
0.8351458277076294	3076050.2117778216
0.8353546141645565	3198067.1722683785
0.8355634528180977	3133796.406422976
0.8357723436813022	3173617.202984586
0.8359812867672226	3123485.9909188873
0.8361902820889144	3322448.833475454
0.8363993296594368	3134327.6456858064
0.8366084294918518	3342803.040894677
0.8368175815992247	3347749.5025121756
0.8370267859946247	3333684.236521982
0.8372360426911234	3457498.6739119226
0.8374453517017962	3499312.3587919893
0.8376547130397217	3419008.0933845034
0.8378641267179816	3407954.8389710626
0.8380735927496613	3564734.590036422
0.8382831111478488	3618028.512526472
0.8384926819256358	3650466.378937941
0.8387023050961173	3619096.437795015
0.8389119806723914	3630778.99425789
0.8391217086675596	3762645.8991965074
0.8393314890947265	3812705.975169485
0.8395413219670003	3810744.415634377
0.8397512072974922	3837860.450932716
0.8399611450993165	3801356.97559441
0.8401711353855914	3854393.5771074444
0.8403811781694378	3928528.3031604686
0.8405912734639802	3882887.8440137566
0.8408014212823464	3892205.5807774253
0.8410116216376671	3997015.9171936777
0.8412218745430766	4067713.9357650666
0.8414321800117124	4116876.0341257574
0.8416425380567154	4077630.801474024
0.8418529486912297	4139522.9636005117
0.8420634119284025	4024186.3940345393
0.8422739277813847	4192476.6119388044
0.8424844962633302	4231798.825411441
0.842695117387396	4324923.627809435
0.8429057911667428	4341568.7026545815
0.8431165176145345	4293504.767858343
0.8433272967439382	4390818.825397934
0.8435381285681244	4391037.798752603
0.8437490131002665	4412442.767131546
0.8439599503535415	4520047.800971406
0.84417094034113	4476564.213868216
0.8443819830762154	4447730.929622873
0.8445930785719846	4590969.979317584
0.8448042268416277	4635131.534365179
0.8450154278983382	4654754.864596063
0.8452266817553128	4675750.153671717
0.8454379884257517	4703057.756256807
0.8456493479228583	4608605.551419497
0.845860760259839	4817000.094518231
0.846072225449904	4900450.741220746
0.8462837435062666	4900235.638139252
0.8464953144421433	4791268.802961719
0.8467069382707537	4886450.607896249
0.8469186150053215	5011210.373196301
0.847130344659073	4975612.464937181
0.8473421272452377	5045828.737159708
0.8475539627770492	5058477.899871753
0.8477658512677435	5096382.226228524
0.8479777927305605	5174090.575689889
0.8481897871787432	5203835.297906217
0.848401834625538	5247630.693794438
0.8486139350841944	5258959.508678311
0.8488260885679657	5247040.409644886
0.8490382950901076	5271063.683619655
0.8492505546638802	5355981.885144495
0.8494628673025462	5292727.011577813
0.8496752330193721	5410604.253346411
0.8498876518276269	5361224.167743092
0.8501001237405839	5301129.375175129
0.8503126487715191	5317801.639147326
0.850525226933712	5293979.250066388
0.8507378582404455	5200309.158055577
0.8509505427050057	5012843.2065235805
0.8511632803406821	4803506.296401798
0.8513760711607672	4291130.278175923
0.8515889151785576	3497827.242748192
0.8518018124073523	2122838.1459780075
0.8520147628604541	532073.9806632458
0.8522277665511693	626621.7508527872
0.8524408234928071	2281996.5469716047
0.8526539336986805	3676736.521570126
0.8528670971821053	4548374.044769451
0.8530803139564007	5091252.918862225
0.8532935840348901	5412706.204512707
0.8535069074308987	5724559.609462107
0.8537202841577566	5897360.949597646
0.8539337142287962	6008236.57176676
0.8541471976573534	6101463.757817049
0.8543607344567677	6238345.474959578
0.8545743246403821	6348907.715072314
0.8547879682215422	6378841.0125057595
0.8550016652135977	6470630.32720024
0.8552154156299011	6507533.315187524
0.8554292194838088	6570251.515755648
0.8556430767886797	6593142.389743259
0.855856987557877	6721822.675266212
0.8560709518047664	6793618.521538436
0.8562849695427177	6858536.65251627
0.8564990407851035	6858122.108527192
0.8567131655452999	6949922.522033365
0.8569273438366862	7036050.0726260925
0.8571415756726455	7071833.948388827
0.8573558610665638	7080957.559460184
0.8575702000318304	7066250.383838746
0.8577845925818384	7180769.424442821
0.857999038729984	7289600.7307411805
0.8582135384896665	7326603.16338067
0.858428091874289	7341725.764737901
0.8586426988972576	7411930.631185165
0.8588573595719821	7436841.816192833
0.8590720739118751	7474679.977556929
0.8592868419303532	7541249.598521779
0.8595016636408359	7605938.30395105
0.8597165390567462	7666128.589845632
0.8599314681915105	7666907.334949652
0.8601464510585584	7691186.155606908
0.860361487671323	7773883.974599441
0.8605765780432408	7812333.38363584
0.8607917221877518	7833348.10005803
0.8610069201182988	7794516.033035973
0.8612221718483286	7111672.334179816
0.8614374773912907	5233855.119342729
0.8616528367606385	5932631.261167729
0.8618682499698288	5170818.418446054
0.8620837170323213	5127125.425762329
0.8622992379615795	5740626.24015652
0.8625148127710699	5723991.367958421
0.8627304414742627	5085873.161436137
0.8629461240846313	6717223.048520103
0.8631618606156526	5313366.691405378
0.8633776510808066	5100546.652455064
0.8635934954935769	5331940.415877535
0.8638093938674504	5623173.5719641885
0.8640253462159173	5909477.418048151
0.8642413525524714	5593160.886581191
0.8644574128906095	6252505.027092319
0.8646735272438323	6357362.4436936965
0.8648896956256433	5339339.074630952
0.8651059180495498	6620555.039052132
0.8653221945290621	6083816.334951266
0.8655385250776946	7708893.837667043
0.8657549097089641	6775408.975058425
0.8659713484363913	6734815.284400945
0.8661878412735006	6990306.119617963
0.866404388233819	7111062.567168968
0.8666209893308775	6539443.028976205
0.8668376445782103	8238244.333807493
0.8670543539893549	7162822.427471749
0.8672711175778525	7033506.338154374
0.8674879353572469	7082645.467081039
0.8677048073410862	7666421.398763977
0.8679217335429217	7989468.110585063
0.8681387139763074	7726200.780007797
0.8683557486548015	6823808.826814001
0.8685728375919655	6580879.095485282
0.8687899808013633	7952008.347087108
0.8690071782965637	8384029.514840927
0.869224430091138	8748782.100155309
0.8694417361986609	8264197.233584508
0.8696590966327107	6722051.951657958
0.869876511406869	7200960.784270735
0.8700939805347206	7908463.492357431
0.8703115040298544	8136835.749683058
0.870529081905862	7388430.424228337
0.8707467141763385	8091894.599745145
0.8709644008548827	7214767.259037188
0.8711821419550964	6993102.385188671
0.8713999374905854	7104399.299545098
0.871617787474958	8285053.988599821
0.8718356919218269	8038372.071668633
0.8720536508448075	7064667.854031865
0.8722716642575187	7658674.289531134
0.8724897321735832	7245544.8119416945
0.8727078546066265	8535951.514341895
0.8729260315702784	7493910.355449512
0.873144263078171	8187272.26998562
0.8733625491439405	8524267.18539061
0.8735808897812266	6960089.9995542085
0.8737992850036719	7927869.925243331
0.874017734824923	8204548.998671305
0.8742362392586293	8825370.247572288
0.874454798318444	8897725.83283645
0.8746734120180236	8938834.155594153
0.8748920803710283	9280219.58767353
0.875110803391121	8426929.434409056
0.8753295810919689	8037264.743949968
0.875548413487242	9536807.365387073
0.8757673005906139	9281355.509406747
0.8759862424157616	9686378.265211968
0.8762052389763657	9752916.806565326
0.8764242902861098	9048249.866178172
0.8766433963586814	9722675.871976146
0.8768625572077712	8358740.742036005
0.8770817728470732	7816979.125902291
0.8773010432902849	9793191.482596688
0.8775203685511077	9324857.053308815
0.8777397486432454	11055273.132385893
0.8779591835804065	10594297.421506299
0.8781786733763015	8997663.98121546
0.8783982180446457	9611577.343902458
0.878617817599157	10140928.934245216
0.8788374720535569	8562873.306922553
0.8790571814215703	9357570.383575225
0.8792769457169257	9742269.327711156
0.879496764953355	9707646.184279364
0.8797166391445934	11715423.355639473
0.8799365683043796	11438755.919393321
0.8801565524464557	9824760.251005357
0.8803765915845676	9092879.620372929
0.8805966857324639	10074607.87040307
0.880816834903897	9009746.06660708
0.881037039112623	10398843.715354066
0.8812572983724012	10273451.396417385
0.8814776126969944	10000209.626436755
0.8816979821001687	10775049.937791048
0.8819184065956938	12075370.828873219
0.8821388861973429	11214336.380775675
0.8823594209188923	9714535.489123166
0.882580010774122	9795503.009986546
0.8828006557768155	10045294.107665887
0.8830213559407598	9479092.830092514
0.8832421112797452	11990939.457834773
0.8834629218075651	9874458.427757844
0.8836837875380171	9653138.295671389
0.8839047084849018	11132731.806959128
0.884125684662023	12427191.758712681
0.8843467160831886	12555214.173222031
0.8845678027622095	12195656.863688193
0.8847889447129001	8957858.758419435
0.8850101419490785	10215913.022700887
0.8852313944845657	10914238.290312538
0.885452702333187	13491627.885795802
0.8856740655087704	12401037.908898583
0.8858954840251476	10052176.05878142
0.8861169578961539	10258958.436614731
0.886338487135628	13384979.307845779
0.886560071757412	13168030.86557416
0.8867817117753515	12695692.726388425
0.8870034072032955	11551600.447483841
0.8872251580550963	9051759.474657653
0.8874469643446101	10045225.776827
0.8876688260856963	10768280.652164703
0.8878907432922178	13054397.389129618
0.8881127159780409	13761105.917033195
0.8883347441570356	12853858.762302263
0.8885568278430749	9167161.093703933
0.8887789670500358	12281781.034345267
0.8890011617917983	13146157.752863895
0.8892234120822464	14517824.610672936
0.8894457179352669	13810598.370943349
0.8896680793647509	11203474.311833078
0.8898904963845921	9623246.075019583
0.8901129690086883	12347848.068837818
0.8903354972509405	14537683.099006504
0.8905580811252535	14333067.304413332
0.8907807206455347	13313365.408087922
0.8910034158256963	12307620.866398964
0.8912261666796527	10194681.482161576
0.8914489732213227	13019333.84810201
0.8916718354646282	14128379.982442005
0.8918947534234944	12127712.323344782
0.8921177271118502	10921434.89527467
0.8923407565436284	12571078.93292278
0.8925638417327644	9553623.694275115
0.8927869826931977	11878903.822067901
0.8930101794388711	11616115.082125597
0.8932334319837308	11444767.578651808
0.8934567403417267	11434306.916817147
0.8936801045268123	8984770.041397268
0.8939035245529441	6343029.253718483
0.8941270004340824	2958182.8355814265
0.894350532184191	632052.7450609902
0.8945741198172371	3266756.604614126
0.8947977633471915	6731847.881193686
0.8950214627880284	9666373.197706444
0.8952452181537254	10774823.435062839
0.8954690294582639	9277283.59804239
0.8956928967156286	11743343.824066723
0.8959168199398075	14015457.757041143
0.8961407991447926	15191181.848325187
0.8963648343445789	14956057.034375237
0.896588925553165	12400253.381465921
0.8968130727845534	11429494.930302469
0.8970372760527496	12595487.717882216
0.8972615353717629	14314261.756411262
0.8974858507556059	13794331.856794572
0.8977102222182949	15103894.274197534
0.8979346497738496	16844174.007112246
0.8981591334362931	15084811.533473043
0.8983836732196523	12345101.5192076
0.8986082691379572	15341112.164334457
0.8988329212052417	16416722.765909394
0.8990576294355432	15112350.295746442
0.8992823938429022	15692913.474934958
0.8995072144413631	16724606.171372399
0.8997320912449734	15224970.704589386
0.8999570242677847	15149376.197366033
0.9001820135238516	13429887.006729538
0.9004070590272328	16901795.88917499
0.9006321607919896	17973203.37537306
0.9008573188321878	18187436.204570986
0.9010825331618959	17005115.78963322
0.9013078037951865	15743506.013837263
0.9015331307461353	16454063.633691952
0.9017585140288219	16219607.385006167
0.9019839536573292	18761992.21946332
0.9022094496457435	20129709.398812283
0.9024350020081551	19108775.036838382
0.9026606107586572	19539966.92071417
0.902886275911347	15387451.407267489
0.9031119974803249	15927913.410438063
0.9033377754796951	17596168.226147648
0.903563609923565	19477315.08419264
0.903789500826046	21695560.078268375
0.9040154482012526	22040062.109411173
0.904241452063303	19613867.068733826
0.9044675124263188	17635255.144049656
0.9046936293044254	18875992.56111868
0.9049198027117517	18758623.24553283
0.9051460326624297	20902583.743151885
0.9053723191705955	22024684.546267062
0.9055986622503881	20325949.482443824
0.9058250619159507	21226786.166130662
0.9060515181814298	18413074.049581517
0.9062780310609752	19749797.911698297
0.9065046005687405	20122878.592333995
0.906731226718883	20247573.767465107
0.9069579095255627	22098294.21941089
0.907184649002944	20288393.33902539
0.907411445165195	20799079.68344639
0.9076382980264862	20178002.480785318
0.907865207600993	20884809.48809856
0.9080921739028933	20631718.34778092
0.9083191969463691	18440495.55194852
0.9085462767456058	21936756.449001998
0.9087734133147922	23265946.60205973
0.9090006066681211	21184359.519916434
0.909227856819788	21819820.49916058
0.9094551637839932	21235700.924169242
0.9096825275749393	22715486.049784567
0.9099099482068329	21280133.44088964
0.9101374256938848	21583189.938570213
0.9103649600503083	21554983.774923097
0.9105925512903209	25102671.506585196
0.9108201994281437	19735066.419660456
0.9110479044780008	19899388.288893208
0.9112756664541204	23168726.643789906
0.911503485370734	22668076.00295663
0.9117313612420768	24336375.068767436
0.9119592940823873	21235231.076868318
0.912187283905908	24280539.07108602
0.9124153307268845	25061856.194591664
0.9126434345595664	25339799.356472496
0.9128715954182063	22317026.3288013
0.9130998133170609	19988066.207727727
0.9133280882703902	21238134.657340094
0.913556420292458	24863723.712305095
0.9137848093975312	23176229.691107586
0.9140132555998806	22331771.174809836
0.9142417589137806	25136554.718957637
0.9144703193535092	22090875.466616083
