#wavelength	surface flux
0.676892	131902.59995159693
0.678297	139162.93526927187
0.679702	146054.11629041223
0.681109	152608.4150439058
0.682517	158733.12809349695
0.683926	164486.04343196042
0.685337	169733.89635695162
0.686749	174371.76887596087
0.688164	178335.52785798136
0.689581	181059.28566256596
0.691	182268.69340610987
0.692422	182462.92709837898
0.693847	183592.54178141957
0.695274	184669.7647050709
0.696705	184670.22764851048
0.698139	183605.4925678286
0.699576	181235.8131933688
0.701017	178300.05195766423
0.702461	174378.85524978282
0.70391	170581.8954580162
0.705362	165876.74074227907
0.706819	160665.8480031383
0.70828	155000.63495171003
0.709745	148529.58046956768
0.711216	141910.69129668592
0.71269	134989.74546100697
0.71417	128078.62197035569
0.715655	119707.81007360591
0.717145	110618.40077133753
0.71864	103424.88459472834
0.72014	97368.2720082885
0.721647	90967.2963342651
0.723158	84871.63609655129
0.724676	77834.87451430807
0.726199	71071.58919442227
0.727728	64331.910731913165
0.729264	59457.180667671615
0.730805	53764.76543932578
0.732353	49705.66416889147
0.733907	45004.1433335915
0.735468	40021.637495499956
0.737035	36356.19731655514
0.738609	32454.311422952167
0.74019	28959.47587761027
0.741777	25697.300587114216
0.743372	22758.718336472226
0.744973	20042.319029266808
0.746582	17562.574094075444
0.748197	15344.141833269043
0.74982	13413.38195360954
0.751451	11673.225985016397
0.753088	10129.911629695196
0.754734	8759.112400465603
0.756386	7529.425970784919
0.758047	6399.837872712555
0.759715	5345.7823295186
0.76139	4362.037158060035
0.763074	3402.219993008363
0.764765	2050.247163807232
0.766464	701.4425077503054
0.768172	1451.7243422172378
0.769887	1026.1677796008428
0.77161	2921.001323063141
0.773341	4786.7803454153745
0.775081	6402.629858352737
0.776829	8202.796494402564
0.778585	9445.634884716565
0.780349	9571.41098249007
0.782121	15098.325115072888
0.783902	18752.808253355724
0.785691	22698.310746472944
0.787489	27348.534650496065
0.789295	32731.45166750861
0.79111	38766.06074871472
0.792933	41634.87581862901
0.794764	30353.850310940295
0.796604	58091.118546083424
0.798453	74775.90088592096
0.80031	88409.78719788032
0.802176	103241.56092568465
0.804051	120082.5124231925
0.805934	138371.29123447227
0.807826	158893.53345394917
0.809727	181060.83282668737
0.811636	204474.26409852447
0.813554	227834.05089885485
0.81548	262202.6602652391
0.817416	298167.431390516
0.81936	331457.1262682818
0.821313	378834.6169169512
0.823274	418723.1600649776
0.825244	468560.04134897067
0.827223	525846.7237423001
0.829211	578323.6951658932
0.831208	632873.857550791
0.833213	706089.5449464825
0.835227	772858.5660355984
0.837249	840094.7147445066
0.83928	930053.4146903672
0.841321	1015491.1262292132
0.843369	1108668.735996117
0.845427	1199653.467400656
0.847493	1311945.331838795
0.849567	1373126.0948003572
0.851651	975895.7696870692
0.853742	1471582.8515711676
0.855843	1789874.9107179581
0.857952	1946416.8820975646
0.86007	2076070.5041335209
0.862196	2008156.7827241675
0.864331	2190001.459276855
0.866474	2395984.6154454155
0.868626	2572687.0508616897
0.870786	2688193.7420050832
0.872955	2850520.340954627
0.875132	2966293.4557340387
0.877317	3332875.052794458
0.879511	3529168.8887750674
0.881713	3517097.7289737775
0.883923	3654670.476289844
0.886142	3808738.4742990024
0.888369	3783327.10607148
0.890604	4088381.824582337
0.892847	3420754.7765836804
0.895099	2940384.870605207
0.897358	4527533.032532075
0.899626	5121985.756031913
0.901901	5770431.795472807
0.904185	6375644.590239005
0.906476	6647855.79885151
0.908776	6493857.422556585
0.911083	7017258.261913696
0.913398	7097271.069692394
0.915721	7647134.204215931
0.918051	7766717.223676642
0.92039	8467960.581731027
0.922736	8716210.175071426
0.925089	8236260.195476756
0.927451	6272138.163808154
0.929819	4742268.723039662
0.932195	4323062.01218801
0.934579	4914023.382109981
0.93697	7795156.665290004
0.939369	8869839.284607843
0.941774	8989202.007723156
0.944187	7565556.9291911
0.946607	8804378.055944994
0.949035	8945172.15182675
0.951469	7813009.571839757
0.953911	8370962.010408887
0.956359	7258064.318298559
0.958814	9592309.026807623
0.961277	7461763.894316953
0.963746	7930165.351570455
0.966222	10114154.04281924
0.968705	11627262.149124844
0.971194	12524389.312493853
0.97369	11757084.087181296
0.976193	13796625.204301575
0.978702	14024095.470447268
0.981217	14458234.248536421
0.983739	14015909.557398153
0.986268	15713192.177037908
0.988802	16148291.618352901
0.991343	16406481.458714165
0.99389	17524730.46980155
0.996444	17754638.47407435
0.999003	16076598.353199828
1.00157	16757378.659405489
1.00414	18266255.615717757
1.00672	19007544.1209349
1.0093	19854155.755062606
1.01189	20690034.679896202
1.01448	21817426.341595713
1.01708	22437355.15042088
1.01969	23546369.312807053
1.0223	24230033.396941334
1.02492	24814150.108085357
1.02754	25072358.179883946
1.03017	25981646.221560873
1.0328	26466836.088703595
1.03544	27252397.874274377
1.03808	28728272.343359396
1.04073	29036820.872201685
1.04339	29647435.175609827
1.04604	30116425.64450152
1.04871	30598925.02097047
1.05138	31330836.928993113
1.05405	32338799.080858417
1.05673	32609212.141781695
1.05941	33397395.80323197
1.0621	33602031.80666773
1.06479	34218046.4676135
1.06749	34649768.871658735
1.07019	35188428.229487084
1.07289	35345888.083165586
1.0756	35787696.28285757
1.07832	35918959.79119769
1.08104	36232665.70098436
1.08376	36819030.01817462
1.08649	35080434.03890777
1.08922	32804874.22470011
1.09195	30427926.4457818
1.09469	27223220.564795934
1.09743	23804192.725930158
1.10018	20035270.62964974
1.10293	16273349.89453314
1.10568	12424827.916132659
1.10844	12895175.801084649
1.1112	9656338.051247
1.11396	8075126.219265435
1.11673	7214392.200644476
1.1195	9501216.69171169
1.12228	8037658.418646494
1.12505	10801001.241955439
1.12783	12269781.295647793
1.13062	11503981.455369327
1.13341	5110794.446998785
1.1362	7166099.557756073
1.13899	12755546.173786785
1.14178	14549263.567228943
1.14458	10383668.231626272
1.14738	10711216.391763715
1.15019	15333126.601108856
1.153	11735734.124126624
1.1558	10452144.099759813
1.15862	13333421.810411675
1.16143	9443329.671450322
1.16425	9228148.089362342
1.16707	9596387.988750096
1.16989	11982424.613370083
1.17271	15402117.134837948
1.17554	13786221.877625693
1.17837	12595176.083274491
1.1812	20626131.579188183
1.18403	21451301.083002444
1.18686	22265915.472088996
1.1897	24680109.49197039
1.19253	26751943.40015505
1.19537	29217038.369977724
1.19822	30856960.012143936
1.20106	32662996.320880663
1.2039	33896461.981623635
1.20675	36419868.62684673
1.2096	37373312.69920267
1.21245	38005947.575860165
1.2153	40019005.51717343
1.21815	40600751.04768716
1.221	42238968.30981719
1.22385	43398502.58544075
1.22671	44534641.70465351
1.22957	46310973.63036494
1.23242	46675115.810123764
1.23528	46807991.95722979
1.23814	46862973.07556726
1.241	44630271.5773336
1.24387	41458182.4713239
1.24673	46399742.718057424
1.24959	42630268.52437123
1.25245	35211670.11533774
1.25532	45559443.49027176
1.25818	50389433.78595713
1.26105	52454664.127997056
1.26392	51964579.44823584
1.26678	53031685.55168763
1.26965	52498874.97410066
1.27252	53426026.555611946
1.27538	53782359.265080296
1.27825	53440590.523713075
1.28112	52376560.60385445
1.28399	47381534.180831224
1.28686	47475793.41945625
1.28973	47182599.84974925
1.2926	45907751.27704989
1.29546	42278362.83121255
1.29833	40999097.071472555
1.3012	43150151.23088653
1.30407	44323508.05258527
1.30694	40229387.33591089
1.30981	42342177.63979607
1.31267	40691313.603648044
1.31554	36682340.66705169
1.31841	34386301.32578888
1.32128	37904261.423673816
1.32414	29535160.337782476
1.32701	23349952.084481463
1.32987	16472001.209314497
1.33274	9450514.950964434
1.3356	7268037.536974195
1.33847	1980202.0898079416
1.34133	1360347.4156772916
1.34419	1668105.0105992435
1.34705	1294469.9623058452
1.34991	1413828.0763643335
1.35277	1556005.2997643661
1.35563	627565.025592932
1.35849	609465.7814707162
1.36135	837418.2873015015
1.3642	1516870.6879949744
1.36706	1632813.5005021498
1.36991	1613583.4132714574
1.37277	1683891.3994911925
1.37562	1998917.0541412511
1.37847	1913268.3728448846
1.38132	1241029.3781654327
1.38417	701945.521556484
1.38701	405758.77900449274
1.38986	1271288.2496609385
1.39271	1464356.5263476805
1.39555	837208.5412310311
1.39839	1345771.5945649624
1.40123	1671234.6850514065
1.40407	1710739.4274014318
1.40691	1437754.122692245
1.40974	1054678.0833273653
1.41258	1531835.91613932
1.41541	1862385.4184431243
1.41824	1033664.3103771297
1.42107	828702.3062871654
1.4239	819219.4482707318
1.42673	1843145.9416346292
1.42955	2614123.9821486566
1.43237	1896165.1204188073
1.43519	2759810.873603441
1.43801	3057576.1183243576
1.44083	2896188.6750372467
1.44365	3523978.4078213605
1.44646	3120345.3315536804
1.44927	4286810.685693968
1.45208	5972740.768525062
1.45489	4158071.5513453633
1.45769	6598213.083615507
1.4605	6806911.0892341975
1.4633	4383966.38880922
1.4661	7072409.980941107
1.4689	6478728.930368746
1.47169	7066128.0605526855
1.47449	6615396.211876157
1.47728	6384488.496208066
1.48007	6446977.690215753
1.48286	7404637.926723633
1.48564	7258862.177006323
1.48842	7400928.270218542
1.4912	8390223.052496143
1.49398	8360521.588977175
1.49676	9539428.592310334
1.49953	11017645.456368538
1.5023	11804143.137135865
1.50507	13446664.216184761
1.50784	12743267.455405707
1.51061	14029717.869839426
1.51337	14040223.262731992
1.51613	13344390.457632149
1.51888	13487786.125490535
1.52164	15478298.773223385
1.52439	17064234.749307644
1.52714	16430000.580755303
1.52989	17886521.584679022
1.53263	19782908.45924103
1.53538	21784035.821958262
1.53812	21951324.558336087
1.54086	20256384.46844656
1.54359	20601422.766454697
1.54632	23453755.034494016
1.54905	23265459.564792924
1.55178	22917372.864620302
1.5545	24756588.130848918
1.55723	25535870.44542296
1.55995	27238340.55347653
1.56266	27070055.73441434
1.56538	29306209.678117402
1.56809	31730541.37784844
1.5708	31377897.856780004
1.57351	31032399.939147327
1.57621	31915981.418732684
1.57891	31887679.97624586
1.58161	32582037.793233093
1.5843	32543568.570364535
1.587	32400198.927758157
1.58969	31480100.435075503
1.59238	30273707.921266463
1.59506	31148658.652168605
1.59774	31575845.255737122
1.60042	30225056.036096077
1.6031	28589856.777315706
1.60577	26733155.48209572
1.60844	25396005.85235583
1.61111	25510705.36515837
1.61378	24108260.56634378
1.61644	22092184.844179142
1.6191	20205695.45328327
1.62176	21178785.534620002
1.62441	20684230.930116706
1.62707	20713563.994490854
1.62971	18888696.24027095
1.63236	20063439.873252556
1.635	21439176.851323653
1.63764	23249159.67997239
1.64028	21100186.354554944
1.64292	22106354.33399122
1.64555	19325112.008872088
1.64818	20485235.737237137
1.65081	23020027.797303747
1.65343	21616254.34253564
1.65605	18921046.01302118
1.65867	20661035.564711217
1.66128	24597442.21135344
1.6639	19902499.983006068
1.66651	6749015.130121468
1.66911	4893815.161876306
1.67172	12307476.943133341
1.67432	17949143.644524164
1.67692	19985447.139687087
1.67951	19238663.757641677
1.68211	16290534.305703914
1.6847	13082688.745070046
1.68728	13816155.19638066
1.68987	13807562.534828894
1.69245	11434897.020746615
1.69503	10840309.81829371
1.6976	10515285.594123071
1.70018	10585807.452793766
1.70275	9208497.14945176
1.70531	8885216.6473056
1.70788	11227916.948042754
1.71044	12871210.939679287
1.713	14087139.52411106
1.71556	14811668.595244296
1.71811	15143290.771183701
1.72066	14062899.77926748
1.72321	11137716.400563052
1.72575	12785682.491309376
1.7283	14137330.433351453
1.73084	13528946.197639106
1.73337	11803277.590417996
1.73591	11365110.266211076
1.73844	12046700.966289032
1.74097	11698614.108305521
1.74349	11231381.723217616
1.74602	11293591.005955718
1.74854	12825664.940161863
1.75105	12477205.764291354
1.75357	9416064.035559958
1.75608	6807481.676260107
1.75859	7630411.682811627
1.7611	7618912.872126326
1.7636	7324651.383269945
1.7661	6813281.388070445
1.7686	5741030.014743838
1.7711	6192288.922282336
1.77359	6008636.111023069
1.77608	4396924.146397121
1.77857	4492227.944995795
1.78105	5056164.098940903
1.78354	3953419.870705972
1.78602	3248659.8246250064
1.78849	4066401.485261863
1.79097	3656500.784561872
1.79344	3162386.6315509276
1.79591	3734657.6323483866
1.79837	4725220.364694387
1.80084	3210101.8490137565
1.8033	2821545.1911001406
1.80576	3011990.1818499314
1.80821	2953902.643064124
1.81067	2966141.2269293023
1.81312	3581150.2517572837
1.81557	3818957.7066314616
1.81801	2886821.7491690535
1.82046	2492904.98784902
1.8229	3110689.76367997
1.82533	2982587.5038831057
1.82777	2215613.28676212
1.8302	2227375.8565376387
1.83263	2448487.1719906377
1.83506	2382769.6719484194
1.83749	2292161.7981651
1.83991	2423746.4719795105
1.84233	2866152.9512891886
1.84475	3683583.2820011987
1.84716	3142380.0570252677
1.84957	3484197.6995772445
1.85198	4259754.517034305
1.85439	3209159.740697211
1.8568	2117403.3446250595
1.8592	1684329.6734782802
1.8616	1781773.1624803895
1.864	1795109.9448912523
1.86639	1483483.915782169
1.86878	1209809.2122025867
1.87118	1658587.323367544
1.87356	2052336.423263744
1.87595	2537057.1045230217
1.87833	4130940.3215107736
1.88071	5099599.109955077
1.88309	4422985.2854067255
1.88547	3953307.9219994172
1.88784	4548364.768233211
1.89021	4658507.104336645
1.89258	5212900.663394125
1.89494	6059029.911874593
1.89731	5184347.613605775
1.89967	3764095.02154298
1.90203	3840256.3669522656
1.90439	3750202.199451245
1.90674	4613438.8904949175
1.90909	4969809.438242398
1.91144	2996987.5659612203
1.91379	2532408.1830864307
1.91613	4008404.847092051
1.91848	4529362.291856572
1.92082	3401499.4951750184
1.92315	2898070.603413562
1.92549	3189290.761119994
1.92782	3276363.641882068
1.93015	2756833.9273396395
1.93248	2361702.882117857
1.93481	2354962.33476041
1.93713	1977699.694100731
1.93945	1686271.590273331
1.94177	2783296.3699111217
1.94409	3358875.149948924
1.94641	2921486.27886203
1.94872	2924197.91035683
1.95103	3734846.463059801
1.95334	3693337.01565929
1.95564	2805135.858810232
1.95795	2697605.11861077
1.96025	2566102.795861104
1.96255	2462239.32910085
1.96484	3400989.9128647484
1.96714	4282410.924163987
1.96943	4294250.051599548
1.97172	4435218.411191401
1.97401	4461223.1767407805
1.97629	4542461.813551701
1.97858	4765140.031340638
1.98086	4064381.4831947796
1.98314	3579225.7171778902
1.98541	4636382.487075391
1.98769	5630163.791758406
1.98996	4933738.660492722
1.99223	4515579.611704727
1.9945	5576049.94111262
1.99677	6270266.3728411775
1.99903	5973024.904136045
2.00129	5807410.172114724
2.00355	5944607.618233329
2.00581	6394954.556246554
2.00806	6475315.760123965
2.01031	6812599.8789017415
2.01256	8103806.380644837
2.01481	8451510.95111552
2.01706	7610525.654403773
2.0193	7638367.803086261
2.02154	8726115.355816208
2.02378	9259220.329593822
2.02602	8575905.082874091
2.02825	7875116.399658831
2.03049	8140247.5033096885
2.03272	9096091.164615765
2.03494	9748553.361857314
2.03717	9768180.611247392
2.03939	9692495.153872343
2.04162	10390707.409819216
2.04384	11119955.927371003
2.04605	11400547.608812656
2.04827	11145775.091184497
2.05048	10933204.511033798
2.05269	10905081.302936109
2.0549	10748697.394775994
2.05711	11167700.440972844
2.05931	11509136.959458224
2.06151	11600903.954349546
2.06371	11846976.164394658
2.06591	11926643.753704775
2.06811	12021689.524682198
2.0703	12368224.511074556
2.07249	12673622.097771412
2.07468	12629840.23759838
2.07686	12603525.389751915
2.07905	12762427.036302485
2.08123	12795882.360088041
2.08341	12803707.456226043
2.08559	12815219.942579547
2.08776	12847448.857722037
2.08994	12903010.413018506
2.09211	12801365.80471971
2.09428	12761016.669662958
2.09645	12861505.399419842
2.09861	12750240.649558868
2.10077	12455356.006145779
2.10293	12385406.887427779
2.10509	12588171.431172647
2.10725	12643357.978898693
2.1094	12304226.799880592
2.11155	11782767.143022317
2.1137	11643764.57691595
2.11585	11776065.69560384
2.11799	11893492.891703984
2.12013	12045339.894376907
2.12227	12037845.76263619
2.12441	12021614.976208644
2.12655	11979170.305088053
2.12868	11765505.644188311
2.13081	11604186.769373545
2.13294	11474248.058837827
2.13507	11092921.453523511
2.13719	10867296.554531017
2.13931	11127790.872261714
2.14143	11252257.92834826
2.14355	10880812.29906563
2.14567	10302663.31398467
2.14778	9725936.576826248
2.14989	9426226.760764284
2.152	9416321.218870027
2.1541	9303113.18614877
2.15621	9140744.117555933
2.15831	8855676.457160853
2.16041	8196874.432904408
2.16251	7880232.475157321
2.1646	8108452.86092574
2.1667	8389172.891639369
2.16879	8669484.744211655
2.17087	8869251.931045232
2.17296	8714708.786843179
2.17504	8515219.570055464
2.17713	8469881.381246356
2.1792	8097203.6262401445
2.18128	7198966.81701084
2.18336	6428747.626888674
2.18543	6508475.37563966
2.1875	6757856.188806185
2.18957	6474310.37255268
2.19163	6088400.968328539
2.1937	5770284.080755113
2.19576	5174474.038408372
2.19782	4142808.04070686
2.19987	3018729.3964784527
2.20193	2417665.9581002723
2.20398	2308044.55067178
2.20603	2362060.2598070153
2.20808	2535200.442983932
2.21012	2698285.669627605
2.21217	2742347.386386158
2.21421	2983182.1765433378
2.21625	3374480.5365837575
2.21828	3605487.748556164
2.22032	3706059.4568178477
2.22235	3765071.832076949
2.22438	3670627.070554048
2.22641	3184036.1304434915
2.22843	2734375.5455901003
2.23046	2513777.6492301845
2.23248	2330155.2243010616
2.2345	2122917.745843732
2.23651	1927193.4822741621
2.23853	1893425.3169537527
2.24054	2067796.2960571782
2.24255	2326911.4436671864
2.24456	2516880.586885199
2.24657	2529164.6009079404
2.24857	2407058.379688415
2.25057	2216767.497219504
2.25257	1946819.1758295174
2.25457	1653332.4568157461
2.25656	1566867.3779516723
2.25856	1713658.6374221267
2.26055	1791403.6039883045
2.26254	1628271.905851059
2.26453	1471817.0104248156
2.26651	1536290.4031821382
2.2685	1665130.4456286523
2.27048	1736430.8780007428
2.27246	1886005.6413750125
2.27443	1927524.088024513
2.27641	1907612.6858843537
2.27838	1993935.100935955
2.28036	1994867.8155098774
2.28233	1815602.3703711955
2.28429	1627140.2842471104
2.28626	1448800.0882208587
2.28823	1296412.1470161197
2.29019	1226318.9803534788
2.29215	1179047.9327873497
2.29411	1177226.6116875438
2.29607	1257429.27756428
2.29802	1439264.733801529
2.29998	1671611.2906459838
2.30193	1967669.2792308237
2.30388	2232013.5756476237
2.30583	2375559.213523994
2.30778	2522475.896211901
2.30972	2858254.210803068
2.31167	3186988.656114931
2.31361	2884972.9445531173
2.31555	2012855.2978921072
2.31749	1251612.317581091
2.31943	1033477.1320688018
2.32137	1011800.3560073583
2.32331	949718.6086818828
2.32524	847788.6420226247
2.32718	718877.7726873866
2.32911	650874.9497709449
2.33104	695930.6144515026
2.33297	819217.0856832088
2.3349	969134.5886626361
2.33683	1151683.328389012
2.33876	1305300.975085231
2.34068	1392440.8006875496
2.34261	1447374.421114048
2.34453	1496213.3876175133
2.34646	1538515.044917949
2.34838	1543954.080497195
2.3503	1473655.267482729
2.35223	1469911.6964113594
2.35415	1448832.619268459
2.35607	1343256.471371175
2.35799	1468286.3979306177
2.35991	1776926.2056412532
2.36183	2032848.4869510783
2.36375	2217984.4877448864
2.36566	2409144.5511666476
2.36758	2240177.098212139
2.3695	1775597.7137019197
2.37142	1405413.6083772103
2.37334	1326456.034200462
2.37526	1312172.1739680776
2.37718	1271877.9269658772
2.3791	1286310.3284465151
2.38101	1325388.7016764474
2.38293	1350940.2427763816
2.38485	1391278.00195369
2.38677	1605255.7573961192
2.3887	1911602.5067651586
2.39062	2079454.600633857
2.39254	2108061.9414466484
2.39446	2169038.041846711
2.39639	2212938.0618623397
2.39831	2132173.6650387133
2.40024	2164817.1566763315
2.40216	2304630.1546211075
2.40409	2446416.335471756
2.40602	2311127.8614528053
2.40795	2153132.4815049376
2.40989	2363026.303385867
2.41182	2831363.9667964336
2.41376	2989494.8583735027
2.4157	2887157.86244867
2.41764	2767801.671642381
2.41958	2794895.9858073923
2.42152	2823320.5509542124
