#wavelength	surface flux
0.676892	711760.3552966769
0.678297	756904.9870477546
0.679702	799331.0417812704
0.681109	838988.9811151543
0.682517	873882.4777673292
0.683926	908929.9731586231
0.685337	938798.2146492033
0.686749	965124.1912510297
0.688164	988450.6399802392
0.689581	1005673.8908532462
0.691	996980.3538028385
0.692422	1013017.498153864
0.693847	993865.4887043824
0.695274	1034023.1049499795
0.696705	1040143.7090102752
0.698139	1039598.882552404
0.699576	1032099.2193434439
0.701017	1018604.7803899874
0.702461	1004425.1262451878
0.70391	987585.4608374621
0.705362	958938.6753598204
0.706819	932139.9750014419
0.70828	906373.0973013219
0.709745	870296.1755299008
0.711216	838663.0602326543
0.71269	803412.2928726847
0.71417	767140.6149574111
0.715655	719046.1149264039
0.717145	671245.4679062322
0.71864	628348.9939670172
0.72014	598125.6996114615
0.721647	563886.3827229155
0.723158	537114.321668543
0.724676	495830.36791822984
0.726199	454672.5627304713
0.727728	405488.8293721661
0.729264	385841.9733897903
0.730805	349373.3292514203
0.732353	326293.47345419734
0.733907	294753.8514702108
0.735468	257569.08504976652
0.737035	237742.87457457284
0.738609	211601.9608609866
0.74019	187125.064850003
0.741777	163716.9216708024
0.743372	142284.00604557546
0.744973	121867.57574737768
0.746582	102870.05377871575
0.748197	85515.05768451966
0.74982	70531.91979676233
0.751451	56815.400025271905
0.753088	44867.66207852443
0.754734	34627.46123013147
0.756386	26024.186204734997
0.758047	18994.09166201427
0.759715	13434.962451529189
0.76139	9157.354026113486
0.763074	5866.326498790315
0.764765	2992.4735790977693
0.766464	917.7202626328626
0.768172	1980.6282219716659
0.769887	1375.4728436184269
0.77161	4515.65913153685
0.773341	9031.467061501262
0.775081	14621.160596462267
0.776829	22103.965678810684
0.778585	28206.491849068516
0.780349	30238.406685979648
0.782121	59602.66185234534
0.783902	81996.31055765146
0.785691	107101.38358683852
0.787489	137044.21322942615
0.789295	171539.50407232024
0.79111	209414.0881939198
0.792933	225918.32817907687
0.794764	150743.66606723136
0.796604	325039.76202912536
0.798453	426323.82076760475
0.80031	506444.5484623619
0.802176	590215.6423007122
0.804051	684050.7761383047
0.805934	783103.4907895081
0.807826	891460.5329881164
0.809727	1005615.4906975116
0.811636	1125161.9590945567
0.813554	1243501.6696662845
0.81548	1405664.2864069692
0.817416	1545233.7977941516
0.81936	1526089.0261489255
0.821313	1931652.0061242597
0.823274	2164283.2076649116
0.825244	2358021.9606784424
0.827223	2633149.4444835465
0.829211	2833946.684113911
0.831208	3056368.613679828
0.833213	3443551.2835085383
0.835227	3704276.074746508
0.837249	3879610.297240979
0.83928	4332306.7964086775
0.841321	4743772.248573441
0.843369	5106019.40436284
0.845427	5431545.308959073
0.847493	5938872.208050196
0.849567	5963341.362566303
0.851651	4041588.8836373677
0.853742	6345069.868881135
0.855843	7757995.836165203
0.857952	8360248.878930538
0.86007	8652989.460587328
0.862196	6114557.167088575
0.864331	6645935.942716991
0.866474	7609141.85548293
0.868626	7898977.3945115395
0.870786	7631281.514806794
0.872955	8023200.222901946
0.875132	7404486.113470087
0.877317	10777536.939898528
0.879511	11345141.073578998
0.881713	10525728.829463704
0.883923	11555111.715068541
0.886142	12926061.447626283
0.888369	12141453.2183759
0.890604	14229250.594667774
0.892847	11415014.311645878
0.895099	9958405.328934124
0.897358	15233878.958004436
0.899626	17637108.780423515
0.901901	19768097.831108015
0.904185	23089430.83048301
0.906476	21512674.80904289
0.908776	19171188.1016142
0.911083	21738087.890532278
0.913398	23394255.435507566
0.915721	26918678.798191767
0.918051	27890501.903462794
0.92039	31595199.994931936
0.922736	30727854.696258906
0.925089	28863258.604549993
0.927451	23846612.74788907
0.929819	17756114.351131734
0.932195	14877679.401450424
0.934579	15487751.043359095
0.93697	28460432.212780684
0.939369	31312404.952839296
0.941774	29593279.780180886
0.944187	25751246.080157768
0.946607	33127687.863577284
0.949035	34941043.50461823
0.951469	25785789.24782482
0.953911	29308133.275950406
0.956359	24539514.700770877
0.958814	33420526.506078012
0.961277	25160060.90838288
0.963746	23486852.64421836
0.966222	33531086.73762216
0.968705	36696355.35133834
0.971194	41189252.30717458
0.97369	38205829.4171545
0.976193	47369900.949103765
0.978702	45236244.039596125
0.981217	48571841.70778332
0.983739	42289148.05372239
0.986268	51261321.46773709
0.988802	53085409.858564824
0.991343	42042426.56274655
0.99389	48738005.35443222
0.996444	49668017.78533344
0.999003	30778090.60657446
1.00157	30239313.9212087
1.00414	34726691.72769864
1.00672	35911126.70360832
1.0093	36461645.67963091
1.01189	38550059.11990413
1.01448	47805247.44770334
1.01708	48543180.98364732
1.01969	58350870.38458825
1.0223	59220407.12033626
1.02492	59334384.28534998
1.02754	57918513.1315159
1.03017	70113413.43466741
1.0328	70828301.69347142
1.03544	71257387.57521744
1.03808	85709827.1618443
1.04073	84252528.1621915
1.04339	84382134.54270695
1.04604	79748622.1211144
1.04871	79678961.52976756
1.05138	81571837.45213015
1.05405	88456997.33299302
1.05673	84074042.27169017
1.05941	95266759.83312437
1.0621	91790765.43940274
1.06479	99071727.52438697
1.06749	102384620.53907916
1.07019	113148211.7665373
1.07289	109329336.84449242
1.0756	114035697.77567372
1.07832	116678656.36641407
1.08104	116349272.55708918
1.08376	121677245.8442892
1.08649	109738193.34500335
1.08922	98593831.14671
1.09195	87557430.7353792
1.09469	83437042.40112908
1.09743	64843592.08647989
1.10018	60444885.853082575
1.10293	49671050.261320606
1.10568	37477985.232745275
1.10844	46236649.23170841
1.1112	37965628.42685142
1.11396	32207122.526740327
1.11673	24381001.360505223
1.1195	35697363.26919209
1.12228	28862455.434160218
1.12505	34750138.97162516
1.12783	46254290.01712857
1.13062	40851312.24481633
1.13341	17530539.9948574
1.1362	22834089.173482504
1.13899	26998967.79289856
1.14178	41537605.55343584
1.14458	34806688.47648681
1.14738	36686798.17053021
1.15019	55882002.343305275
1.153	42416917.89290235
1.1558	33253949.55758564
1.15862	49818375.066692166
1.16143	31807411.766445383
1.16425	22414089.328211345
1.16707	26620770.155641895
1.16989	28578722.948667597
1.17271	42748337.23893307
1.17554	34056750.899822876
1.17837	23914354.08456345
1.1812	50711311.246640354
1.18403	54630702.77680532
1.18686	52674362.18303531
1.1897	59472928.98184114
1.19253	66149682.13734612
1.19537	74244652.0276986
1.19822	72013391.52292362
1.20106	77860798.64212376
1.2039	82737260.38842846
1.20675	91733528.30246872
1.2096	103553421.39567417
1.21245	108835920.19742122
1.2153	112396380.55504954
1.21815	113294604.3773217
1.221	119803323.95925088
1.22385	128668245.83448783
1.22671	133153079.32852843
1.22957	139234585.9814875
1.23242	143974587.11143443
1.23528	136028510.18621126
1.23814	139862828.9519267
1.241	129574133.36857127
1.24387	105218335.0470938
1.24673	144322733.1694322
1.24959	123108251.97000961
1.25245	77483678.76579612
1.25532	137675518.41368723
1.25818	159899757.82699454
1.26105	173189467.40944666
1.26392	149170690.24750733
1.26678	166169507.3328199
1.26965	151082672.67578414
1.27252	172178077.82934803
1.27538	176304254.4201077
1.27825	168300868.61112955
1.28112	172080570.1834695
1.28399	139970557.40679583
1.28686	148115143.01014692
1.28973	142729118.09517118
1.2926	148620825.34204546
1.29546	128630983.90422955
1.29833	116287948.85710634
1.3012	142615696.7023812
1.30407	147347942.42728218
1.30694	120643568.53234744
1.30981	129881922.98178303
1.31267	134035487.1444624
1.31554	110901732.14337878
1.31841	102107083.14681052
1.32128	115702790.50160177
1.32414	81987492.85422158
1.32701	51835769.098200664
1.32987	41715853.75083574
1.33274	26438287.961733017
1.3356	19009369.808195915
1.33847	5804490.339138175
1.34133	4983295.985542563
1.34419	6257998.816378948
1.34705	5150571.434385886
1.34991	6777137.907120394
1.35277	7928248.389901104
1.35563	3205585.427595718
1.35849	3454160.438843276
1.36135	4721423.051623632
1.3642	6854683.968631364
1.36706	6374318.2696011765
1.36991	5679508.019275129
1.37277	6362741.803461626
1.37562	4400410.128132419
1.37847	3390736.305722594
1.38132	5727395.8390549235
1.38417	2951706.5949994987
1.38701	945958.7853180881
1.38986	4271119.379591622
1.39271	5435802.438008512
1.39555	3706188.1304416275
1.39839	6019946.387872186
1.40123	8274277.637191753
1.40407	7538961.423550343
1.40691	5280572.406832971
1.40974	3824638.939744563
1.41258	6201163.372375055
1.41541	6334191.4658991955
1.41824	2924120.706221103
1.42107	1902269.3395268547
1.4239	2084722.6550257741
1.42673	6511039.110642658
1.42955	8508852.387777194
1.43237	5483010.4790642895
1.43519	8577281.656863559
1.43801	9838111.848635914
1.44083	8065276.76233292
1.44365	9253584.1082232
1.44646	8202964.941815638
1.44927	10497740.061749393
1.45208	14858331.185663957
1.45489	11909340.980170017
1.45769	18104247.187455334
1.4605	16185693.863083
1.4633	9575919.604518507
1.4661	14976487.434194399
1.4689	14689706.251205059
1.47169	13996862.076659864
1.47449	14418349.124305837
1.47728	15010584.487825012
1.48007	15300321.291698523
1.48286	17204787.833401218
1.48564	15912894.343077416
1.48842	17027336.086299807
1.4912	20468544.221572984
1.49398	16182033.63835874
1.49676	21374578.84973047
1.49953	22890948.772686955
1.5023	30630415.678386264
1.50507	35610975.14875049
1.50784	29083477.560265347
1.51061	32518721.08596915
1.51337	35818647.10658009
1.51613	27827038.372637592
1.51888	24035650.26603865
1.52164	29291801.6644458
1.52439	37587307.85333121
1.52714	30830061.062237002
1.52989	33106734.965112887
1.53263	40312903.023345776
1.53538	47222724.168118514
1.53812	42144517.319139406
1.54086	37755822.79508746
1.54359	32918670.453765836
1.54632	43998766.448500454
1.54905	47098774.7614985
1.55178	47236794.51349428
1.5545	46339655.96826919
1.55723	49193273.00446427
1.55995	54947762.93567171
1.56266	53038767.30873416
1.56538	59458486.11185027
1.56809	69291207.80353843
1.5708	65762237.49565403
1.57351	67948502.64550903
1.57621	66890939.8858069
1.57891	65334587.95694334
1.58161	71829881.11235708
1.5843	71470044.95884846
1.587	72967135.09372357
1.58969	69606778.58670051
1.59238	64167638.907334924
1.59506	71847768.21346027
1.59774	75469630.07970046
1.60042	69862687.86724308
1.6031	66110949.766333364
1.60577	62059250.592920355
1.60844	57302143.587242685
1.61111	63349971.96396152
1.61378	62069049.281268634
1.61644	58006563.632519744
1.6191	53881518.71121389
1.62176	59362219.89584946
1.62441	59580437.989570305
1.62707	62190587.00249481
1.62971	58574388.54075215
1.63236	62839500.22218596
1.635	70857663.63717808
1.63764	74828948.09000854
1.64028	57325256.61906147
1.64292	58498888.46541993
1.64555	52913560.618144
1.64818	55933349.55006628
1.65081	66271692.516934834
1.65343	64074008.09457667
1.65605	54993678.793041214
1.65867	54399728.825629726
1.66128	67786105.54125479
1.6639	57230768.98786665
1.66651	21242309.370439388
1.66911	11825780.403629344
1.67172	28964931.361104473
1.67432	44107089.94179824
1.67692	53069441.373882495
1.67951	49472492.40790462
1.68211	43805211.43748588
1.6847	33097538.84232666
1.68728	34295083.34790717
1.68987	33463254.490192164
1.69245	28517486.65213874
1.69503	26858931.686067723
1.6976	27528377.487612553
1.70018	29255318.380661804
1.70275	22834029.23309177
1.70531	20803734.97998906
1.70788	27798287.916708566
1.71044	33663356.3373414
1.713	37928107.18615953
1.71556	39999644.63413924
1.71811	41298795.067087434
1.72066	33729677.41687377
1.72321	21305620.63710065
1.72575	26902392.571274534
1.7283	35013992.909713104
1.73084	34618679.21146112
1.73337	25299206.91874222
1.73591	23426825.242580052
1.73844	26347388.993408993
1.74097	23837047.64725062
1.74349	22345668.05574044
1.74602	25666434.133529317
1.74854	32241444.569269504
1.75105	31907142.269270763
1.75357	23678133.230211653
1.75608	16790297.78947914
1.75859	16260505.670803498
1.7611	16069015.025301348
1.7636	18143729.487817496
1.7661	17100659.950266365
1.7686	15019669.834869567
1.7711	17273980.886147607
1.77359	14191257.225011714
1.77608	9921883.782649906
1.77857	13578170.513039296
1.78105	16193945.656070177
1.78354	12113806.661891762
1.78602	10690317.43883219
1.78849	12849500.44351274
1.79097	11349052.720441826
1.79344	10410397.647298876
1.79591	12339781.380184943
1.79837	16246872.020583073
1.80084	11575476.404692201
1.8033	10643136.634634055
1.80576	10823102.591443075
1.80821	10769257.321349647
1.81067	10783873.622282565
1.81312	12121418.98385611
1.81557	13178423.761039188
1.81801	8845851.55462573
1.82046	7721825.883935667
1.8229	9851045.932865612
1.82533	8818915.423352648
1.82777	8230972.597950015
1.8302	9148949.325539693
1.83263	8636834.274440955
1.83506	8070218.721673291
1.83749	8704020.811338933
1.83991	9464481.36771873
1.84233	10616826.172734613
1.84475	11965469.470609961
1.84716	10085051.375409013
1.84957	10107823.984714046
1.85198	10649927.654951524
1.85439	8718999.096276697
1.8568	6307008.00641216
1.8592	4596297.970077395
1.8616	5365277.0917932745
1.864	5875172.271188759
1.86639	5137991.247441596
1.86878	4909673.124953603
1.87118	7367369.948963653
1.87356	8086689.995716745
1.87595	7939161.618365919
1.87833	11473892.749951674
1.88071	14567258.635284588
1.88309	12549554.572116036
1.88547	11554358.496455394
1.88784	13755221.187543273
1.89021	14919209.789522557
1.89258	16576887.539900409
1.89494	18619330.071815863
1.89731	16361313.23913141
1.89967	12482898.203950236
1.90203	12280635.237078184
1.90439	12824342.869605828
1.90674	16235813.820012912
1.90909	17474343.578779776
1.91144	11460812.550181706
1.91379	10703678.582173537
1.91613	15583739.015591197
1.91848	17007392.19210629
1.92082	13552509.068518002
1.92315	11621893.074117975
1.92549	12678761.293972282
1.92782	13124018.200054854
1.93015	10643928.85205078
1.93248	8622267.458773645
1.93481	7512722.89795846
1.93713	5547380.678661603
1.93945	5039114.0429802695
1.94177	8700187.842066959
1.94409	11299884.480990708
1.94641	11128528.492291136
1.94872	11880363.932387063
1.95103	14897714.430036135
1.95334	14255468.974719608
1.95564	10312953.299810238
1.95795	9042648.490120534
1.96025	7661425.684105205
1.96255	7284391.682259086
1.96484	10396111.581480948
1.96714	12418158.071241042
1.96943	11478181.371636176
1.97172	12554710.118916888
1.97401	13261909.217741419
1.97629	12926206.92006001
1.97858	13730846.690000867
1.98086	12272397.50797066
1.98314	9730965.554843199
1.98541	11089880.377968531
1.98769	14903501.15210304
1.98996	14657412.516332347
1.99223	13213059.887380853
1.9945	14812457.883900352
1.99677	15356727.012505388
1.99903	14179774.16587421
2.00129	13676179.578073507
2.00355	14716637.546177443
2.00581	16640944.894698
2.00806	16627300.772140779
2.01031	17250984.145163972
2.01256	21849423.4502619
2.01481	23729720.831309155
2.01706	20111302.895998396
2.0193	19575238.180934418
2.02154	22967907.11593573
2.02378	23307648.11009341
2.02602	19890320.39932695
2.02825	18867349.302573286
2.03049	20982478.96991615
2.03272	24553224.631359726
2.03494	25405505.98942831
2.03717	24216105.398562495
2.03939	24399442.097453613
2.04162	26818706.598475747
2.04384	29536706.33541114
2.04605	29624436.57277304
2.04827	27562017.406461902
2.05048	27724860.739502937
2.05269	27475516.169060934
2.0549	24777903.002113946
2.05711	26678825.774218604
2.05931	28892266.53388853
2.06151	28398416.78285576
2.06371	28166732.85954661
2.06591	27616787.511462126
2.06811	28914564.586467337
2.0703	31328182.630235765
2.07249	32730908.516337547
2.07468	32356209.038065422
2.07686	30997657.340553842
2.07905	31428645.18290881
2.08123	33206756.095716324
2.08341	33984187.40299475
2.08559	33172803.394463148
2.08776	33284985.819015
2.08994	34320692.56893813
2.09211	34467648.11461271
2.09428	35211096.788118914
2.09645	36273123.81987532
2.09861	35279592.27378199
2.10077	33219188.395868726
2.10293	32624741.234748453
2.10509	33597881.07022207
2.10725	33798328.123557694
2.1094	31309747.464955207
2.11155	27652219.07004072
2.1137	26979696.40835995
2.11585	27916935.931891035
2.11799	28994756.293445677
2.12013	30946523.877525903
2.12227	31869444.399380323
2.12441	32144518.408705022
2.12655	31881210.139380667
2.12868	30531336.23266778
2.13081	30085405.29465323
2.13294	30180777.02012221
2.13507	28279701.103135772
2.13719	26683085.29095973
2.13931	27770155.91118214
2.14143	28864599.13387278
2.14355	28131166.43861818
2.14567	26627727.264522567
2.14778	24054349.078048598
2.14989	22132879.17159852
2.152	22292915.351252187
2.1541	22394236.87095351
2.15621	22096225.50276223
2.15831	21441827.895805728
2.16041	19992202.649244808
2.16251	19738237.83799145
2.1646	20105959.8059742
2.1667	20012295.85912988
2.16879	20774274.303558704
2.17087	21839636.722591773
2.17296	21438309.152334753
2.17504	20761370.405168872
2.17713	20719492.029409014
2.1792	19695675.77937142
2.18128	16803861.016129076
2.18336	13530930.385281427
2.18543	12417313.057082701
2.1875	12549669.496188179
2.18957	12124705.807706486
2.19163	12157459.22177022
2.1937	12887792.21666582
2.19576	11873397.248738514
2.19782	8757855.060804307
2.19987	5691739.409896992
2.20193	4277793.52291153
2.20398	4000566.2519684196
2.20603	3830801.544459617
2.20808	3913683.7402721643
2.21012	4193254.2444164213
2.21217	4535623.371336241
2.21421	5401435.940536189
2.21625	6294360.133674902
2.21828	6554785.426882187
2.22032	6827219.231402915
2.22235	7093256.978884482
2.22438	6821872.364530359
2.22641	5991184.856625117
2.22843	5728324.635947272
2.23046	5548333.600720326
2.23248	4689457.7747847065
2.2345	3895127.2147180163
2.23651	3466424.2584400177
2.23853	3370825.102741624
2.24054	3784417.3217500485
2.24255	4543653.892920595
2.24456	5268901.54786924
2.24657	5621287.471067918
2.24857	5523636.633146109
2.25057	5104041.378926013
2.25257	4610807.496364941
2.25457	4060912.4911076874
2.25656	3573437.149737598
2.25856	3257742.927377309
2.26055	3100503.2050638264
2.26254	2705204.8717762763
2.26453	2399436.0499523873
2.26651	2464926.6382571906
2.2685	2632054.386809561
2.27048	2721756.5878008595
2.27246	2860373.644320027
2.27443	2870219.982283091
2.27641	2941150.7739162366
2.27838	3167834.7998511144
2.28036	3113228.0962642636
2.28233	2795013.927043593
2.28429	2503176.0246076705
2.28626	2285561.077147882
2.28823	2119209.7972108983
2.29019	1965136.262972893
2.29215	1812883.0123170298
2.29411	1766645.1248257225
2.29607	1855721.7250761122
2.29802	2152850.3125635628
2.29998	2639150.3746230137
2.30193	3247732.470079869
2.30388	3757326.8256263896
2.30583	4048776.9935785355
2.30778	4400815.072580279
2.30972	4823575.047966593
2.31167	5041507.648764967
2.31361	4421154.090562922
2.31555	3263245.5908546993
2.31749	2249996.0252351905
2.31943	1960868.626465903
2.32137	1807032.3744628762
2.32331	1538348.3168787684
2.32524	1284903.5010012244
2.32718	1082576.1115153977
2.32911	987400.0135396798
2.33104	1048997.9871579339
2.33297	1224583.8456038737
2.3349	1518089.0191615464
2.33683	1969691.843949578
2.33876	2312855.2468266436
2.34068	2481436.6836758144
2.34261	2592854.4518543137
2.34453	2777098.8488585316
2.34646	2980999.0563890985
2.34838	3061565.1290033148
2.3503	2901100.967288447
2.35223	2793946.767486458
2.35415	2661633.397344248
2.35607	2375605.9731125184
2.35799	2415898.727199608
2.35991	2881160.934853382
2.36183	3416138.8403101237
2.36375	3755499.0936946715
2.36566	3932809.1321974383
2.36758	3783056.3186141914
2.3695	3462744.089099157
2.37142	3222031.656371729
2.37334	2999511.506194327
2.37526	2549211.2656743135
2.37718	2068036.543142825
2.3791	1836467.463858819
2.38101	1762835.3693194229
2.38293	1768519.259449109
2.38485	1999647.7917978456
2.38677	2585214.722230494
2.3887	3096269.5998493396
2.39062	3090995.1068298128
2.39254	2958166.1839599297
2.39446	3178426.355405137
2.39639	3481409.4984078403
2.39831	3487092.6579244984
2.40024	3485571.1154170264
2.40216	3702925.5613202415
2.40409	4201996.993986319
2.40602	4364038.340970469
2.40795	4204328.855825508
2.40989	4343380.782621068
2.41182	4804038.610208581
2.41376	4979515.4478175575
2.4157	5152683.9722680645
2.41764	5203188.594039154
2.41958	5055262.696372213
2.42152	4752166.978455796
2.42347	4672404.269249772
