#wavelength	surface flux
0.6000046	32.09429437182482
0.606004646	98.17710748464746
0.61206469246	176.29251952449638
0.6181853393846001	297.2216247396873
0.624367192778446	497.3265475784818
0.6306108647062305	825.3523881176338
0.6369169733532929	1325.654920255927
0.6432861430868257	2056.2731241497077
0.649719004517694	3084.9934958707395
0.6562161945628708	4463.447369314581
0.6627783565084996	6247.308656384608
0.6694061400735846	7184.5064769840155
0.6761002014743205	10727.976083066773
0.6828612034890637	12991.764255595266
0.6896898155239545	14362.769109285222
0.6965867136791939	14763.69194907582
0.7035525808159859	14305.24726654356
0.7105881066241457	12831.709421823254
0.7176939876903872	10324.33843910643
0.724870927567291	8544.377993335045
0.732119636842964	6891.192734082496
0.7394408332113936	5569.2852481891705
0.7468352415435076	4430.172723920344
0.7543035939589426	3304.733235372509
0.7618466298985321	1903.2877770742416
0.7694650961975174	770.2573618665288
0.7771597471594927	3607.4167940655097
0.7849313446310876	6829.5275166081965
0.7927806580773984	9745.230171164241
0.8007084646581725	16602.690992274882
0.8087155493047542	25213.87280046754
0.8168027047978017	36368.39430960247
0.8249707318457796	54424.09517485093
0.8332204391642375	75317.0634289055
0.8415526435558799	100031.40892053935
0.8499681699914386	122164.47662735789
0.8584678516913531	186672.8301876706
0.8670525302082667	240405.2855892876
0.8757230555103492	296983.3790137083
0.8844802860654528	321495.7413754527
0.8933250889261073	284230.31862587953
0.9022583398153684	492991.9505362424
0.9112809232135222	597441.59614552
0.9203937324456574	692877.1202264659
0.9295976697701139	322005.64574985934
0.938893646467815	523525.55115810124
0.9482825829324931	542240.3424760834
0.9577654087618181	647875.9611977179
0.9673430628494364	842053.3863280264
0.9770164934779306	949782.534720433
0.9867866584127101	1034228.1014437181
0.9966545249968373	1356989.4394057922
1.0066210702468055	1657834.115098764
1.0166872809492735	1796726.8295251778
1.0268541537587663	1919604.2597438032
1.0371226952963541	2108031.3028066754
1.0474939222493176	2322272.8078577467
1.0579688614718108	2547215.776773682
1.0685485500865288	2580774.5948259593
1.0792340355873942	2583714.7962158457
1.0900263759432682	2254113.754060851
1.1009266397027009	1434398.1300375287
1.1119359060997278	926702.1302665763
1.1230552651607253	991492.551797691
1.1342858178123325	754183.119975225
1.1456286759904557	1187353.1792089744
1.1570849627503603	1157166.0195468094
1.1686558123778639	1159151.1611630805
1.1803423705016425	1860566.8101209213
1.192145794206659	2498231.7670471445
1.2040672521487257	3018953.164502071
1.216107924670213	3355994.455726048
1.228269003916915	3817554.0395171186
1.2405516939560841	4200522.906339979
1.252957210895645	4282710.339185506
1.2654867830046015	4625898.229713322
1.2781416508346477	4638161.324440158
1.2909230673429941	4157176.8552226885
1.303832298016424	4323101.798362507
1.3168706209965881	3593434.1426869077
1.330039327206554	2228995.468206985
1.3433397204786197	464337.78681912704
1.356773117683406	160771.70457839948
1.37034084886024	132168.90252750216
1.3840442573488425	370345.31803394743
1.3978846999223307	308453.237460323
1.4118635469215541	287107.4718448077
1.4259821823907697	353169.0278489484
1.4402420042146773	626356.2253275219
1.4546444242568242	1067073.6565899062
1.4691908684993922	1150801.0425036813
1.4838827771843863	1102499.161041017
1.4987216049562304	1276780.3637961876
1.5137088210057925	1927812.0277029942
1.5288459092158506	2448044.59008797
1.544134368308009	3348531.4659383753
1.559575711991089	4209889.810925212
1.575171469111	4787723.448028174
1.5909231838021098	5306786.970344285
1.6068324156401312	4043460.781265073
1.6229007397965325	3445872.830334506
1.6391297471944979	3386135.804512834
1.6555210446664428	3616384.856792956
1.6720762551131072	2210425.8747265236
1.6887970176642384	2011560.7297041053
1.7056849878408806	1561682.3324345502
1.7227418377192896	2768565.4619943164
1.7399692560964823	2728786.1728034494
1.757368948657447	2314364.846400779
1.7749426381440219	1595142.8246496108
1.792692064525462	1305440.7308901178
1.8106189851707164	1132790.0965567627
1.8287251750224238	1013244.8770319398
1.847012426772648	626744.326000228
1.8654825510403745	285747.9473215963
1.8841373765507783	1236176.9642389882
1.902978750316286	1353394.8942067588
1.9220085378194491	621136.7985218832
1.9412286231976434	425594.7300472731
1.96064090942962	813059.7540596345
1.9802473185239162	1107248.151534818
2.0000497917091553	1984695.0340306133
2.020050289626247	2085923.370981078
2.0402507925225093	2957607.1222893163
2.0606533004477345	3637880.4975674544
2.081259833452212	3815517.9021740686
2.102072431786734	3914423.1759938155
2.1230931561046016	3753522.689309773
2.1443240876656473	3065485.567611645
2.165767328542304	2771765.5132155465
2.187425001827727	2122216.0937791495
2.209299251846004	639569.8635844429
2.2313922443644643	685360.0971257219
2.253706166808109	506947.90505977697
2.27624322847619	515563.6014334519
2.299005660760952	422325.3309241637
2.3219957173685617	311980.09013544
2.345215674542247	367336.1961064045
2.3686678312876697	434809.1737525574
2.3923545096005463	742368.1927966365
2.416278054696552	658372.0373585824
2.440440835243517	1270976.8712251028
2.4648452435959527	1672990.8190586881
2.489493696031912	1435042.4392652088
2.5143886329922314	690862.2335038388
2.5395325193221536	475942.6371756547
2.5649278445153754	176360.95746099504
2.590577122960529	191358.5675595771
2.616482894190134	178280.82932641119
2.6426477231320353	852678.2209485198
2.669074200363356	137201.34368872258
2.6957649423669894	499798.8592057237
2.7227225917906597	387107.72898051003
2.749949817708566	657183.7284155549
2.7774493158856517	509809.6904381898
2.805223809044508	450619.73649415415
2.8332760471349534	598275.4335897738
2.861608807606303	409971.46627546946
2.890224895682366	955489.3034510519
2.9191271446391895	962914.5279137056
2.9483184160855815	1701812.7298656646
2.977801600246438	1532578.7466206746
3.007579616248902	1020385.0851059679
3.0376554124113913	1940017.7327920692
3.068031966535505	2043542.0514626733
3.09871228620086	1540980.040435415
3.1296994090628685	853303.5002366652
3.1609964031534976	525529.8717321279
3.192606367185032	374150.43389683735
3.2245324308568826	340509.5787382101
3.2567777551654515	528327.9501019554
3.289345532717106	933442.8742164219
3.322238988044277	66154.15717182077
3.35546137792472	392182.51825069584
3.3890159917039675	338549.99664383876
3.4229061516210066	469962.2670511227
3.4571352131372173	606592.6518528672
3.4917065652685895	829222.5153053914
3.526623630921275	783218.0833217241
3.5618898672304877	1091985.2000595804
3.597508765902793	1261125.0966512624
3.633483853561821	2143101.605984206
3.669818692097439	2650273.5369453384
3.7065168790184138	3417420.6891278443
3.743582047808598	3572137.956967694
3.7810178682866837	3316314.833027082
3.8188280469695504	3994652.33646383
3.8570163274392457	4435956.259007429
3.8955864907136384	4508227.884257092
3.934542355620775	4772045.277888036
3.973887779176983	4940347.768843249
4.013626656968753	5282059.570549456
4.05376292353844	5413703.329241567
4.0943005527738245	5570288.382079672
4.135243558301563	5448970.112949639
4.176595993884578	5368297.3272309555
4.2183619538234245	4794714.038909569
4.260545573361659	4771506.5106747355
4.303151029095275	3829664.3410436413
4.346182539386228	4669355.673846078
4.38964436478009	4787680.369988136
4.4335408084278916	4031126.0836799964
4.47787621651217	4088672.716404921
4.522654978677292	4405880.676506652
4.567881528464065	4141794.905939528
4.613560343748706	4125905.370254226
4.659695947186193	3722998.559449278
4.706292906658055	3913550.110432495
4.753355835724635	4337795.678899396
4.8008893940818815	3796482.647866896
4.8488982880227	3707505.8328017686
4.897387270902928	3074116.810481772
4.9463611436119574	2718633.4155213907
4.995824755048077	3158807.7108073607
5.045783002598558	2976210.286048407
5.0962408326245425	2313933.0653147497
5.147203240950788	1641748.3072135376
5.198675273360296	1877939.768451086
5.2506620260939	2016387.6810702218
5.303168646354838	1804082.2012410688
5.356200332818387	1302087.503729133
5.409762336146572	1237225.0969185333
5.463859959508037	755280.2889720529
5.518498559103117	928172.1620754868
5.573683544694148	629026.5098662085
5.62942038014109	700019.4466174372
5.6857145839425005	574655.6567369384
5.742571729781926	587043.1317194197
5.799997447079745	745011.742833764
5.857997421550542	637752.1770059643
5.916577395766049	499324.0864073525
5.9757431697237084	526646.1806623994
6.035500601420946	546234.3928055204
6.095855607435156	748772.0897750584
6.156814163509507	334970.44488651474
6.218382305144602	632504.2946373789
6.280566128196048	765770.4486590911
6.343371789478009	648254.2195188749
6.406805507372789	426842.5767950071
6.470873562446516	326312.87186074175
6.535582298070982	425575.6168164868
6.6009381210516915	295272.78438858385
6.666947502262209	459799.87173123565
6.733616977284831	469284.1214260538
6.80095314705768	361362.00309783546
6.868962678528256	354307.0982240164
6.937652305313538	641188.9064124313
7.007028828366674	463655.7910239766
7.077099116650341	456846.77984542697
7.1478701078168445	418803.1226550952
7.219348808895012	422089.50040809106
7.291542296983963	312613.5995654741
7.364457719953803	289659.21165422327
7.438102297153341	291539.770032871
7.512483320124875	334143.9855544522
7.587608153326124	374277.5591907487
7.663484234859385	222414.55813546237
7.740119077207979	231536.6840223221
7.817520267980059	318753.905093662
7.895695470659859	225319.71151384246
7.9746524253664575	408422.4931420905
8.054398949620122	389357.38996492734
8.134942939116323	408719.2717955113
8.216292368507487	463272.2016740754
8.29845529219256	489661.7350258672
8.381439845114487	356463.6974086816
8.465254243565633	495609.7299525826
8.549906786001289	547982.2404248827
8.635405853861302	405348.86927286006
8.721759912399914	557677.564925852
8.808977511523914	441730.2829104455
8.897067286639153	571984.5199055995
8.986037959505545	545518.9649381205
9.0758983391006	492790.40036047844
9.166657322491607	507979.41483796254
9.258323895716522	615043.9984148731
9.350907134673689	512434.20460662886
9.444416206020424	566420.0456673694
9.538860368080629	485268.6891811414
9.634248971761435	546904.1060286922
9.730591461479051	532626.1744973577
9.82789737609384	626667.1266511241
9.926176349854778	537356.599413297
10.025438113353328	640206.4825759245
10.125692494486861	599655.1209496093
10.22694941943173	633510.4608145872
10.329218913626045	240012.292365018
10.432511102762307	181390.894109328
10.536836213789929	237349.8003489343
10.64220457592783	272753.0935928263
10.748626621687109	119695.26211248788
10.85611288790398	201499.1217911659
10.96467401678302	268591.0126979927
11.074320756950849	328775.7445041706
11.185063964520356	378036.5607126795
11.296914604165563	321364.60733574803
11.409883750207218	415299.0071919768
11.52398258770929	276934.4237113237
11.639222413586383	334974.0119289917
11.755614637722246	227692.10531017327
11.87317078409947	315264.53291048453
11.991902491940465	191675.25473371218
12.111821516859868	218894.02660631345
12.232939732028466	223499.16035704294
12.355269129348752	245073.1427660289
12.47882182064224	267174.13046724943
12.603610038848663	226456.06812770086
12.729646139237149	174028.41367517816
12.856942600629521	186021.98908506418
12.985512026635817	221380.8698503153
13.115367146902173	207204.25738339248
13.246520818371195	169484.42164459085
13.378986026554909	167255.79585703692
13.512775886820457	204027.80814176574
13.647903645688663	184648.73159345283
13.78438268214555	148029.6602327216
13.922226508967004	202593.40755609263
14.061448774056675	149593.91512412476
14.202063261797242	133330.89081302503
14.344083894415213	149579.64605666665
14.487524733359367	109048.53859511043
14.632399980692961	158426.88482734235
14.778723980499889	158289.95811588134
14.92651122030489	128275.45230039117
15.075776332507937	136275.09037115812
15.226534095833017	129063.12576648155
15.378799436791349	128541.21297868788
15.532587431159262	110125.6435781663
15.687913305470854	103046.35937535227
15.844792438525564	73343.68889847354
16.00324036291082	85266.71178051802
16.16327276653993	102729.2520210267
16.32490549420533	87373.05142112417
16.48815454914738	96060.72456873448
16.653036094638853	83815.15608643703
16.819566455585242	89551.56456322447
16.987762120141095	86236.91274244433
17.157639741342507	79308.07427090859
17.329216138755932	71813.714742654
17.502508300143493	75631.98828905431
17.677533383144926	79167.20516621605
17.854308716976377	77896.10655179099
18.032851804146137	63282.06866567506
18.2131803221876	60972.85179149939
18.395312125409475	70571.73131406003
18.57926524666357	58232.62556880024
18.765057899130205	58955.92669402797
18.95270847812151	58345.50934208553
19.142235562902727	60751.51587141812
19.333657918531753	45935.79882717757
19.52699449771707	47367.512928181815
19.72226444269424	47318.9149861889
19.919487087121183	34105.913378215584
20.118681957992393	44007.10442487424
20.319868777572317	36924.198385718686
20.523067465348042	38655.8369680972
20.728298140001524	44285.78386051832
20.93558112140154	40034.76629967651
21.144936932615554	31812.806096221717
21.35638630194171	25806.86740305754
21.569950164961128	34643.691899504665
21.78564966661074	31906.34757536851
22.003506163276846	32744.322233289226
22.223541224909614	29250.55284947009
22.445776637158712	27181.630617752697
22.6702344035303	30664.142363455067
22.8969367475656	24365.01468601002
23.125906115041257	29177.652152607945
23.35716517619167	29711.747810532775
23.59073682795359	20563.440500715613
23.826644196233126	17416.739569070916
24.064910638195453	24692.675329267975
24.305559744577412	26460.70979443398
24.548615342023187	25063.417182052443
24.794101495443417	23466.27207367185
25.042042510397852	14649.97302566543
25.29246293550183	16874.463191015
25.54538756485685	18925.956885130752
25.80084144050542	21850.7295110402
26.058849854910473	14254.460159945102
26.319438353459574	18310.17798961122
26.582632736994174	11627.383798249632
26.848459064364114	15219.521337165539
27.11694365500776	14711.975780346691
27.388113091557834	17497.71069197289
27.661994222473414	14724.626426924697
27.938614164698148	10517.96925891649
28.21800030634513	9386.607396713784
28.500180309408577	9346.354480986793
28.785182112502664	11871.247926572323
29.07303393362769	10595.548553197259
29.363764272963973	10205.145197816826
29.65740191569361	11420.272703722288
