#wavelength	surface flux
0.8	261020.2719482062
0.8002000000000001	265899.00974377757
0.8004000500000003	270782.54940607236
0.8006001500125003	275483.2959078016
0.8008003000500035	280560.98668680555
0.8010005001250161	285263.8707504645
0.8012007502500472	291032.17132759717
0.8014010504376099	295626.1506616776
0.8016014007002193	300182.9500298982
0.8018018010503944	306035.4150041434
0.8020022515006572	310102.71530625405
0.8022027520635323	315900.6900381827
0.8024033027515483	321604.6117072928
0.8026039035772362	326077.4534964813
0.8028045545531306	332508.24428640306
0.8030052556917691	336899.64029032225
0.803206007005692	343059.46907050075
0.8034068085074435	347848.53608766815
0.8036076602095705	354877.8667742053
0.8038085621246229	360941.1309328342
0.8040095142651542	367055.3767354527
0.8042105166437206	370743.97891644697
0.8044115692728815	377213.5013133705
0.8046126721651998	382531.1470311486
0.8048138253332411	389926.8203980283
0.8050150287895745	397115.5077893745
0.805216282546772	402519.1138388814
0.8054175866174087	406417.7708716964
0.8056189410140631	414178.8046034843
0.8058203457493168	419569.4502519228
0.8060218008357541	427639.14469245827
0.8062233062859632	429425.404308868
0.8064248621125346	438752.667292563
0.806626468328063	446643.53464504285
0.8068281249451449	452217.2320541423
0.8070298319763813	457373.8804563694
0.8072315894343755	462529.25420708064
0.8074333973317341	471735.71360070264
0.8076352556810671	479476.42091716867
0.8078371644949874	485431.2882360217
0.8080391237861113	495413.8429575355
0.8082411335670578	498078.92818068067
0.8084431938504498	504346.9559449488
0.8086453046489125	512026.18226453324
0.8088474659750746	516903.2877322206
0.8090496778415686	523862.44333682465
0.809251940261029	522400.2569271755
0.8094542532460944	541201.7264125096
0.8096566168094059	548132.9932535042
0.8098590309636085	554661.9394423948
0.8100614957213493	549217.1805370229
0.8102640110952797	564166.3951111486
0.8104665770980536	568941.4058698221
0.8106691937423283	580458.4411290543
0.8108718610407639	582063.6233691366
0.8110745790060241	588041.9593376127
0.8112773476507757	602481.9599969813
0.8114801669876885	604389.703855907
0.8116830370294355	608560.539112687
0.8118859577886929	636552.2526757616
0.8120889292781401	632906.9117830022
0.8122919515104597	631087.4426075137
0.8124950244983374	629982.767430683
0.8126981482544621	658822.4885001457
0.8129013227915257	670279.3175298237
0.8131045481222237	676777.2524762395
0.8133078242592543	673944.6977151494
0.8135111512153191	682990.0597564842
0.813714529003123	684632.1006287095
0.8139179576353739	705072.5690598387
0.8141214371247829	711890.9690734454
0.8143249674840641	700635.9968117032
0.814528548725935	734109.2449721171
0.8147321808631167	749119.9594539361
0.8149358639083326	745506.4775726387
0.8151395978743097	727635.1460401629
0.8153433827737784	776484.9358298406
0.8155472186194719	769525.8682774692
0.8157511054241268	780899.1642029493
0.815955043200483	802217.4852260011
0.8161590319612831	816604.4627349726
0.8163630717192736	786685.96509981
0.8165671624872033	825213.4901943168
0.8167713042778252	838682.992964634
0.8169754971038948	859273.4783264991
0.8171797409781707	827030.1009298792
0.8173840359134155	882465.6170115431
0.8175883819223938	891244.948417995
0.8177927790178745	897059.946228181
0.8179972272126291	884119.3116096711
0.8182017265194322	872751.7183852005
0.8184062769510622	841154.3972029462
0.8186108785203001	929188.0925854164
0.8188155312399301	928077.9005563244
0.8190202351227402	941902.5693869748
0.819224990181521	909086.9313877294
0.8194297964290664	787741.8610895588
0.8196346538781738	881693.7734016516
0.8198395625416434	981122.0673379573
0.8200445224322789	993498.7417514143
0.820249533562887	1020363.9728984247
0.8204545959462778	1036674.7332230271
0.8206597095952644	1048799.9955592114
0.8208648745226633	1061789.2058886075
0.8210700907412941	1072206.873803042
0.8212753582639793	1085426.146826882
0.8214806771035456	1099325.9188686442
0.8216860472728215	1110572.3866608262
0.8218914687846397	1117889.2936331443
0.822096941651836	1132835.8498414597
0.822302465887249	1146527.0392001462
0.8225080415037209	1160594.313144076
0.8227136685140968	1138139.6256198008
0.8229193469312254	1088760.8829405948
0.8231250767679583	1088228.269933651
0.8233308580371503	1162065.3249119977
0.8235366907516598	1178255.9008493866
0.8237425749243477	1212995.0808966134
0.8239485105680789	1220445.408810658
0.824154497695721	1243380.127281405
0.824360536320145	1240796.3168648235
0.8245666264542252	1221953.175411371
0.8247727681108388	1300939.0045327332
0.8249789613028664	1310702.030122285
0.8251852060431922	1326871.8944139604
0.825391502344703	1348386.3825720828
0.8255978502202894	1359913.4658848026
0.8258042496828445	1360695.5262655492
0.8260107007452654	1386241.2404828889
0.8262172034204517	1361854.2542422027
0.8264237577213068	1394239.312250149
0.8266303636607373	1416025.9190384282
0.8268370212516525	1442462.72245611
0.8270437305069654	1454739.3084516164
0.8272504914395923	1463714.7045899257
0.8274573040624523	1456766.039778294
0.8276641683884679	1478220.7809554979
0.8278710844305652	1489615.8688699908
0.8280780522016729	1522432.587787517
0.8282850717147234	1523638.875988491
0.8284921429826521	1547718.9519252004
0.8286992660183978	1564949.1966705106
0.8289064408349024	1556939.9031640012
0.8291136674451112	1556646.3336925255
0.8293209458619727	1594364.3732114783
0.8295282760984382	1580644.755583284
0.829735658167463	1543726.992174247
0.8299430920820048	1634099.9027366824
0.8301505778550254	1659872.6195365114
0.8303581154994891	1670073.9568384592
0.8305657050283641	1692982.6509219576
0.8307733464546212	1657394.26245817
0.8309810397912352	1724057.9044500303
0.8311887850511829	1749465.6738878924
0.8313965822474458	1719579.7942438135
0.8316044313930077	1770808.725134931
0.8318123325008561	1782816.5748705214
0.8320202855839813	1782654.5234280482
0.8322282906553774	1813006.4115756832
0.8324363477280413	1805101.3406038128
0.8326444568149735	1867090.6150294829
0.8328526179291771	1886301.011231911
0.8330608310836596	1871832.0520624376
0.8332690962914304	1853643.7840976457
0.8334774135655034	1886216.621075273
0.833685782918895	1906453.5154195032
0.8338942043646247	1959026.1075516972
0.834102677915716	1917368.0669285909
0.834311203585195	1979573.1347173522
0.8345197813860912	2007135.728665287
0.8347284113314379	2037558.4188350812
0.8349370934342709	2052205.943024306
0.8351458277076294	1985711.620181769
0.8353546141645565	2066676.344163318
0.8355634528180977	2020415.6928041053
0.8357723436813022	2047143.1273517732
0.8359812867672226	2011496.8067499136
0.8361902820889144	2145428.288696734
0.8363993296594368	2015497.654620208
0.8366084294918518	2154778.6767170634
0.8368175815992247	2156411.640017918
0.8370267859946247	2145227.6884303493
0.8372360426911234	2226964.2404927216
0.8374453517017962	2253417.562685553
0.8376547130397217	2197443.960043674
0.8378641267179816	2188139.0718432222
0.8380735927496613	2292882.4785652715
0.8382831111478488	2327976.360177263
0.8384926819256358	2347608.0956706544
0.8387023050961173	2324373.250887642
0.8389119806723914	2331195.833076854
0.8391217086675596	2418074.753508751
0.8393314890947265	2450004.0700185066
0.8395413219670003	2446367.1136192293
0.8397512072974922	2462470.640704058
0.8399611450993165	2435308.694252968
0.8401711353855914	2470862.3190410733
0.8403811781694378	2518486.943188554
0.8405912734639802	2486279.437227486
0.8408014212823464	2489901.712423367
0.8410116216376671	2558578.146520447
0.8412218745430766	2604942.3112541353
0.8414321800117124	2635817.3447316564
0.8416425380567154	2606957.302350651
0.8418529486912297	2647792.1495792647
0.8420634119284025	2568378.73002143
0.8422739277813847	2679948.496993827
0.8424844962633302	2704989.383012889
0.842695117387396	2763849.2394664004
0.8429057911667428	2772922.664689422
0.8431165176145345	2739493.5443065595
0.8433272967439382	2802113.225812154
0.8435381285681244	2800421.4358657873
0.8437490131002665	2813384.480394508
0.8439599503535415	2882964.638412395
0.84417094034113	2851931.1982557545
0.8443819830762154	2830819.99611373
0.8445930785719846	2925655.839250189
0.8448042268416277	2953637.8700536825
0.8450154278983382	2963882.028169338
0.8452266817553128	2977364.4863190046
0.8454379884257517	2994668.7000579326
0.8456493479228583	2931780.345650115
0.845860760259839	3067365.068880619
0.846072225449904	3121233.952376743
0.8462837435062666	3118431.873699355
0.8464953144421433	3046270.084154799
0.8467069382707537	3107880.9323801366
0.8469186150053215	3188362.1694246307
0.847130344659073	3163865.3328188662
0.8473421272452377	3208447.6548597696
0.8475539627770492	3215924.119634413
0.8477658512677435	3238867.968875743
0.8479777927305605	3288773.855961149
0.8481897871787432	3307479.4329869472
0.848401834625538	3335247.082915839
0.8486139350841944	3341863.9175744937
0.8488260885679657	3332531.339986307
0.8490382950901076	3347753.3472830113
0.8492505546638802	3403748.6597164534
0.8494628673025462	3363507.1798505853
0.8496752330193721	3440898.6880972544
0.8498876518276269	3409530.984002766
0.8501001237405839	3373949.9007427883
0.8503126487715191	3388693.257337787
0.850525226933712	3378150.7336564627
0.8507378582404455	3327344.1151445247
0.8509505427050057	3219937.352907083
0.8511632803406821	3103791.219855371
0.8513760711607672	2800686.848897742
0.8515889151785576	2324951.8622660246
0.8518018124073523	1452608.3860636852
0.8520147628604541	377121.9644226089
0.8522277665511693	442795.5344396522
0.8524408234928071	1558409.0065505633
0.8526539336986805	2439726.9872217104
0.8528670971821053	2965173.1184995817
0.8530803139564007	3284269.249626147
0.8532935840348901	3469093.1996628735
0.8535069074308987	3653605.171309004
0.8537202841577566	3752389.0377686075
0.8539337142287962	3813760.35676865
0.8541471976573534	3868319.417787367
0.8543607344567677	3956150.186530639
0.8545743246403821	4017843.6255864715
0.8547879682215422	4033386.1397684626
0.8550016652135977	4087125.155465575
0.8552154156299011	4107953.5261215386
0.8554292194838088	4145227.8920843108
0.8556430767886797	4157515.7590807173
0.855856987557877	4236694.055949132
0.8560709518047664	4280244.565126406
0.8562849695427177	4318244.015782628
0.8564990407851035	4314964.522164949
0.8567131655452999	4370626.627128729
0.8569273438366862	4424020.305834726
0.8571415756726455	4445837.376765884
0.8573558610665638	4458626.653106054
0.8575702000318304	4444207.958070318
0.8577845925818384	4512044.792837608
0.857999038729984	4577391.615891267
0.8582135384896665	4597822.150201816
0.858428091874289	4606093.627642124
0.8586426988972576	4648998.828189857
0.8588573595719821	4667474.404441949
0.8590720739118751	4691576.965233322
0.8592868419303532	4730476.641035648
0.8595016636408359	4770595.392747991
0.8597165390567462	4806683.64118317
0.8599314681915105	4806541.262495854
0.8601464510585584	4824473.25804629
0.860361487671323	4870924.424249377
0.8605765780432408	4895131.6796409385
0.8607917221877518	4909932.8288936755
0.8610069201182988	4896894.426016297
0.8612221718483286	4550246.319980849
0.8614374773912907	3594099.376077453
0.8616528367606385	3964285.354837407
0.8618682499698288	3574392.4256666214
0.8620837170323213	3546093.8491650517
0.8622992379615795	3879472.3053419227
0.8625148127710699	3859332.099017693
0.8627304414742627	3542623.7502604043
0.8629461240846313	4400671.537057548
0.8631618606156526	3673319.492544872
0.8633776510808066	3570846.580430358
0.8635934954935769	3702241.7634977754
0.8638093938674504	3862184.158992306
0.8640253462159173	4010204.400841928
0.8642413525524714	3847487.9696350694
0.8644574128906095	4201184.725624104
0.8646735272438323	4252680.727916789
0.8648896956256433	3727097.3926673015
0.8651059180495498	4408443.674295139
0.8653221945290621	4123218.330039153
0.8655385250776946	4980409.202644064
0.8657549097089641	4503994.649563361
0.8659713484363913	4492244.61177726
0.8661878412735006	4629799.958351035
0.866404388233819	4696304.522397768
0.8666209893308775	4404760.6044645365
0.8668376445782103	5277166.671155019
0.8670543539893549	4725243.328073161
0.8672711175778525	4688857.125335983
0.8674879353572469	4709367.22221088
0.8677048073410862	5020347.485914539
0.8679217335429217	5192962.014760227
0.8681387139763074	5060083.677139437
0.8683557486548015	4604282.242000992
0.8685728375919655	4486290.785680055
0.8687899808013633	5202090.401874284
0.8690071782965637	5422103.636599841
0.869224430091138	5617801.618533111
0.8694417361986609	5386659.515392601
0.8696590966327107	4573208.288836358
0.869876511406869	4848351.584337832
0.8700939805347206	5227657.487851537
0.8703115040298544	5357532.204841225
0.870529081905862	4975855.884151491
0.8707467141763385	5329184.738369443
0.8709644008548827	4880543.544822717
0.8711821419550964	4780570.16240677
0.8713999374905854	4844813.678609525
0.871617787474958	5475926.077136682
0.8718356919218269	5348757.164036764
0.8720536508448075	4847906.849938287
0.8722716642575187	5141382.46532429
0.8724897321735832	4939163.757916055
0.8727078546066265	5620713.594800327
0.8729260315702784	5085838.13064148
0.873144263078171	5450099.789667233
0.8733625491439405	5629546.560182866
0.8735808897812266	4817919.293185499
0.8737992850036719	5328545.054049589
0.874017734824923	5455686.732755564
0.8742362392586293	5812791.582695529
0.874454798318444	5847225.733318237
0.8746734120180236	5874882.962622836
0.8748920803710283	6050092.738793508
0.875110803391121	5615723.616581271
0.8753295810919689	5400681.10816589
0.875548413487242	6190689.608654296
0.8757673005906139	6057049.333924138
0.8759862424157616	6285389.075796369
0.8762052389763657	6315194.463234358
0.8764242902861098	5956299.835042609
0.8766433963586814	6332366.5417599445
0.8768625572077712	5616557.385366719
0.8770817728470732	5333976.378872373
0.8773010432902849	6356542.343160462
0.8775203685511077	6119817.116968418
0.8777397486432454	7013029.17593702
0.8779591835804065	6771776.962877599
0.8781786733763015	5957434.084347809
0.8783982180446457	6294344.775869965
0.878617817599157	6576742.758277779
0.8788374720535569	5753899.9071574155
0.8790571814215703	6181799.094973609
0.8792769457169257	6396193.076387466
0.879496764953355	6358886.708017824
0.8797166391445934	7370743.834132336
0.8799365683043796	7237596.610832271
0.8801565524464557	6412922.827038039
0.8803765915845676	6052409.147741599
0.8805966857324639	6569545.226104211
0.880816834903897	5974200.332572272
0.881037039112623	6693650.872439103
0.8812572983724012	6645246.74363855
0.8814776126969944	6504121.733755258
0.8816979821001687	6869894.795674458
0.8819184065956938	7482899.323367382
0.8821388861973429	7044419.831593985
0.8823594209188923	6281766.582938193
0.882580010774122	6325134.708029979
0.8828006557768155	6452329.006835842
0.8830213559407598	6159245.514439841
0.8832421112797452	7371992.677752386
0.8834629218075651	6346692.79372186
0.8836837875380171	6239396.150612415
0.8839047084849018	6971204.040306494
0.884125684662023	7619722.152073235
0.8843467160831886	7714982.099137978
0.8845678027622095	7577731.281734774
0.8847889447129001	5967642.209305445
0.8850101419490785	6633835.117168968
0.8852313944845657	6961502.182219488
0.885452702333187	8192798.308279713
0.8856740655087704	7695386.383817335
0.8858954840251476	6526281.110221242
0.8861169578961539	6611056.302971987
0.886338487135628	8118610.037265395
0.886560071757412	8020644.387718827
0.8867817117753515	7735533.846660666
0.8870034072032955	7159002.509358149
0.8872251580550963	5888603.908709143
0.8874469643446101	6393798.573686033
0.8876688260856963	6777011.511294338
0.8878907432922178	7883062.493386789
0.8881127159780409	8226994.167285957
0.8883347441570356	7839477.521822714
0.8885568278430749	6033938.113240715
0.8887789670500358	7636709.859001986
0.8890011617917983	8030345.604902157
0.8892234120822464	8724333.08911457
0.8894457179352669	8416752.796825243
0.8896680793647509	7167327.513284444
0.8898904963845921	6328623.710797188
0.8901129690086883	7672628.370200494
0.8903354972509405	8702662.87785538
0.8905580811252535	8626194.413950989
0.8907807206455347	8144069.289968728
0.8910034158256963	7627865.316859301
0.8912261666796527	6555254.420529446
0.8914489732213227	7933750.865166126
0.8916718354646282	8436565.836845545
0.8918947534234944	7487164.750269631
0.8921177271118502	6885194.317737585
0.8923407565436284	7716831.726298678
0.8925638417327644	6158268.400262517
0.8927869826931977	7338012.431252436
0.8930101794388711	7181825.179955282
0.8932334319837308	7060094.000087091
0.8934567403417267	7002234.892985563
0.8936801045268123	5602477.141371708
0.8939035245529441	4205073.438546042
0.8941270004340824	2065663.010158006
0.894350532184191	452318.62250940443
0.8945741198172371	2231566.3131299047
0.8947977633471915	4396257.409575965
0.8950214627880284	6050012.959538864
0.8952452181537254	6758832.653759299
0.8954690294582639	6034908.14282194
0.8956928967156286	7140820.281047763
0.8959168199398075	8404942.899310444
0.8961407991447926	9053676.32882005
0.8963648343445789	8897203.543778598
0.896588925553165	7554832.610089277
0.8968130727845534	7244017.571282323
0.8970372760527496	7981833.168103817
0.8972615353717629	8654076.976806842
0.8974858507556059	8378060.032085019
0.8977102222182949	9153086.53975389
0.8979346497738496	10079992.083393654
0.8981591334362931	9254990.292317618
0.8983836732196523	7813790.796282465
0.8986082691379572	9370821.105620004
0.8988329212052417	9695895.588800462
0.8990576294355432	8982753.446438378
0.8992823938429022	9246824.832003918
0.8995072144413631	9906182.7932195
0.8997320912449734	9483388.76985416
0.8999570242677847	9457062.15222156
0.9001820135238516	8462710.43181707
0.9004070590272328	10212167.411901575
0.9006321607919896	10714773.156493476
0.9008573188321878	10736032.677996695
0.9010825331618959	10098553.010114482
0.9013078037951865	9818007.521122161
0.9015331307461353	10179717.94353063
0.9017585140288219	10002617.777021606
0.9019839536573292	11085743.62926022
0.9022094496457435	11994822.753627138
0.9024350020081551	11368893.870463798
0.9026606107586572	11647353.21203241
0.902886275911347	9715845.68329903
0.9031119974803249	10076461.627703877
0.9033377754796951	10840025.81758909
0.903563609923565	11742415.102267016
0.903789500826046	12733496.523618203
0.9040154482012526	12932772.129940279
0.904241452063303	11833273.828828279
0.9044675124263188	10926134.410512319
0.9046936293044254	11568561.820289858
0.9049198027117517	11468763.67117932
0.9051460326624297	12482788.809628412
0.9053723191705955	13024290.399286667
0.9055986622503881	12281002.417851184
0.9058250619159507	12746254.078201978
0.9060515181814298	11477066.786347171
0.9062780310609752	12044451.05072625
0.9065046005687405	12182854.985301213
0.906731226718883	12295050.096982304
0.9069579095255627	13156080.220618894
0.907184649002944	12172452.425359057
0.907411445165195	12363506.75767954
0.9076382980264862	12243528.287591293
0.907865207600993	12681884.543196019
0.9080921739028933	12382464.940016916
0.9083191969463691	11287803.136595747
0.9085462767456058	13232485.315215105
0.9087734133147922	13696466.688598389
0.9090006066681211	12610429.43615215
0.909227856819788	13110904.030639777
0.9094551637839932	12815177.188854307
0.9096825275749393	13470395.717572518
0.9099099482068329	12863485.808391642
0.9101374256938848	12923909.001837377
0.9103649600503083	12930468.698604058
0.9105925512903209	14577864.610146992
0.9108201994281437	11592198.962926881
0.9110479044780008	11894523.977409326
0.9112756664541204	13798480.814845264
0.911503485370734	13569640.6230386
0.9117313612420768	14283628.097197004
0.9119592940823873	12843912.883689271
0.912187283905908	14153527.326395027
0.9124153307268845	14675991.553389115
0.9126434345595664	14818976.424528003
0.9128715954182063	13338537.329246808
0.9130998133170609	11627763.875435634
0.9133280882703902	12608999.760620017
0.913556420292458	14494064.268754987
0.9137848093975312	13485044.54552592
0.9140132555998806	13276266.974258946
0.9142417589137806	14820901.133233499
0.9144703193535092	13300642.562482242
0.9146989369333476	14852494.581803055
0.9149276116675811	14049816.669453729
