#wavelength	surface flux
0.676892	89313.31448088931
0.678297	94814.18856935353
0.679702	100084.15977543875
0.681109	105141.99178183674
0.682517	109783.85079920935
0.683926	114343.156790775
0.685337	118556.04497108767
0.686749	122181.00888308586
0.688164	125309.3368187389
0.689581	127665.13487538992
0.691	127929.04058348697
0.692422	127966.64875010701
0.693847	128795.5653187367
0.695274	131039.25533435434
0.696705	131601.6216329716
0.698139	132298.72718225414
0.699576	131091.3335464201
0.701017	129326.72419294529
0.702461	126763.29640506198
0.70391	125074.80040701696
0.705362	121653.35279034532
0.706819	118158.93273631865
0.70828	114731.26395993045
0.709745	109750.8135989334
0.711216	104748.77256872623
0.71269	100172.4905725647
0.71417	95138.29194207054
0.715655	86219.39184442222
0.717145	78489.53370522913
0.71864	71349.20579045417
0.72014	67821.60051154191
0.721647	64090.36941659155
0.723158	62309.10495317662
0.724676	56263.373033485084
0.726199	50487.156477887336
0.727728	43033.744930334404
0.729264	42372.401789800824
0.730805	37564.02472481976
0.732353	35940.108879156876
0.733907	32245.666277384393
0.735468	27028.983864913604
0.737035	25869.75091337146
0.738609	23021.476553447686
0.74019	20410.256387802554
0.741777	17921.890196595443
0.743372	15797.446855174248
0.744973	13719.274665228459
0.746582	11807.329472541342
0.748197	10072.528707790423
0.74982	8725.270738778141
0.751451	7455.620305847115
0.753088	6373.645665497595
0.754734	5451.631431804953
0.756386	4652.796704784232
0.758047	3952.5959156251906
0.759715	3309.0891860612155
0.76139	2668.6544443530156
0.763074	1965.4979708691365
0.764765	1071.9818376767191
0.766464	320.17966342522016
0.768172	711.3738262901483
0.769887	488.4162743210327
0.77161	1602.6997403278112
0.773341	2881.212545906856
0.775081	3989.7415604704233
0.776829	5131.912039451148
0.778585	5933.611130355685
0.780349	6068.005042330217
0.782121	9573.77222327546
0.783902	12001.080480207189
0.785691	14753.813609402521
0.787489	18201.865161752772
0.789295	22254.512974331254
0.79111	26786.831816680246
0.792933	28916.470028950658
0.794764	20636.543135358683
0.796604	41298.506669505805
0.798453	54144.96058421154
0.80031	65018.73554880276
0.802176	76523.88555058629
0.804051	90225.95060429336
0.805934	104001.1350325604
0.807826	119829.73618130026
0.809727	136421.15822743895
0.811636	152741.283183828
0.813554	167432.05199053657
0.81548	192973.8541604167
0.817416	223039.01860818695
0.81936	236330.17679707616
0.821313	283719.7531294329
0.823274	317284.612078003
0.825244	343476.60554287094
0.827223	396515.1537319827
0.829211	422634.10887933255
0.831208	454141.18642902165
0.833213	530109.9252736636
0.835227	570474.4930173013
0.837249	574046.1630027189
0.83928	668744.5489846227
0.841321	748057.9500993724
0.843369	808299.6143334016
0.845427	865428.2419436187
0.847493	975122.7019657263
0.849567	961506.0057567221
0.851651	701248.3628827247
0.853742	1085700.6108310672
0.855843	1296135.8645454808
0.857952	1402646.3744992057
0.86007	1498973.4876904753
0.862196	1364482.2825331083
0.864331	1469276.4335838917
0.866474	1628180.5432079725
0.868626	1733396.272111745
0.870786	1760502.3673847932
0.872955	1882158.0912185318
0.875132	1866018.7135236692
0.877317	2233760.902766499
0.879511	2337100.8060230766
0.881713	2051638.0219669857
0.883923	1982390.8952897596
0.886142	2183300.698012165
0.888369	2006279.2542317612
0.890604	2241146.305384177
0.892847	1829581.7990239875
0.895099	1567640.8213197032
0.897358	2537845.2838738696
0.899626	2922179.473077596
0.901901	3330260.74480474
0.904185	4036721.8597819777
0.906476	4214770.34208544
0.908776	3567308.385743801
0.911083	4208363.049937617
0.913398	4060679.813375415
0.915721	4737692.8311533965
0.918051	4698218.400401916
0.92039	5199874.64804201
0.922736	4953555.348462601
0.925089	4332296.955027719
0.927451	3163134.504311497
0.929819	2031807.4895058265
0.932195	1485684.445187499
0.934579	1416180.024049818
0.93697	3871615.1758075138
0.939369	4601292.431651365
0.941774	3940283.609213554
0.944187	3415925.505290157
0.946607	4535693.164372128
0.949035	5107625.534993437
0.951469	2865334.0192996836
0.953911	3763741.757011373
0.956359	3242385.59332866
0.958814	4494082.149167304
0.961277	2951244.5083674463
0.963746	3260887.961934027
0.966222	4592815.186170906
0.968705	5180686.38751651
0.971194	5720941.026965873
0.97369	5102353.923623923
0.976193	6772996.363737944
0.978702	6266252.53560329
0.981217	6360006.432520251
0.983739	4976365.982058624
0.986268	6606442.754492927
0.988802	7211916.0564889675
0.991343	6625713.329299201
0.99389	8212736.135072628
0.996444	8770771.396388428
0.999003	5926686.811103379
1.00157	7194060.204535225
1.00414	8287048.416841656
1.00672	9329529.94828117
1.0093	9156662.570313651
1.01189	10001902.193230603
1.01448	11381644.429582985
1.01708	12062468.552493073
1.01969	13494444.183584575
1.0223	13699858.554941492
1.02492	13821148.084219377
1.02754	14565604.477084316
1.03017	16428908.336225217
1.0328	15944785.723003406
1.03544	16843828.55062003
1.03808	19543338.49370177
1.04073	18590619.557013772
1.04339	19399805.49067982
1.04604	18819258.320828352
1.04871	19635558.198699176
1.05138	20340324.764371134
1.05405	22159163.18625243
1.05673	21286042.244288065
1.05941	23578724.99961483
1.0621	22865578.631416176
1.06479	23785448.76056609
1.06749	24299572.961792707
1.07019	26151653.65247081
1.07289	25456581.144037966
1.0756	25477880.812713392
1.07832	24212222.564282183
1.08104	25534411.684192713
1.08376	24885897.16538155
1.08649	22916424.691793263
1.08922	17955427.08260345
1.09195	14582344.152114728
1.09469	12405112.027127126
1.09743	10094496.506763026
1.10018	9014903.017502395
1.10293	6923953.516804092
1.10568	5058615.999231464
1.10844	6114375.574876947
1.1112	4549547.195216177
1.11396	3757261.35013891
1.11673	2528264.1472341246
1.1195	3783524.800842842
1.12228	2729097.795816626
1.12505	3606288.276476773
1.12783	4902684.491560864
1.13062	4867121.422025267
1.13341	1576205.9934885942
1.1362	2106033.5808201735
1.13899	3705130.986703926
1.14178	5731671.046199246
1.14458	3994930.0420312854
1.14738	3823387.463138215
1.15019	6340066.7842726065
1.153	4504935.368058182
1.1558	3127964.5544511476
1.15862	5181757.360049267
1.16143	2793759.8569984618
1.16425	1768799.6445487747
1.16707	3460590.3959243014
1.16989	3927820.173937984
1.17271	5882208.893982134
1.17554	5947954.619335876
1.17837	3933707.796515169
1.1812	9187318.675824907
1.18403	10375772.458959864
1.18686	8671974.200360112
1.1897	10509933.841248635
1.19253	11673105.475621903
1.19537	13946226.326394763
1.19822	12624401.580087824
1.20106	13307955.85556583
1.2039	15538353.238394571
1.20675	18540336.616190445
1.2096	21129605.07006063
1.21245	21184970.728188977
1.2153	21959506.478595834
1.21815	21891680.979593653
1.221	22987653.078418434
1.22385	25005034.767543025
1.22671	25978022.610022724
1.22957	28984366.08622044
1.23242	29134545.922178105
1.23528	27847151.678930286
1.23814	29674075.182526562
1.241	31099901.80210002
1.24387	27544645.777436666
1.24673	33314136.423222113
1.24959	30619274.325317815
1.25245	22955588.984444678
1.25532	34638863.768454336
1.25818	36731749.921932004
1.26105	38061958.07218339
1.26392	29817915.93779782
1.26678	33631751.8325879
1.26965	28661668.881585166
1.27252	34994825.41281307
1.27538	36726338.575423375
1.27825	33494068.54361864
1.28112	33898524.56523961
1.28399	25901797.256951656
1.28686	26486295.950363774
1.28973	25569605.049045987
1.2926	26378033.544503696
1.29546	21907960.002518393
1.29833	19513437.5156931
1.3012	25609776.32299486
1.30407	26000336.272427544
1.30694	20809628.539907947
1.30981	21933460.24564026
1.31267	22664932.60361117
1.31554	17351462.786810156
1.31841	16348013.281935146
1.32128	19981361.397379592
1.32414	13328078.201749725
1.32701	7891031.526691282
1.32987	5097574.099759518
1.33274	4404602.6908523375
1.3356	3314863.196122176
1.33847	857853.7298015031
1.34133	739653.8607102219
1.34419	885167.3357907793
1.34705	664968.0811843814
1.34991	996407.1412498198
1.35277	1053882.111510651
1.35563	405117.40949911316
1.35849	380720.4695458638
1.36135	506642.8375851885
1.3642	874987.6071469415
1.36706	720142.8466229931
1.36991	595645.5557326718
1.37277	729825.1722601225
1.37562	466157.9778790503
1.37847	361740.5199611931
1.38132	784553.5815952301
1.38417	315798.9942141607
1.38701	82201.6222017512
1.38986	511751.78906688764
1.39271	778842.2833227448
1.39555	395985.47567085497
1.39839	617799.4547243874
1.40123	929208.2976727586
1.40407	779819.74227721
1.40691	559591.6797903596
1.40974	413337.6728116605
1.41258	860667.3004580612
1.41541	919326.7061551681
1.41824	398179.73639353435
1.42107	194240.94184691028
1.4239	235737.74678070136
1.42673	965174.1046897257
1.42955	1356057.3309721919
1.43237	805198.3801840676
1.43519	1464751.2419313292
1.43801	1614803.6936398547
1.44083	1256633.4115130468
1.44365	1378433.1040211592
1.44646	1208222.1483064939
1.44927	1716991.9786563693
1.45208	2918992.6651033787
1.45489	2350731.361736771
1.45769	3568698.076643635
1.4605	2984369.6294979816
1.4633	1903188.3005112573
1.4661	3076573.4820993072
1.4689	2847142.8847072264
1.47169	2483988.339773204
1.47449	2570934.2623450505
1.47728	2759542.096293146
1.48007	2690331.8784841653
1.48286	2823896.819512061
1.48564	2787917.230133458
1.48842	3313520.613460195
1.4912	4045821.727390102
1.49398	2732851.2199846827
1.49676	3788880.598206432
1.49953	4362609.167918599
1.5023	6501711.094726465
1.50507	7479226.214645521
1.50784	6111994.202535606
1.51061	7025690.786781913
1.51337	7525589.956961242
1.51613	5350377.716725598
1.51888	4439105.979076168
1.52164	6002515.250219046
1.52439	7734954.093921151
1.52714	6113215.174119576
1.52989	6752601.162586166
1.53263	8594176.734591141
1.53538	10501412.403151264
1.53812	8763367.336978449
1.54086	6841114.159389401
1.54359	6555583.624279026
1.54632	9555969.915691467
1.54905	10368356.82121072
1.55178	9712616.860052828
1.5545	9437083.312059155
1.55723	11678912.66552169
1.55995	12990208.523177696
1.56266	11285774.763635086
1.56538	15107645.222256785
1.56809	18218912.046780158
1.5708	16126506.931833692
1.57351	16154108.0820031
1.57621	15715225.381226145
1.57891	15271385.577863833
1.58161	18227636.709058855
1.5843	17184036.085247796
1.587	16964845.953328483
1.58969	16079389.779230773
1.59238	14253064.416008914
1.59506	16840100.084234092
1.59774	17935957.495970014
1.60042	15137523.636925576
1.6031	13039820.80126029
1.60577	12088599.853194218
1.60844	10161726.424244747
1.61111	10506223.969032124
1.61378	9709279.549073525
1.61644	9554611.40298931
1.6191	8492883.628970034
1.62176	9754188.486732768
1.62441	10412262.450475661
1.62707	11319403.761587346
1.62971	11285441.104039732
1.63236	10916285.893410245
1.635	14300363.277908
1.63764	15638040.582296431
1.64028	11302697.447295222
1.64292	10349330.090625387
1.64555	7905033.064768879
1.64818	7098026.215741991
1.65081	11663836.38418174
1.65343	12970820.655698743
1.65605	8588502.740690904
1.65867	7839187.528381246
1.66128	12262966.995670667
1.6639	9382517.499209754
1.66651	2384024.0589184985
1.66911	723595.8550941668
1.67172	2824943.2152893576
1.67432	5430259.987661709
1.67692	7952262.824587769
1.67951	6656488.013839641
1.68211	5100647.26891255
1.6847	3274744.3827031143
1.68728	2926190.4440501886
1.68987	2995232.8907754496
1.69245	2505277.119565697
1.69503	2094731.6799074318
1.6976	2236063.1880195765
1.70018	2489298.0789374695
1.70275	1613587.1580681289
1.70531	1695303.539235321
1.70788	2784845.519858343
1.71044	4432907.54920425
1.713	6534558.926005928
1.71556	7119795.050280403
1.71811	6988047.88728576
1.72066	4963748.244102113
1.72321	2825550.4480432454
1.72575	4363554.765949836
1.7283	5940962.186602983
1.73084	6140235.552827387
1.73337	3843805.8983989
1.73591	3069844.2330708783
1.73844	3951806.011460578
1.74097	3668620.2738914792
1.74349	3846421.959710516
1.74602	5072506.556458971
1.74854	6277926.50226898
1.75105	6518240.003861107
1.75357	4918045.501621482
1.75608	2868550.2613414163
1.75859	2248013.09864663
1.7611	2081067.3587481014
1.7636	2703133.9825489996
1.7661	2923052.3277115347
1.7686	2669216.673803787
1.7711	3334751.77365643
1.77359	2480102.4363176846
1.77608	1635800.4106739669
1.77857	2877968.104258428
1.78105	3857020.621938172
1.78354	2710176.6649004444
1.78602	2174260.3595633507
1.78849	2521646.418267435
1.79097	2202474.2908591297
1.79344	1985396.5589946306
1.79591	2374882.5908443453
1.79837	3453660.328041537
1.80084	2483415.7924423716
1.8033	2153675.3030508533
1.80576	2161909.327210492
1.80821	2278004.3711027065
1.81067	2313705.730751357
1.81312	2755076.1970303026
1.81557	2860155.2986653363
1.81801	1602121.5982919317
1.82046	1429329.854509479
1.8229	2077492.670480552
1.82533	1792065.1411185975
1.82777	1578133.7536759407
1.8302	1798484.7703968075
1.83263	1670141.429727988
1.83506	1381720.420278577
1.83749	1428313.3732281665
1.83991	1741713.4742684974
1.84233	2203848.3672453766
1.84475	2745712.957546353
1.84716	2189674.255047825
1.84957	2063266.6632965913
1.85198	2307829.925882573
1.85439	1953534.9275428548
1.8568	1299790.5623988314
1.8592	855060.5032752537
1.8616	1086626.7513631077
1.864	1201804.5692706183
1.86639	901308.4965234932
1.86878	800271.430371191
1.87118	1352926.165178185
1.87356	1501354.2252918186
1.87595	1590703.8533497674
1.87833	2872619.9560025716
1.88071	3682179.7468944653
1.88309	2944000.249282173
1.88547	2665614.127821636
1.88784	3241890.872358999
1.89021	3497116.0706284256
1.89258	3991618.7505854736
1.89494	4984140.296529305
1.89731	4365063.180832018
1.89967	2859573.631372589
1.90203	2746335.566644606
1.90439	2848201.6706683896
1.90674	3539366.331294388
1.90909	3512868.9636229873
1.91144	1870219.1502084518
1.91379	1800514.971530778
1.91613	3125128.935350261
1.91848	3625904.520501659
1.92082	2678586.055878877
1.92315	2228530.7543027103
1.92549	2506194.1948819384
1.92782	2531966.831029482
1.93015	1905600.3970528203
1.93248	1236912.9490226712
1.93481	1000934.2717665501
1.93713	888904.0866768543
1.93945	976228.41760403
1.94177	1877045.06348293
1.94409	2419221.126940712
1.94641	2391864.844409311
1.94872	2471455.7921615085
1.95103	2979706.281367551
1.95334	2927844.443325514
1.95564	2189938.3400534154
1.95795	2011715.744354488
1.96025	1655868.3962249556
1.96255	1509059.2783713646
1.96484	2373325.269543299
1.96714	3061476.8069936037
1.96943	2899499.24305341
1.97172	3122631.0973665933
1.97401	3165069.8476079116
1.97629	2963337.6045369348
1.97858	3112192.4697547005
1.98086	2719936.625321368
1.98314	2062072.6355233302
1.98541	2545598.0113902227
1.98769	3810109.614063188
1.98996	3887492.2842599005
1.99223	3456811.1661028303
1.9945	3993207.857493476
1.99677	4380887.316703255
1.99903	4184912.8274663347
2.00129	4043879.4357759412
2.00355	4116567.714147486
2.00581	4444117.143947728
2.00806	4698976.196383182
2.01031	5121349.308078824
2.01256	6360401.6555083925
2.01481	6868458.759395438
2.01706	5926083.637028426
2.0193	5691784.470273032
2.02154	6469474.9146385975
2.02378	6695382.909211271
2.02602	5960402.220531779
2.02825	5562826.787471219
2.03049	6019939.946718796
2.03272	7049272.508334898
2.03494	7476263.012648928
2.03717	7005961.772025074
2.03939	6746567.9643629845
2.04162	7992612.058551346
2.04384	9425088.17677535
2.04605	9557254.33113637
2.04827	8744863.7744011
2.05048	8654756.245682014
2.05269	8620631.781246316
2.0549	7723670.696580508
2.05711	8190064.497249872
2.05931	8813860.295271937
2.06151	8831954.427166943
2.06371	8822844.598248744
2.06591	8445572.6181427
2.06811	8752337.408155752
2.0703	9738130.865426617
2.07249	10566755.07821226
2.07468	10755849.798590569
2.07686	10342587.760899315
2.07905	10154009.688565379
2.08123	10280820.750625221
2.08341	10292050.892838772
2.08559	10072428.012724843
2.08776	10284091.554969374
2.08994	10687085.584264508
2.09211	10627021.570580322
2.09428	10867361.653100345
2.09645	11271908.780664613
2.09861	10790292.498347031
2.10077	9925639.588570273
2.10293	9659751.934608039
2.10509	9940954.018971445
2.10725	9967261.20749886
2.1094	8970643.056945382
2.11155	7556503.3694858495
2.1137	7318151.903407355
2.11585	7694219.367133094
2.11799	8219740.350489368
2.12013	8986610.02398845
2.12227	9169683.242558897
2.12441	9159804.436944555
2.12655	9051687.848560827
2.12868	8601871.025603628
2.13081	8375732.496716943
2.13294	8124335.108321082
2.13507	7213697.951116211
2.13719	6566500.126642909
2.13931	7103271.639064106
2.14143	7617899.064741622
2.14355	7138183.338034266
2.14567	6360491.855395454
2.14778	5417192.95631645
2.14989	4805089.497953042
2.152	5002658.279348014
2.1541	5168433.4127914645
2.15621	5027871.683332288
2.15831	4610190.141687398
2.16041	3735311.4779327074
2.16251	3306646.6781509593
2.1646	3506362.6954505
2.1667	3661350.9243991147
2.16879	3973899.1611536504
2.17087	4509454.18272252
2.17296	4611699.802631788
2.17504	4530058.021813729
2.17713	4634322.239181647
2.1792	4428148.774667329
2.18128	3714204.5208980637
2.18336	2832464.6896215924
2.18543	2425634.985671889
2.1875	2357481.197751215
2.18957	2183041.3509724573
2.19163	2128728.748707187
2.1937	2301429.629373082
2.19576	2089348.6865918676
2.19782	1370036.4312919287
2.19987	714397.6766965302
2.20193	482167.59548958385
2.20398	502650.83780689456
2.20603	516087.55702443933
2.20808	535559.923747205
2.21012	574912.9859876296
2.21217	627214.3887503225
2.21421	779436.2142517599
2.21625	918752.2897560751
2.21828	927251.6776279747
2.22032	951556.6118087758
2.22235	1015208.8365945178
2.22438	1022291.0941030948
2.22641	938895.7936083648
2.22843	933085.6503857753
2.23046	861268.2616209473
2.23248	607616.0485888952
2.2345	391434.6590604124
2.23651	309332.07276706723
2.23853	327812.87212147797
2.24054	439076.68697161763
2.24255	582049.2044629375
2.24456	694279.4785673651
2.24657	743874.6389561355
2.24857	721902.3980220933
2.25057	615546.9831924612
2.25257	445534.26134129165
2.25457	309161.43918767414
2.25656	273341.38680124294
2.25856	292385.6957438435
2.26055	298251.6703011556
2.26254	262091.98677410337
2.26453	242771.6468418915
2.26651	279847.1302377053
2.2685	314124.853752738
2.27048	319387.30667012365
2.27246	337374.3717484747
2.27443	335430.0271115019
2.27641	339998.16569886205
2.27838	382735.6819929995
2.28036	399076.08222496934
2.28233	365549.0363375941
2.28429	315658.6264942216
2.28626	267427.11564810487
2.28823	218846.03761144457
2.29019	171857.4729051761
2.29215	137393.52294349426
2.29411	139891.1202711343
2.29607	174339.56764608412
2.29802	230523.26590356586
2.29998	313536.59106129437
2.30193	430967.46767836943
2.30388	531608.0167935917
2.30583	574542.7976307943
2.30778	619261.0979477415
2.30972	718642.5268069578
2.31167	833027.3315026073
2.31361	774556.7395684683
2.31555	539456.212911917
2.31749	283949.46006165416
2.31943	187188.4994520894
2.32137	160948.95661157992
2.32331	139765.72632980975
2.32524	119845.3176221047
2.32718	104902.28368193757
2.32911	96914.53940964161
2.33104	99621.15451568122
2.33297	121521.1496951113
2.3349	177229.5587787107
2.33683	259128.63358299914
2.33876	305501.781230294
2.34068	308865.71397424344
2.34261	300219.231445984
2.34453	312878.1848329867
2.34646	358530.1369785144
2.34838	415440.9351000746
2.3503	425896.4420578274
2.35223	416406.9085549989
2.35415	385078.013112643
2.35607	333688.63644432765
2.35799	341362.7385593354
2.35991	416839.94358536735
2.36183	507927.3235888517
2.36375	571580.9255579484
2.36566	598462.2370053555
2.36758	545342.4448532425
2.3695	472208.0229111435
2.37142	437910.8357988991
2.37334	427150.08573734795
2.37526	364506.35210093576
2.37718	282065.0589299955
2.3791	235365.61092981376
2.38101	223001.7925218795
2.38293	239023.75081294306
2.38485	296138.19447362435
2.38677	405924.5742893982
2.3887	488598.8237121237
2.39062	476132.3161369305
2.39254	451586.76299713104
2.39446	504846.4689968389
2.39639	578164.2128833759
2.39831	605833.2256780154
2.40024	649751.1764896128
2.40216	724306.5799340913
2.40409	820957.926015497
2.40602	803297.2528079542
2.40795	712911.3768601511
2.40989	701019.894372484
2.41182	800515.5920240176
2.41376	881319.5061133074
2.4157	989310.9283420255
2.41764	1049758.1876969514
2.41958	1009622.2270743188
2.42152	889510.3977155212
2.42347	823852.3697091667
2.42542	864673.3313189086
2.42737	1070435.0906743552
