#wavelength	surface flux
0.8	1528547.9475738972
0.8002000000000001	1548317.1400508874
0.8004000500000003	1575470.4108373534
0.8006001500125003	1602894.1674154082
0.8008003000500035	1628483.9954605587
0.8010005001250161	1654100.3595642722
0.8012007502500472	1683451.731941408
0.8014010504376099	1703021.0090961403
0.8016014007002193	1728557.3772450332
0.8018018010503944	1757509.28467726
0.8020022515006572	1782092.9903934393
0.8022027520635323	1808669.3851482717
0.8024033027515483	1838698.8659747886
0.8026039035772362	1862398.5630700972
0.8028045545531306	1883145.7640536202
0.8030052556917691	1912713.206058084
0.803206007005692	1940534.3152094013
0.8034068085074435	1968997.268514154
0.8036076602095705	2004009.178349309
0.8038085621246229	2033662.5428453754
0.8040095142651542	2060435.0001952907
0.8042105166437206	2079080.361459773
0.8044115692728815	2114991.3171580974
0.8046126721651998	2142478.8477369472
0.8048138253332411	2175959.724229797
0.8050150287895745	2208796.013143395
0.805216282546772	2235439.9865390104
0.8054175866174087	2256441.8353279796
0.8056189410140631	2289616.2166544376
0.8058203457493168	2320065.996351841
0.8060218008357541	2359663.6035183826
0.8062233062859632	2370637.17435124
0.8064248621125346	2404519.0716258576
0.806626468328063	2452693.074385193
0.8068281249451449	2481922.474777899
0.8070298319763813	2507088.8061543717
0.8072315894343755	2525888.2998873414
0.8074333973317341	2573672.023378664
0.8076352556810671	2612721.468042109
0.8078371644949874	2637047.6203663754
0.8080391237861113	2686327.7889225204
0.8082411335670578	2707761.884793977
0.8084431938504498	2728757.9107384006
0.8086453046489125	2767001.7053278834
0.8088474659750746	2796746.648593745
0.8090496778415686	2821057.1129749194
0.809251940261029	2833358.444380085
0.8094542532460944	2904022.082561673
0.8096566168094059	2949974.390605129
0.8098590309636085	2982046.629661075
0.8100614957213493	2959032.3960329
0.8102640110952797	3025920.516458013
0.8104665770980536	3056461.4127543066
0.8106691937423283	3106409.1460622135
0.8108718610407639	3121548.081670508
0.8110745790060241	3158747.636006263
0.8112773476507757	3222490.5013022926
0.8114801669876885	3221197.831160928
0.8116830370294355	3254655.352582932
0.8118859577886929	3355503.267261078
0.8120889292781401	3363045.032532626
0.8122919515104597	3369695.6136911856
0.8124950244983374	3357420.8526110915
0.8126981482544621	3483534.5544072487
0.8129013227915257	3544346.994815436
0.8131045481222237	3575908.4134961474
0.8133078242592543	3571854.29277282
0.8135111512153191	3614162.4012640123
0.813714529003123	3648485.775547741
0.8139179576353739	3722029.383531569
0.8141214371247829	3743769.360868258
0.8143249674840641	3726972.0539996005
0.814528548725935	3832643.8245001757
0.8147321808631167	3910517.098891251
0.8149358639083326	3895016.1548648346
0.8151395978743097	3871824.081870201
0.8153433827737784	4036974.644700758
0.8155472186194719	4037347.7541581667
0.8157511054241268	4085121.3389732996
0.815955043200483	4166200.506857453
0.8161590319612831	4214348.874593913
0.8163630717192736	4118662.024421783
0.8165671624872033	4277443.6038272325
0.8167713042778252	4331767.993603163
0.8169754971038948	4402874.184515013
0.8171797409781707	4328395.351120891
0.8173840359134155	4498656.688288046
0.8175883819223938	4497207.856499303
0.8177927790178745	4541072.225508954
0.8179972272126291	4457276.890372904
0.8182017265194322	3930409.866568841
0.8184062769510622	3636268.455952813
0.8186108785203001	4544708.993846112
0.8188155312399301	4620409.109793396
0.8190202351227402	4597580.108596253
0.819224990181521	4174437.2648103195
0.8194297964290664	2814503.037880807
0.8196346538781738	3651699.600778408
0.8198395625416434	4644916.993989479
0.8200445224322789	4901106.585573443
0.820249533562887	5069098.49576514
0.8204545959462778	5138947.445389913
0.8206597095952644	5210316.004812799
0.8208648745226633	5306430.022547668
0.8210700907412941	5361019.601672749
0.8212753582639793	5429259.019556039
0.8214806771035456	5485412.037963875
0.8216860472728215	5543119.257555771
0.8218914687846397	5585219.109795006
0.822096941651836	5647041.531728041
0.822302465887249	5728652.593131258
0.8225080415037209	5789656.675125998
0.8227136685140968	5720470.145407097
0.8229193469312254	5586795.391760268
0.8231250767679583	5654811.771905982
0.8233308580371503	5906186.887239933
0.8235366907516598	5911657.144985835
0.8237425749243477	6053952.991137524
0.8239485105680789	6112923.184730117
0.824154497695721	6194308.202029177
0.824360536320145	6201094.401320011
0.8245666264542252	6139922.731246093
0.8247727681108388	6398107.386610793
0.8249789613028664	6469739.039167325
0.8251852060431922	6536636.87275708
0.825391502344703	6631393.416917606
0.8255978502202894	6684633.1660065
0.8258042496828445	6712956.819992403
0.8260107007452654	6792882.625117258
0.8262172034204517	6729291.122661176
0.8264237577213068	6861489.082404193
0.8266303636607373	6970033.146004372
0.8268370212516525	7052170.174227666
0.8270437305069654	7112505.023298882
0.8272504914395923	7157941.200058487
0.8274573040624523	7159726.968592602
0.8276641683884679	7278765.367498166
0.8278710844305652	7317074.690849522
0.8280780522016729	7435894.189987242
0.8282850717147234	7434106.9835669305
0.8284921429826521	7564084.121719088
0.8286992660183978	7621249.912755038
0.8289064408349024	7611057.422092796
0.8291136674451112	7607079.9574265415
0.8293209458619727	7733429.07201059
0.8295282760984382	7714472.306817109
0.829735658167463	7624217.351270125
0.8299430920820048	7941868.068333514
0.8301505778550254	8066376.976562105
0.8303581154994891	8107407.851949639
0.8305657050283641	8213442.7364192605
0.8307733464546212	8139005.79642511
0.8309810397912352	8344008.591721649
0.8311887850511829	8447692.440050527
0.8313965822474458	8394630.062790297
0.8316044313930077	8571976.999512982
0.8318123325008561	8647030.196813146
0.8320202855839813	8663736.522933217
0.8322282906553774	8774247.941368707
0.8324363477280413	8801440.701247217
0.8326444568149735	8970011.553813215
0.8328526179291771	9060972.462149285
0.8330608310836596	9039246.39375423
0.8332690962914304	9034138.49856425
0.8334774135655034	9164292.9214584
0.833685782918895	9209645.96224005
0.8338942043646247	9399957.54596846
0.834102677915716	9352519.326754594
0.834311203585195	9527853.648635428
0.8345197813860912	9627089.041522793
0.8347284113314379	9736175.889751777
0.8349370934342709	9829466.197559308
0.8351458277076294	9611099.176999468
0.8353546141645565	9902723.338149147
0.8355634528180977	9801124.042206394
0.8357723436813022	9871732.171050606
0.8359812867672226	9798415.548955796
0.8361902820889144	10235718.759111602
0.8363993296594368	9873376.342772145
0.8366084294918518	10351999.346179815
0.8368175815992247	10360551.499140125
0.8370267859946247	10365822.426750107
0.8372360426911234	10664021.70763444
0.8374453517017962	10766728.887318442
0.8376547130397217	10603954.49043478
0.8378641267179816	10612616.59254572
0.8380735927496613	10978766.918531936
0.8382831111478488	11097242.408900982
0.8384926819256358	11189084.460543895
0.8387023050961173	11136950.79717959
0.8389119806723914	11132151.000228625
0.8391217086675596	11460816.476511607
0.8393314890947265	11592694.42119197
0.8395413219670003	11626033.611501195
0.8397512072974922	11722017.604092065
0.8399611450993165	11677241.120515628
0.8401711353855914	11792238.084071374
0.8403811781694378	11971437.214867042
0.8405912734639802	11897422.881022498
0.8408014212823464	11952398.434347741
0.8410116216376671	12191300.295815783
0.8412218745430766	12350866.325992927
0.8414321800117124	12484048.763918422
0.8416425380567154	12464431.363985779
0.8418529486912297	12553728.151735669
0.8420634119284025	12295940.697520265
0.8422739277813847	12639898.917056473
0.8424844962633302	12777327.61131283
0.842695117387396	13048019.138843345
0.8429057911667428	13118055.645108754
0.8431165176145345	12993681.100983433
0.8433272967439382	13243895.400902575
0.8435381285681244	13030757.633958895
0.8437490131002665	13008008.830712283
0.8439599503535415	13348726.300868498
0.84417094034113	13359574.541193483
0.8443819830762154	13275101.862741707
0.8445930785719846	13324281.742850794
0.8448042268416277	13495029.653052242
0.8450154278983382	13643958.724302372
0.8452266817553128	13692933.61264947
0.8454379884257517	13571376.0945715
0.8456493479228583	13330492.88855785
0.845860760259839	13847609.967507783
0.846072225449904	14071374.267044136
0.8462837435062666	14159502.240950475
0.8464953144421433	13872752.44878853
0.8467069382707537	14050584.248203553
0.8469186150053215	14349443.278589908
0.847130344659073	14303069.654441599
0.8473421272452377	14478019.45206687
0.8475539627770492	14471759.759260008
0.8477658512677435	14642097.415349254
0.8479777927305605	14832830.458239283
0.8481897871787432	14886306.506011918
0.848401834625538	15003490.95805736
0.8486139350841944	15097808.336104615
0.8488260885679657	15104486.310429059
0.8490382950901076	15132769.100481218
0.8492505546638802	15334852.68189607
0.8494628673025462	15206327.371772332
0.8496752330193721	15484759.448234258
0.8498876518276269	15394246.359701604
0.8501001237405839	15110071.17309403
0.8503126487715191	15180026.378609713
0.850525226933712	15130133.714531591
0.8507378582404455	14757903.996150143
0.8509505427050057	14149443.971894547
0.8511632803406821	13520805.141943842
0.8513760711607672	12040215.27417943
0.8515889151785576	9707369.782845914
0.8518018124073523	5823852.700776771
0.8520147628604541	1480363.8961889346
0.8522277665511693	1737283.1769139816
0.8524408234928071	6242443.52951312
0.8526539336986805	10170806.807376435
0.8528670971821053	12663724.52348203
0.8530803139564007	14235885.923161497
0.8532935840348901	15211689.326967767
0.8535069074308987	16108123.897907203
0.8537202841577566	16642875.486493673
0.8539337142287962	17013755.83709008
0.8541471976573534	17208875.807672583
0.8543607344567677	17172738.872868624
0.8545743246403821	17744776.376205113
0.8547879682215422	17862621.62571556
0.8550016652135977	18139965.961480454
0.8552154156299011	18236142.556217406
0.8554292194838088	18383312.24469599
0.8556430767886797	18469504.377956506
0.855856987557877	18830745.168452322
0.8560709518047664	18997157.62511493
0.8562849695427177	19225035.698816113
0.8564990407851035	19306430.2435062
0.8567131655452999	19542935.10221406
0.8569273438366862	19738548.7577541
0.8571415756726455	19790678.674656883
0.8573558610665638	19271750.294222027
0.8575702000318304	19380713.778505508
0.8577845925818384	19866909.12165597
0.857999038729984	20249234.334592395
0.8582135384896665	20439862.598896805
0.858428091874289	20403081.77557904
0.8586426988972576	20605470.60054664
0.8588573595719821	20391939.053219695
0.8590720739118751	20461863.782221343
0.8592868419303532	20727575.169667073
0.8595016636408359	20828194.66831317
0.8597165390567462	20993772.04920507
0.8599314681915105	20962644.81893581
0.8601464510585584	20837347.382233657
0.860361487671323	21320137.79592431
0.8605765780432408	21350231.8736326
0.8607917221877518	21415491.898979347
0.8610069201182988	20837964.547303062
0.8612221718483286	18442482.378157657
0.8614374773912907	11219347.02471153
0.8616528367606385	13764811.790100176
0.8618682499698288	10780086.330093704
0.8620837170323213	10722755.455983048
0.8622992379615795	12754892.993226083
0.8625148127710699	12862485.292877337
0.8627304414742627	10362816.489625048
0.8629461240846313	16306323.136178073
0.8631618606156526	11091481.869635798
0.8633776510808066	10067101.672159167
0.8635934954935769	10846003.641080504
0.8638093938674504	11795139.169017222
0.8640253462159173	12933119.603457756
0.8642413525524714	11695023.268916441
0.8644574128906095	13974393.035868324
0.8646735272438323	14485724.497244949
0.8648896956256433	10662096.429241814
0.8651059180495498	15047730.581305532
0.8653221945290621	13352320.325322904
0.8655385250776946	18929218.28399008
0.8657549097089641	15515524.871763514
0.8659713484363913	15288497.101010263
0.8661878412735006	16120858.176243618
0.866404388233819	16504293.336227408
0.8666209893308775	14326812.01182706
0.8668376445782103	20485793.232427422
0.8670543539893549	16719535.880963936
0.8672711175778525	15828402.091614764
0.8674879353572469	16079033.236842968
0.8677048073410862	17873342.193624794
0.8679217335429217	19077614.048783194
0.8681387139763074	18170513.674616273
0.8683557486548015	14689138.009753373
0.8685728375919655	13826849.520577699
0.8687899808013633	18524906.85774153
0.8690071782965637	20072438.307205793
0.869224430091138	21156979.497245986
0.8694417361986609	19161930.372782484
0.8696590966327107	14136079.142145047
0.869876511406869	15505081.563515725
0.8700939805347206	17802024.6009809
0.8703115040298544	18454972.198120084
0.870529081905862	15852512.366322208
0.8707467141763385	18527087.670627
0.8709644008548827	15417809.30123307
0.8711821419550964	14144667.786612658
0.8713999374905854	14429907.77184033
0.871617787474958	18086036.165291537
0.8718356919218269	17445810.760702465
0.8720536508448075	14004237.754325422
0.8722716642575187	16546504.97942768
0.8724897321735832	14918262.122314742
0.8727078546066265	19042652.54170864
0.8729260315702784	15482686.242129944
0.873144263078171	17770382.682198144
0.8733625491439405	18679298.960408963
0.8735808897812266	13467968.251839956
0.8737992850036719	16675423.364301115
0.874017734824923	17689189.072845094
0.8742362392586293	19127819.815404285
0.874454798318444	19627897.633859955
0.8746734120180236	19964701.79731635
0.8748920803710283	20910709.674524985
0.875110803391121	17876380.264726076
0.8753295810919689	16941283.326030977
0.875548413487242	21974733.176686496
0.8757673005906139	20945239.49202757
0.8759862424157616	22047417.414107826
0.8762052389763657	22378479.289368495
0.8764242902861098	20003999.706248425
0.8766433963586814	21488193.836334743
0.8768625572077712	17426078.769656427
0.8770817728470732	15680077.129121525
0.8773010432902849	22210713.562760666
0.8775203685511077	20641811.467763264
0.8777397486432454	26070332.887309797
0.8779591835804065	24675106.934864264
0.8781786733763015	19246264.127204705
0.8783982180446457	21051127.54267344
0.878617817599157	22930874.128428813
0.8788374720535569	17923470.623352665
0.8790571814215703	20187188.43088697
0.8792769457169257	21008019.78787525
0.879496764953355	21315113.37666716
0.8797166391445934	27973778.857795715
0.8799365683043796	27074830.636715338
0.8801565524464557	21854209.010512106
0.8803765915845676	18748856.779816806
0.8805966857324639	21983770.472988896
0.880816834903897	19319211.938608274
0.881037039112623	23911371.582469646
0.8812572983724012	23398438.63096116
0.8814776126969944	22219285.00575123
0.8816979821001687	25115637.441378076
0.8819184065956938	30103248.048126504
0.8821388861973429	27079418.501218908
0.8823594209188923	22297199.06281384
0.882580010774122	22393713.686585285
0.8828006557768155	23341361.99853594
0.8830213559407598	20953914.502588592
0.8832421112797452	30484212.0288509
0.8834629218075651	23081738.692392733
0.8836837875380171	22256286.606145095
0.8839047084849018	27439778.449771218
0.884125684662023	31759364.923280332
0.8843467160831886	31753819.38717196
0.8845678027622095	29688027.98001937
0.8847889447129001	18785893.481312875
0.8850101419490785	22524679.890712578
0.8852313944845657	25167008.3395174
0.885452702333187	34586222.71378981
0.8856740655087704	29804502.20651126
0.8858954840251476	21975747.670018815
0.8861169578961539	22969663.19601544
0.886338487135628	33669777.85719733
0.886560071757412	32097188.714471202
0.8867817117753515	31725978.066804405
0.8870034072032955	27623611.894785173
0.8872251580550963	19659776.409272477
0.8874469643446101	22962132.997714136
0.8876688260856963	24686826.26148686
0.8878907432922178	32752680.17720353
0.8881127159780409	35453796.14800124
0.8883347441570356	31778363.82808355
0.8885568278430749	19438524.391894843
0.8887789670500358	28783955.975467943
0.8890011617917983	32105747.63452382
0.8892234120822464	36242629.253557
0.8894457179352669	33466958.69142704
0.8896680793647509	24482065.211384013
0.8898904963845921	20237935.227829218
0.8901129690086883	29319558.051371507
0.8903354972509405	37147634.02633016
0.8905580811252535	36037680.6056298
0.8907807206455347	32478784.235252548
0.8910034158256963	29504063.081356555
0.8912261666796527	23140590.607589707
0.8914489732213227	32144142.505408723
0.8916718354646282	37103842.30348454
0.8918947534234944	29182639.012504827
0.8921177271118502	25379474.858928766
0.8923407565436284	31555526.25717758
0.8925638417327644	21813824.652173057
0.8927869826931977	29394706.883541405
0.8930101794388711	28787244.3432596
0.8932334319837308	29185915.333731346
0.8934567403417267	30942775.472469572
0.8936801045268123	24547212.372592967
0.8939035245529441	15458224.414374474
0.8941270004340824	7087410.88775577
0.894350532184191	1702268.6686367274
0.8945741198172371	8433655.476381067
0.8947977633471915	17071577.02005276
0.8950214627880284	25613407.190674763
0.8952452181537254	27153751.82260708
0.8954690294582639	20984293.91508583
0.8956928967156286	30772984.781057417
0.8959168199398075	36791655.04115011
0.8961407991447926	39532258.25855646
0.8963648343445789	39136694.32309391
0.896588925553165	31209053.942793388
0.8968130727845534	25978020.604412053
0.8970372760527496	28601843.34888412
0.8972615353717629	35591574.3312001
0.8974858507556059	33889201.66405237
0.8977102222182949	37220715.02194542
0.8979346497738496	41888231.25874749
0.8981591334362931	36463221.27505442
0.8983836732196523	28448935.12658539
0.8986082691379572	37908722.78870679
0.8988329212052417	43141952.04439908
0.8990576294355432	39819485.135177
0.8992823938429022	41730247.421491176
0.8995072144413631	43525113.015998386
0.8997320912449734	35485087.03860825
0.8999570242677847	34879674.08501648
0.9001820135238516	30560185.749837555
0.9004070590272328	41339438.61391817
0.9006321607919896	45583492.11518344
0.9008573188321878	46752885.84461241
0.9010825331618959	43516339.47043682
0.9013078037951865	36469022.7959032
0.9015331307461353	38395730.67435597
0.9017585140288219	38253528.42390807
0.9019839536573292	47717993.62256805
0.9022094496457435	48613368.5265833
0.9024350020081551	46844195.20007682
0.9026606107586572	47366688.12394709
0.902886275911347	32893570.835732635
0.9031119974803249	34378499.28360713
0.9033377754796951	40983144.997140184
0.903563609923565	46537938.635590374
0.903789500826046	54928193.11771131
0.9040154482012526	55709857.88276992
0.904241452063303	46569070.52868511
0.9044675124263188	40203684.419910304
0.9046936293044254	43810069.43240581
0.9049198027117517	44841652.488143355
0.9051460326624297	51731067.16499793
0.9053723191705955	53104687.93794169
0.9055986622503881	46714236.641254395
0.9058250619159507	49213169.8594887
0.9060515181814298	40429319.17148069
0.9062780310609752	45553527.72539628
0.9065046005687405	47750985.70198658
0.906731226718883	47311023.255591795
0.9069579095255627	53806865.41853668
0.907184649002944	47559875.401191235
0.907411445165195	50540688.45587912
0.9076382980264862	47120467.724862546
0.907865207600993	47926027.897072725
0.9080921739028933	50241038.38733803
0.9083191969463691	43359583.862453915
0.9085462767456058	50441902.907596305
0.9087734133147922	55570154.80975793
0.9090006066681211	51433817.56172137
0.909227856819788	51176028.515316665
0.9094551637839932	50739805.98613048
0.9096825275749393	54616389.58331317
0.9099099482068329	50706315.38606989
0.9101374256938848	52454700.41911954
0.9103649600503083	51924384.21928925
0.9105925512903209	63358640.06120082
0.9108201994281437	50184615.77879181
0.9110479044780008	47922313.408253014
0.9112756664541204	55442620.903101705
0.911503485370734	55337904.81628253
0.9117313612420768	61417459.119861886
0.9119592940823873	49665668.714127384
0.912187283905908	60875312.62044929
0.9124153307268845	60738017.580709934
0.9126434345595664	61918680.992784075
0.9128715954182063	53966753.497287765
0.9130998133170609	52285349.75633949
0.9133280882703902	53418218.79203222
0.913556420292458	61963954.78414771
0.9137848093975312	58644168.049029484
0.9140132555998806	54106965.07239412
0.9142417589137806	59307610.0421537
