#wavelength	surface flux
0.676892	70179.10608354387
0.678297	74231.77304611733
0.679702	78115.19255337703
0.681109	81839.44210575463
0.682517	85267.36053997547
0.683926	88567.2969231755
0.685337	91590.29885672797
0.686749	94201.91193526486
0.688164	96413.43351970725
0.689581	98117.3986652288
0.691	98705.82024199968
0.692422	97996.35541773199
0.693847	99015.92230382093
0.695274	99848.85141302607
0.696705	100056.08751268996
0.698139	99919.6087990444
0.699576	98557.2869325938
0.701017	96893.39359947316
0.702461	94503.98174363404
0.70391	92812.14053957122
0.705362	89964.43565958238
0.706819	87116.85289747242
0.70828	84143.72313752079
0.709745	80237.05741657614
0.711216	76416.10940198618
0.71269	72612.16475607015
0.71417	68762.00461432288
0.715655	62801.923586693316
0.717145	56790.28745312914
0.71864	52107.57205934718
0.72014	49338.724614380386
0.721647	46314.06016982151
0.723158	44219.036660800084
0.724676	40077.04997381002
0.726199	35967.09157310759
0.727728	31171.11141860589
0.729264	30085.416757521656
0.730805	26808.091558497803
0.732353	25642.253667194094
0.733907	23223.732818487417
0.735468	19979.259403040945
0.737035	18924.39354174808
0.738609	16956.7370056083
0.74019	15231.999017858436
0.741777	13590.532383088055
0.743372	12198.16714078698
0.744973	10837.31673681291
0.746582	9575.904558777253
0.748197	8420.784866122345
0.74982	7489.03271309667
0.751451	6600.994966895396
0.753088	5809.386047369076
0.754734	5097.859077146455
0.756386	4436.477846344483
0.758047	3796.5470966485727
0.759715	3151.0497682795526
0.76139	2504.139728985752
0.763074	1882.9704555757094
0.764765	1111.777111745522
0.766464	358.5662127601463
0.768172	776.3194436147007
0.769887	537.5947413765632
0.77161	1607.1702472852096
0.773341	2720.8035795265287
0.775081	3783.4483998422834
0.776829	4937.286060357235
0.778585	5702.651921950684
0.780349	5735.653002166458
0.782121	8909.690275708354
0.783902	10888.34042514691
0.785691	13033.088913385565
0.787489	15618.13313802268
0.789295	18588.52892591182
0.79111	21914.11337855735
0.792933	23456.653825375863
0.794764	17218.067338805668
0.796604	32414.92401638258
0.798453	41628.483923159736
0.80031	49295.61022391882
0.802176	57462.58777375288
0.804051	67302.81198773146
0.805934	77317.33865902177
0.807826	88924.42356784722
0.809727	101091.84975158969
0.811636	113017.59413027552
0.813554	122996.20240288589
0.81548	143923.8019131004
0.817416	167047.38473172666
0.81936	183864.14276626805
0.821313	214103.95260514118
0.823274	236054.6279156137
0.825244	261325.06117809084
0.827223	301281.2576683218
0.829211	327463.7479818213
0.831208	352212.8864413626
0.833213	407065.709753984
0.835227	443263.508691021
0.837249	464619.3724281046
0.83928	533718.9554347309
0.841321	592578.056590447
0.843369	649138.121739844
0.845427	700501.1010256775
0.847493	787130.6953687507
0.849567	802955.4662880495
0.851651	577001.2421389812
0.853742	892971.9181362689
0.855843	1081489.6426668833
0.857952	1177837.39943605
0.86007	1265377.8253355264
0.862196	1227244.9615905301
0.864331	1327806.2445302673
0.866474	1459084.3258783547
0.868626	1573382.675230165
0.870786	1637961.4037038025
0.872955	1750993.4977046633
0.875132	1792561.8758113948
0.877317	2051362.8868467356
0.879511	2164265.656816752
0.881713	1977318.1065751282
0.883923	1936444.5790288216
0.886142	2079860.41927993
0.888369	1953636.3460675753
0.890604	2153869.9209818603
0.892847	1738409.8830834175
0.895099	1479792.764513762
0.897358	2399480.448152353
0.899626	2794528.6885170755
0.901901	3283818.6859040395
0.904185	3918480.8752347226
0.906476	4137706.352706047
0.908776	3576107.218891769
0.911083	4145334.9585003727
0.913398	4014223.0059642317
0.915721	4617754.526547924
0.918051	4567685.494196995
0.92039	5155614.5438117115
0.922736	5078516.784934765
0.925089	4327107.072470604
0.927451	2841299.9530073893
0.929819	1714668.4836499346
0.932195	1427584.0754150564
0.934579	1551426.1812706941
0.93697	3742360.925778675
0.939369	4552228.198315935
0.941774	4170069.939998543
0.944187	3468242.9193205526
0.946607	4334331.315220191
0.949035	4884400.830580628
0.951469	2983070.6643385533
0.953911	3708543.8301884034
0.956359	2930766.7070096787
0.958814	4367440.928556121
0.961277	2659798.5926185055
0.963746	3403246.5497216047
0.966222	4594845.846097213
0.968705	5518152.104066928
0.971194	6159895.512629365
0.97369	5483973.22309078
0.976193	7245457.403401112
0.978702	6817730.883331785
0.981217	7061691.207748879
0.983739	5840963.888295471
0.986268	7657072.682618249
0.988802	8167219.600544379
0.991343	8074004.584855467
0.99389	9480232.33971495
0.996444	10078167.793107377
0.999003	7875411.926005815
1.00157	9014737.4999114
1.00414	10326342.108424649
1.00672	11350400.995870078
1.0093	11510950.867240362
1.01189	12392340.169902854
1.01448	13984643.566001944
1.01708	14875842.950859532
1.01969	16347487.910336653
1.0223	16760041.855841178
1.02492	17245753.260279495
1.02754	18059405.998129208
1.03017	19865478.102227233
1.0328	19787556.118641276
1.03544	20660535.599591188
1.03808	23571550.62819447
1.04073	22917251.360153574
1.04339	23829937.70497152
1.04604	23714465.803107433
1.04871	24528216.819941245
1.05138	25382826.7758064
1.05405	27158781.807871338
1.05673	26868215.65976664
1.05941	28990833.270358074
1.0621	28705168.684713006
1.06479	29477245.50806302
1.06749	29960422.156527027
1.07019	31423927.58720317
1.07289	31091013.125123154
1.0756	31414668.16535921
1.07832	30522715.390489075
1.08104	31341302.246306084
1.08376	31493728.19351985
1.08649	27953738.351967346
1.08922	22308056.456057962
1.09195	18529719.89851742
1.09469	15234637.983161753
1.09743	12140977.935200265
1.10018	9367444.988231868
1.10293	6711216.53060334
1.10568	4621836.767522878
1.10844	5676203.944237432
1.1112	3805988.796049029
1.11396	3170483.104199775
1.11673	2396805.137972627
1.1195	3342263.736909172
1.12228	2373285.5832938333
1.12505	3786281.297871144
1.12783	4626214.536267771
1.13062	4610037.19000222
1.13341	1488377.3649338626
1.1362	2003813.8183070116
1.13899	4128304.745247473
1.14178	5929787.8143082755
1.14458	3820524.4794463175
1.14738	3532428.2926805574
1.15019	6254489.887124586
1.153	4195940.736202768
1.1558	3147924.219740365
1.15862	5073504.586921327
1.16143	2661710.9641023916
1.16425	1948612.6930759733
1.16707	3207817.3106357823
1.16989	4098627.545429307
1.17271	6117363.477320302
1.17554	6128687.206553584
1.17837	4387206.380609667
1.1812	10024173.091374
1.18403	10813217.937523605
1.18686	9679336.672648149
1.1897	11835003.952103032
1.19253	13153238.312408723
1.19537	15533813.60173742
1.19822	15924386.824457798
1.20106	17592318.679575443
1.2039	19357182.093094498
1.20675	22653576.151897628
1.2096	24449612.936066527
1.21245	25056545.720347397
1.2153	26756117.97774399
1.21815	26557543.395098854
1.221	28917998.05174612
1.22385	31031494.95097134
1.22671	32549925.215090007
1.22957	35983864.47582582
1.23242	36453536.79705999
1.23528	36066345.4790753
1.23814	37293247.22774193
1.241	36717378.72108659
1.24387	32489657.08421906
1.24673	39967674.17486368
1.24959	35967743.5758717
1.25245	26794235.46556334
1.25532	40784121.39228057
1.25818	44988839.61467853
1.26105	46979176.93562262
1.26392	40596540.12775905
1.26678	43364112.175751254
1.26965	38819827.64609934
1.27252	43566743.29977528
1.27538	44924215.020954505
1.27825	42369946.1939706
1.28112	41162586.94848
1.28399	31170485.653386258
1.28686	31549395.67755288
1.28973	30777451.660750326
1.2926	30425074.165914353
1.29546	24926964.129938163
1.29833	22854071.38560272
1.3012	28296535.968668293
1.30407	29480789.156739425
1.30694	24037612.644457657
1.30981	25279268.959557652
1.31267	25115103.929888725
1.31554	19305854.378089577
1.31841	17524577.90912101
1.32128	22980908.512813225
1.32414	14810520.530416941
1.32701	9057809.278055636
1.32987	5491051.410922136
1.33274	4038375.528495619
1.3356	3069417.3930004085
1.33847	651974.7732737345
1.34133	526342.3228101109
1.34419	724298.8164030553
1.34705	488606.8998364601
1.34991	649122.9548676162
1.35277	685951.4830310408
1.35563	254715.63593012598
1.35849	223591.2068218146
1.36135	320111.5430414068
1.3642	578884.5066541313
1.36706	484226.40925606946
1.36991	437344.9399122793
1.37277	487005.4963846246
1.37562	442201.9851368294
1.37847	352097.9218357371
1.38132	476295.62635029707
1.38417	195674.4429233254
1.38701	63249.935127315206
1.38986	383587.0976580935
1.39271	601886.2783013453
1.39555	275576.1204025377
1.39839	397912.2806425186
1.40123	568967.376412482
1.40407	552901.0732172254
1.40691	433594.4109426591
1.40974	307861.23928860016
1.41258	566629.0621844212
1.41541	673606.0000674205
1.41824	297102.4139296776
1.42107	153256.0283842338
1.4239	175416.31980453967
1.42673	727075.8924558087
1.42955	1058175.533643102
1.43237	653046.8545494138
1.43519	1099066.8870837952
1.43801	1187104.8915143253
1.44083	1017182.0233714423
1.44365	1185779.4211745537
1.44646	1001366.0418854749
1.44927	1525087.154946186
1.45208	2526343.403160224
1.45489	1823077.9108580588
1.45769	2832888.0364085576
1.4605	2463460.848578043
1.4633	1641888.151506331
1.4661	2851989.685774196
1.4689	2643204.375636857
1.47169	2394293.8165015625
1.47449	2158706.0632999823
1.47728	2245618.8469772604
1.48007	2192920.7273517773
1.48286	2694037.064392438
1.48564	2652326.082594579
1.48842	2923955.6844011834
1.4912	3259090.3030446884
1.49398	2424516.943067866
1.49676	3276372.2685060073
1.49953	3951863.6612007725
1.5023	5412948.813490213
1.50507	6326957.196431712
1.50784	5587883.486663745
1.51061	6327920.800413798
1.51337	6339340.529850464
1.51613	4739851.882120844
1.51888	4162553.663673571
1.52164	5726059.764561794
1.52439	7322242.127078665
1.52714	6282392.434080588
1.52989	7070669.115609814
1.53263	8662912.884290887
1.53538	10466956.40471572
1.53812	9821492.617561124
1.54086	7404477.024346419
1.54359	7863216.8833543705
1.54632	10602177.563361157
1.54905	10650186.109084614
1.55178	9886399.55258652
1.5545	10786012.379306398
1.55723	12667520.071475578
1.55995	14175445.032675812
1.56266	12509976.99225492
1.56538	16561806.296822239
1.56809	19866930.024010215
1.5708	18431213.28414988
1.57351	17794248.01794882
1.57621	18193096.3422562
1.57891	17911538.61874636
1.58161	20021849.052252065
1.5843	19476622.415857464
1.587	19222396.336181432
1.58969	17867950.09200454
1.59238	16142058.798823515
1.59506	18318100.244057287
1.59774	19323898.33381268
1.60042	17125552.0649733
1.6031	14819245.469905335
1.60577	13470606.862147108
1.60844	11779066.736673174
1.61111	11689690.765228286
1.61378	10402089.653364282
1.61644	9620719.801569317
1.6191	8497224.28765991
1.62176	9919771.226424672
1.62441	10282509.646560203
1.62707	10439281.75926463
1.62971	10385440.14417627
1.63236	10081716.114689458
1.635	12724105.298956206
1.63764	14209455.52854003
1.64028	11291635.540559847
1.64292	10766618.711869998
1.64555	8439700.911036253
1.64818	7660261.348835318
1.65081	11568980.043042196
1.65343	12384099.082371904
1.65605	8268938.404853625
1.65867	8091147.077637818
1.66128	12242479.69752353
1.6639	9671138.550317297
1.66651	2454263.670583339
1.66911	855648.9556141429
1.67172	3356379.075892174
1.67432	6112338.930065179
1.67692	8219266.218549749
1.67951	6976341.293229531
1.68211	5326265.776520273
1.6847	3562252.2211514986
1.68728	3335678.4610048705
1.68987	3260586.950196761
1.69245	2592591.502005525
1.69503	2480472.726092518
1.6976	2331165.1603982695
1.70018	2425503.7814261285
1.70275	1760488.5843461568
1.70531	1852854.3538186613
1.70788	3035316.270902537
1.71044	4560213.8551862985
1.713	6331645.969856291
1.71556	6780154.800012195
1.71811	6630211.825905529
1.72066	5075530.212600048
1.72321	2961163.5414516083
1.72575	4406727.360198685
1.7283	5621537.462095007
1.73084	5687386.559083624
1.73337	3935475.243454666
1.73591	3363175.9170109592
1.73844	4239154.118092593
1.74097	4051836.979340079
1.74349	3986506.308458344
1.74602	4901947.653446362
1.74854	6261377.034545542
1.75105	6307727.586026615
1.75357	4561220.9668694595
1.75608	2580836.0353818187
1.75859	2332696.958008706
1.7611	2263263.8943506004
1.7636	2576758.490982485
1.7661	2681455.414715221
1.7686	2339624.1893571564
1.7711	2825393.039578642
1.77359	2371108.0737701375
1.77608	1616245.646875646
1.77857	2288729.5335699953
1.78105	2939604.2057886873
1.78354	2049148.8556610192
1.78602	1613659.2756899032
1.78849	2009017.2614861769
1.79097	1762372.9125665233
1.79344	1508090.1662938367
1.79591	1872523.5312734048
1.79837	2732815.6532799006
1.80084	1830552.1754620518
1.8033	1442627.853889106
1.80576	1482647.8786248972
1.80821	1537169.1961756847
1.81067	1572349.672966166
1.81312	1983502.119669639
1.81557	2093291.3820282314
1.81801	1279719.7162899084
1.82046	1045245.9942671433
1.8229	1458843.7150444435
1.82533	1277086.9694035267
1.82777	1003228.5774910806
1.8302	1114695.271122566
1.83263	1099692.0603646492
1.83506	954584.8650742385
1.83749	929110.072553999
1.83991	1099296.3765177228
1.84233	1462112.8297221204
1.84475	1968053.3404889225
1.84716	1499249.667597554
1.84957	1551859.992588369
1.85198	2011507.611645459
1.85439	1546232.324443296
1.8568	892419.2771235596
1.8592	556113.3870474794
1.8616	697170.9329843102
1.864	797929.5599625907
1.86639	616750.7021951361
1.86878	470153.38488222467
1.87118	757981.7373168503
1.87356	888129.0839770586
1.87595	1070306.547337792
1.87833	2128235.2702641333
1.88071	2735391.100598297
1.88309	2199967.0379353445
1.88547	1928227.0113804862
1.88784	2342577.985033788
1.89021	2521833.3658140437
1.89258	2954581.492458536
1.89494	3739221.740764078
1.89731	3236338.4554386847
1.89967	2079741.9866965576
1.90203	2015525.3170830458
1.90439	1980498.5975208497
1.90674	2454664.276269674
1.90909	2421823.7316962085
1.91144	1156123.0068872229
1.91379	1034846.5251148106
1.91613	2007112.9712748064
1.91848	2369275.9928686824
1.92082	1612866.257623727
1.92315	1301288.0758368801
1.92549	1506206.6592487874
1.92782	1496192.849452424
1.93015	1108465.5721831769
1.93248	746024.132977692
1.93481	680641.5558241453
1.93713	642769.9760529503
1.93945	661968.920152806
1.94177	1285206.2068272973
1.94409	1604674.8058124895
1.94641	1452845.4964206556
1.94872	1418232.5451298882
1.95103	1737269.3313709009
1.95334	1752534.6610236114
1.95564	1350783.957882969
1.95795	1288302.2849030315
1.96025	1080185.5391364708
1.96255	984093.0264939956
1.96484	1593319.744682374
1.96714	2107433.515100836
1.96943	2045226.352544553
1.97172	2210211.424355651
1.97401	2208464.081964336
1.97629	2097325.7446190803
1.97858	2194865.616559627
1.98086	1789225.0358470927
1.98314	1325970.5097083196
1.98541	1865818.5043096084
1.98769	2779514.7135944786
1.98996	2645743.778416724
1.99223	2360538.5947326743
1.9945	2954459.0059521585
1.99677	3358925.2725785663
1.99903	3231444.2224881374
2.00129	3119967.294361715
2.00355	3015621.635729521
2.00581	3194035.564632031
2.00806	3477455.765330752
2.01031	3783687.43510795
2.01256	4630804.597039477
2.01481	4968092.233269889
2.01706	4327375.611122921
2.0193	4193408.2821729183
2.02154	4864811.278896947
2.02378	5285301.457729398
2.02602	4824150.49420989
2.02825	4327468.4680669885
2.03049	4569509.311011532
2.03272	5277163.928817915
2.03494	5668501.088857152
2.03717	5460249.588243541
2.03939	5327651.962674167
2.04162	6366786.515580043
2.04384	7446180.643994546
2.04605	7663950.1622619815
2.04827	7126049.1983044185
2.05048	6912255.205668145
2.05269	6887653.342027776
2.0549	6340030.583156846
2.05711	6663133.126975715
2.05931	7073785.506057595
2.06151	7269318.406757854
2.06371	7584593.787624226
2.06591	7460875.549474014
2.06811	7534913.748513414
2.0703	8195480.610263747
2.07249	8878688.681454282
2.07468	9015389.160579497
2.07686	8851941.319175705
2.07905	8802550.033714665
2.08123	8716401.670357738
2.08341	8704103.361011242
2.08559	8752460.097452598
2.08776	8916125.23650827
2.08994	9068815.338125108
2.09211	8897146.097568303
2.09428	8896321.972660288
2.09645	9123829.797687348
2.09861	8875571.770566834
2.10077	8330400.73254521
2.10293	8233865.957987782
2.10509	8586120.692956071
2.10725	8679073.4721646
2.1094	8012745.694763143
2.11155	7002535.866441479
2.1137	6754693.475332184
2.11585	7035161.105488186
2.11799	7406158.5057234205
2.12013	7862081.2090563355
2.12227	7923262.294668458
2.12441	7877285.805144212
2.12655	7787015.477497846
2.12868	7496345.3708667895
2.13081	7321829.168438547
2.13294	7117404.316868301
2.13507	6511175.256919645
2.13719	6145577.197930768
2.13931	6581219.852028227
2.14143	6885718.590550344
2.14355	6392040.386771718
2.14567	5627076.736228569
2.14778	4854841.423754309
2.14989	4467630.70788068
2.152	4626315.112952837
2.1541	4663702.831353971
2.15621	4476528.692744527
2.15831	4101918.5042426107
2.16041	3350219.63629872
2.16251	2955050.3728915164
2.1646	3188010.2208471964
2.1667	3496051.72218376
2.16879	3823286.584993939
2.17087	4182809.6781533565
2.17296	4197321.560749724
2.17504	4135644.9426837484
2.17713	4236874.893750594
2.1792	4000387.9975489224
2.18128	3295452.0521815084
2.18336	2607320.679171847
2.18543	2460405.946886636
2.1875	2499580.8503225953
2.18957	2280800.676861826
2.19163	2072343.66446038
2.1937	2018134.7278893061
2.19576	1754663.1004194666
2.19782	1188627.0528947904
2.19987	648044.212885752
2.20193	433244.5303825203
2.20398	447269.1904052231
2.20603	479610.6989328126
2.20808	518004.9762590833
2.21012	543902.5866320899
2.21217	562234.589808129
2.21421	688632.7328938871
2.21625	832054.1337050286
2.21828	855874.5124148866
2.22032	856994.0894828675
2.22235	908973.68841017
2.22438	939277.7870455413
2.22641	836310.7843122297
2.22843	748340.4991244223
2.23046	662091.5809591361
2.23248	492740.3466701049
2.2345	346750.7345880701
2.23651	280451.07538832264
2.23853	292918.6505164997
2.24054	384443.4766584435
2.24255	493469.5656105074
2.24456	570148.7219165383
2.24657	590052.1321142552
2.24857	546221.8470704801
2.25057	452862.0699614695
2.25257	335524.20995440177
2.25457	247819.6938885986
2.25656	230473.1104739824
2.25856	254649.04694052014
2.26055	261980.6798523946
2.26254	238360.61658161914
2.26453	236634.8185302503
2.26651	276353.71390496806
2.2685	294632.41105567646
2.27048	283657.8869663926
2.27246	307067.8429776541
2.27443	319592.1018636896
2.27641	326616.12497618434
2.27838	366049.864327611
2.28036	378837.39468617743
2.28233	333263.4718099779
2.28429	279428.323450897
2.28626	234140.50243589876
2.28823	191068.8311839776
2.29019	154606.23725843985
2.29215	132554.8765374921
2.29411	139138.17463297263
2.29607	167780.28179449477
2.29802	211524.21989925214
2.29998	276025.98720238334
2.30193	370739.5295269463
2.30388	457885.41415653424
2.30583	498796.35975614155
2.30778	541768.61329003
2.30972	654933.5852374495
2.31167	796160.2767429065
2.31361	751471.3915342228
2.31555	510225.9998255452
2.31749	250350.3224168556
2.31943	156268.18765655084
2.32137	140983.76700886848
2.32331	132093.53415280764
2.32524	115004.310911454
2.32718	95987.50263241872
2.32911	82653.46867749482
2.33104	81302.88731935305
2.33297	103710.94945354988
2.3349	161497.6903778616
2.33683	239747.52136483128
2.33876	282455.14976301504
2.34068	285295.9626177995
2.34261	274564.20411895995
2.34453	275735.37855971104
2.34646	302361.2986501796
2.34838	343722.11177378014
2.3503	352750.2935452384
2.35223	349097.55171348376
2.35415	327529.3429431651
2.35607	296101.2599050823
2.35799	331567.89296081354
2.35991	413750.39402926207
2.36183	480514.8614813202
2.36375	513607.678646062
2.36566	533820.7218957621
2.36758	475919.7248279563
2.3695	383612.68655042315
2.37142	326691.76903776877
2.37334	317740.5208865549
2.37526	287766.785670762
2.37718	242987.73317703532
2.3791	221507.9015305638
2.38101	222283.02977540498
2.38293	239549.56716012312
2.38485	278122.1010529293
2.38677	359443.1335841497
2.3887	435639.11293851177
2.39062	447152.10181061504
2.39254	437992.93141005025
2.39446	465927.19245317765
2.39639	499080.03312519443
2.39831	501446.04245923593
2.40024	543701.49473498
2.40216	616730.6843524084
2.40409	696562.300414505
2.40602	668062.1919135056
2.40795	588703.5088857007
2.40989	600175.0653005039
2.41182	714286.9248501232
2.41376	788531.7496201327
2.4157	852750.1183149383
2.41764	888063.3317928246
2.41958	874757.1615868777
2.42152	809012.8381959478
2.42347	762680.1612824493
2.42542	767377.0912395157
2.42737	884746.7181805419
2.42932	1018595.6746161534
