#wavelength	surface flux
0.6450077295303345	308.83101614040953
0.6472567915916443	341.11242211954067
0.6494921445846558	379.4322999914845
0.6517150402069092	416.75602557243536
0.6539263725280762	457.1743372384876
0.6561272740364075	495.7553582114346
0.6583186388015747	538.541442279841
0.6605015397071838	584.1278813036882
0.6626768708229065	630.8990670896605
0.6648455858230591	680.6815733777023
0.6670085787773132	729.9824085038332
0.6691668033599854	764.7389908774535
0.6713210344314575	732.4874440666204
0.6734722256660461	884.4112608804188
0.6756211519241333	939.7254416632574
0.6777685880661011	991.273286814433
0.6799154281616211	1041.7616605194316
0.6820623278617859	1089.957387433059
0.6842101216316223	1136.6137318246415
0.6863595843315125	1179.8821487093746
0.688511312007904	1219.2405478025769
0.6906660795211792	1244.480003006529
0.6928245425224304	1243.8885809789695
0.6949873566627502	1284.74289057796
0.6971551775932312	1333.6370466956341
0.6993286609649658	1348.5943314879237
0.7015084028244019	1360.8268081186902
0.7036949396133423	1383.8916766452699
0.7058889269828796	1395.657237156303
0.7080909013748169	1407.302276197379
0.710301399230957	1404.8566321450871
0.712520956993103	1398.951794942052
0.7147500514984131	1393.9439835742762
0.7169892191886902	1277.5029185555973
0.7192389369010925	1245.324207265497
0.7214996814727783	1280.2227648745761
0.723771870136261	1254.3778074119764
0.7260559797286987	1201.233254883259
0.7283523678779602	1180.1460855631772
0.7306615710258484	1134.2288299032657
0.7329838871955872	1201.6185820724934
0.7353196740150452	1166.9641917453018
0.7376693487167358	1160.462963739363
0.7400332689285278	1143.9502623917083
0.7424117922782898	1128.0999823468233
0.7448052167892456	1104.0261566879249
0.7472138404846191	1063.4030917404707
0.7496379613876343	1021.8960207122326
0.7520779371261597	969.2407249213882
0.7545340061187744	903.7079154374323
0.7570064663887024	821.7682789363477
0.7594954967498779	710.9009164919266
0.7620013952255249	571.3288560822153
0.7645244002342224	351.4830566864841
0.7670646905899048	152.96904268856693
0.7696225643157959	179.3766176447869
0.7721980810165405	550.7432882884016
0.7747915983200073	847.4713782764509
0.7774031162261963	1084.0346279175014
0.7800329327583313	924.63918650638
0.7826811671257019	1562.220360226738
0.7853479981422424	1849.4187435122894
0.7880334854125977	2128.6161229495547
0.7907378077507019	2412.264929879587
0.7934610247612	2356.029241791785
0.7962033748626709	2719.385025738937
0.7989648580551147	3420.056061597582
0.801745593547821	3850.852898522028
0.8045456409454346	4302.811189624855
0.8073651194572449	4770.757902411713
0.8102040886878967	5142.363639181771
0.8130625486373901	5306.730763386686
0.8159406185150146	6046.306383433168
0.8188382983207703	6810.866686420675
0.8217556476593018	7720.985718151991
0.8246926665306091	8287.401966269837
0.8276493549346924	9429.089501831482
0.8306257724761963	9834.78215819933
0.8336219191551208	10983.768178312166
0.8366377949714661	11919.426126703473
0.8396733403205872	13292.800421167854
0.8427285552024841	14525.90782834219
0.8458034992218018	15794.145251352293
0.8488980531692505	17296.819348873516
0.8520121574401855	16976.425212305865
0.8551458716392517	20283.72697800744
0.8582990765571594	21874.585401161643
0.8614717125892639	23291.930567493393
0.8646637797355652	24899.59758646264
0.8678751587867737	26895.408233930222
0.8711057901382446	28869.62514232694
0.8743556141853333	30714.567427513008
0.87762451171875	32068.724221269193
0.8809124231338501	32110.76252608196
0.8842192888259888	30749.500166543567
0.8875449895858765	29814.064839087427
0.8908893465995789	32156.156771865342
0.894252359867096	27927.614487377807
0.8976338505744934	32581.864486373586
0.9010337591171265	39512.572516771295
0.9044519662857056	49426.61761452315
0.9078882932662964	48631.30712768938
0.9113426208496094	51086.14697701252
0.914814829826355	51796.2409411927
0.9183048605918884	52715.1557226065
0.9218124747276306	60179.73746774811
0.925337553024292	54768.38863093023
0.9288799166679382	26072.945176365658
0.9324395060539246	16689.799377318286
0.9360161423683167	32350.892192035968
0.9396095871925354	52940.066267609975
0.943219780921936	40058.125643679065
0.9468464851379395	39694.277303426104
0.9504896402359009	37764.26584888073
0.9541489481925964	36102.12524390179
0.9578243494033813	43903.47376551179
0.9615156054496765	33926.57336078586
0.9652225375175476	50813.44466825183
0.9689450263977051	72474.87662196369
0.9726828336715698	72308.92405889764
0.9764357805252075	82447.4097333783
0.9802037477493286	86142.64397649132
0.983986496925354	86812.68822699938
0.9877838492393494	96707.2711021038
0.9915955662727356	107510.91729678746
0.9954215884208679	118735.60105772981
0.9992615580558777	127846.81810172446
1.0031154155731201	141623.3645775247
1.0069829225540161	149446.82986603965
1.0108637809753418	148025.28853833216
1.0147579908370972	145434.02131502068
1.018665075302124	140990.765031772
1.022585153579712	144744.7388405912
1.0265177488327026	152083.181323315
1.0304628610610962	157164.28240062593
1.0344202518463135	150774.80067797776
1.0383895635604858	166565.55901029008
1.0423706769943237	176933.15267671453
1.0463634729385376	190385.55254640972
1.0503677129745483	197750.90825946827
1.0543830394744873	210240.9903625615
1.058409333229065	220276.8892993018
1.0624464750289917	227571.7103378473
1.0664942264556885	231093.1320060842
1.0705522298812866	231775.6736510415
1.0746204853057861	234242.12482984818
1.0786986351013184	233390.6752699716
1.0827864408493042	239491.97143961914
1.086883783340454	233351.2046392436
1.0909905433654785	224137.94021393984
1.0951062440872192	209805.05371876914
1.0992310047149658	181857.73447432453
1.10336434841156	133777.7645307092
1.1075061559677124	98302.91041638213
1.1116561889648438	52706.26708913945
1.115814208984375	33031.95122144611
1.1199802160263062	37790.29554233377
1.124153733253479	41775.9642174298
1.1283347606658936	46473.447846427815
1.1325229406356812	46108.74105583939
1.1367181539535522	57357.182443810896
1.1409201622009277	108243.05100976619
1.145128846168518	48447.0249730224
1.1493438482284546	78296.66784404423
1.1535650491714478	47618.707489188964
1.1577922105789185	68042.27810029508
1.1620250940322876	51532.54938442717
1.1662636995315552	69416.86413747324
1.170507550239563	121567.09395132326
1.174756646156311	166008.528627089
1.1790107488632202	201923.6932625362
1.1832695007324219	233082.11978845025
1.1875330209732056	236678.1547300699
1.191800832748413	269011.2725055816
1.1960728168487549	286745.87703433365
1.2003488540649414	273070.5890661443
1.2046287059783936	316070.02307458315
1.2089121341705322	308109.8443695988
1.2131990194320679	315921.0840551948
1.2174891233444214	313850.446249248
1.2217823266983032	351296.5894782154
1.2260783910751343	383775.44207696145
1.230377197265625	441122.7637422165
1.2346785068511963	454623.3628587306
1.238982081413269	472950.82647783554
1.2432878017425537	506505.7067148574
1.2475954294204712	541701.0865334794
1.2519049644470215	548044.622386322
1.256216049194336	573804.071654997
1.2605286836624146	611594.008596957
1.2648425102233887	633992.6410333739
1.2691574096679688	646319.2315263973
1.2734732627868652	634147.1171533727
1.2777899503707886	619376.7282716995
1.2821072340011597	573828.304606653
1.2864248752593994	508336.24217602075
1.2907428741455078	494378.19801942416
1.2950609922409058	461664.16559690336
1.2993791103363037	475665.41177279345
1.303696870803833	476362.62487749214
1.3080145120620728	445105.42649653804
1.3123314380645752	423292.35970862105
1.3166478872299194	385095.71920264635
1.3209635019302368	434264.5721097171
1.3252781629562378	390448.482507685
1.3295916318893433	208746.5127670746
1.3339040279388428	189732.5733610695
1.3382149934768677	42363.63041804267
1.3425244092941284	17967.72698425082
1.3468321561813354	5820.031380445484
1.3511382341384888	3631.85691220867
1.3554422855377197	1357.2698088894865
1.3597444295883179	577.234144584488
1.3640443086624146	3044.9700108288844
1.3683418035507202	2303.456075129963
1.3726370334625244	3466.476658052537
1.3769296407699585	14569.57159391772
1.381219506263733	3234.99112225086
1.3855066299438477	594.7220740769887
1.3897908926010132	3979.623860796271
1.3940720558166504	4353.243886661558
1.3983501195907593	3487.2799430663235
1.4026249647140503	7537.98719825235
1.4068963527679443	5893.5313647888115
1.4111642837524414	5312.576704681479
1.4154287576675415	11466.605219732823
1.419689416885376	3947.9958322659777
1.4239463806152344	5319.0828506256
1.4281994104385376	17158.881815984125
1.4324485063552856	17762.38967741349
1.436693549156189	41241.791474122896
1.440934419631958	30988.086901065464
1.4451709985733032	33899.161174931665
1.449403166770935	69873.36657446674
1.453631043434143	109605.97421399163
1.4578542709350586	146813.09672925604
1.4620729684829712	96909.56658081668
1.4662868976593018	108094.3992205828
1.4704961776733398	68672.75819155626
1.4747005701065063	53561.97993047622
1.4788999557495117	43433.06048678297
1.4830944538116455	70205.7029035809
1.4872838258743286	48301.825708553464
1.491468071937561	62821.817120536274
1.4956470727920532	58471.66411471431
1.4998208284378052	118470.25988574463
1.5039892196655273	117678.36796854192
1.5081522464752197	108118.56238697573
1.5123097896575928	60965.41712938387
1.5164618492126465	63368.624870337844
1.5206083059310913	103522.52424254006
1.5247491598129272	120282.00015640692
1.5288842916488647	163075.7236349307
1.5330137014389038	201321.45357076213
1.5371372699737549	232567.59690278274
1.541254997253418	198757.23164418445
1.545366883277893	258252.28014017
1.5494728088378906	275148.09216935304
1.5535727739334106	308087.381301716
1.5576666593551636	452168.28676121717
1.561754584312439	486922.22778397414
1.5658363103866577	675183.368486015
1.5699119567871094	767953.0485676558
1.5739814043045044	789398.2965114686
1.5780447721481323	860625.544246021
1.582101821899414	928106.814030698
1.5861525535583496	957246.4739801389
1.5901970863342285	933823.4499797183
1.5942351818084717	949377.4273738364
1.5982669591903687	975580.7185127704
1.6022924184799194	887210.1733757574
1.606311559677124	787541.3996468892
1.6103241443634033	712926.133888241
1.6143304109573364	590833.5116561968
1.6183301210403442	449940.4668131461
1.6223233938217163	390722.4777708831
1.6263102293014526	327332.46622889943
1.6302905082702637	268841.56319282704
1.634264349937439	284594.50376183883
1.638231635093689	354187.56024789537
1.6421923637390137	347681.71714017866
1.646146535873413	278028.14837153524
1.6500942707061768	304191.1041419474
1.6540353298187256	348801.9707417468
1.6579699516296387	365695.4409901789
1.661897897720337	502212.1082853609
1.6658192873001099	112260.18948248307
1.6697341203689575	83086.82025512784
1.6736423969268799	293538.1366509231
1.677544116973877	311685.6868046554
1.6814392805099487	218212.806783138
1.6853278875350952	163225.22006099133
1.6892099380493164	179471.50977341496
1.6930854320526123	110399.66680377578
1.696954369544983	109592.48413596897
1.7008168697357178	86992.56812834271
1.7046726942062378	70996.85492829853
1.708522081375122	143106.49561806995
1.712364912033081	236213.98599785744
1.7162011861801147	295799.29487437266
1.7200311422348022	308128.6778641407
1.723854422569275	237776.1653679692
1.7276713848114014	294940.69195917895
1.731481909751892	285207.792609176
1.7352858781814575	261924.37498464665
1.7390835285186768	339242.1483140521
1.7428747415542603	376065.53713202785
1.7466596364974976	391659.01301273674
1.7504380941390991	430637.5482989069
1.7542102336883545	274387.9972665283
1.7579760551452637	195245.98190773078
1.7617355585098267	189913.57602538695
1.7654887437820435	178919.81112855583
1.7692357301712036	151788.0118213586
1.7729763984680176	156062.06814443794
1.776710867881775	102025.57649554021
1.7804391384124756	132460.5705446419
1.7841613292694092	80841.19234301693
1.7878772020339966	73058.43712702347
1.7915871143341064	50888.26918527126
1.7952908277511597	47621.21516613583
1.7989884614944458	74483.90821868359
1.8026801347732544	21819.97012336607
1.806365728378296	25221.55723894056
1.8100452423095703	25339.704945538833
1.8137187957763672	29742.266524116083
1.817386507987976	21759.44269147145
1.8210482597351074	18523.412614113324
1.8247040510177612	37354.90239938996
1.828354001045227	10022.236394181613
1.8319982290267944	10313.236316183571
1.8356364965438843	8416.955777045956
1.8392690420150757	7207.67533263393
1.8428958654403687	26004.51248126411
1.8465168476104736	33713.07970890348
1.8501322269439697	28884.67618019875
1.8537418842315674	29772.503202795302
1.8573459386825562	11413.025944062823
1.860944390296936	9068.840999975606
1.864537239074707	12142.413518919237
1.8681244850158691	5709.690873943695
1.871706247329712	4147.9076432327665
1.8752825260162354	13219.883683325037
1.8788533210754395	57541.04749295124
1.8824186325073242	62927.14657515273
1.8859784603118896	44453.97413995472
1.8895330429077148	51015.398743070866
1.8930821418762207	57949.90804703487
1.8966259956359863	76439.64864074731
1.9001644849777222	25638.354783496285
1.9036977291107178	20975.62142504389
1.9072256088256836	23725.740111055817
1.9107483625411987	17979.307322748857
1.9142658710479736	10604.082769043303
1.9177782535552979	22598.084539450098
1.9212853908538818	13909.244840155628
1.9247875213623047	13582.922835141297
1.9282845258712769	10688.874686715195
1.9317764043807983	7577.06222761317
1.9352631568908691	7855.037210383746
1.9387450218200684	6718.711910273195
1.942221760749817	13604.282079969153
1.9456936120986938	13062.561476743289
1.9491604566574097	8570.441871778366
1.952622413635254	13545.004785642916
1.956079363822937	19503.207534725563
1.959531545639038	24384.12695256074
1.962978720664978	20629.18014230159
1.966421127319336	41582.423007866186
1.9698586463928223	40028.82948610974
1.9732913970947266	32789.6083122839
1.9767193794250488	46505.277886029864
1.9801424741744995	41905.071405808696
1.9835609197616577	35911.117178198205
1.9869745969772339	62243.76092366125
1.990383505821228	55016.09265418548
1.9937876462936401	59800.87420983628
1.9971871376037598	88543.3061413229
2.000581979751587	91578.96300760056
2.003972291946411	82441.75147622766
2.007357597351074	82514.81901723414
2.0107386112213135	86155.99164124383
2.0141148567199707	90000.82454872847
2.017486572265625	73990.87315315829
2.0208535194396973	79296.13485212055
2.0242159366607666	101964.35413682037
2.027573823928833	83722.6837524615
2.0309269428253174	88370.10720676076
2.034275770187378	126146.42520415246
2.0376198291778564	132239.9781044714
2.040959596633911	142626.52410020528
2.044294595718384	165284.8380531958
2.0476250648498535	171574.3686015517
2.0509510040283203	182377.51690089592
2.054272413253784	197847.42567441784
2.057589530944824	198581.32256974283
2.0609018802642822	208682.91232165103
2.0642096996307373	224447.82545539984
2.0675129890441895	219379.40088516544
2.0708119869232178	230099.0475404775
2.074106216430664	244223.31368537756
2.0773961544036865	247916.5415815322
2.080681324005127	244131.3141604727
2.0839622020721436	247003.38277259233
2.087238311767578	248013.37975155166
2.090510129928589	251362.0111908174
2.0937774181365967	245605.987064907
2.0970399379730225	245255.12682442964
2.1002981662750244	243284.0798711929
2.1035518646240234	244341.98029908043
2.1068007946014404	246769.23389285692
2.1100454330444336	239680.78035108445
2.1132853031158447	235278.49401819616
2.116520881652832	236355.54270495058
2.1197516918182373	234968.64116730372
2.1229779720306396	231339.93610675688
2.12619948387146	230716.99032883128
2.1294167041778564	225579.02958592176
2.132629156112671	217874.4067703288
2.1358368396759033	206993.44482084754
2.139039993286133	211735.28010137545
2.1422386169433594	212166.50950638868
2.145432472229004	194399.05491185666
2.1486217975616455	173481.50362399506
2.151806354522705	165877.5822344209
2.1549863815307617	152217.11295189694
2.1581614017486572	144660.7453702399
2.16133189201355	121132.63057886963
2.1644976139068604	118793.6259830793
2.167658567428589	122042.65858079008
2.1708147525787354	125904.3777492312
2.173966407775879	123319.8591112651
2.1771130561828613	116840.88214256648
2.1802549362182617	93645.21997689172
2.183391809463501	76414.29558658731
2.1865241527557373	90530.18125022388
2.1896514892578125	80828.55274775327
2.1927738189697266	59222.849632047095
2.1958916187286377	44417.457912541795
2.1990041732788086	22490.604891820134
2.2021119594573975	11808.813776989977
2.2052149772644043	16562.679568225885
2.208312749862671	19762.135533638328
2.2114057540893555	16410.19346690172
2.214493751525879	21508.361418579057
2.217576742172241	27908.87958854541
2.2206547260284424	23668.59167149422
2.2237277030944824	21189.00558214377
2.2267956733703613	15748.06158622887
2.2298583984375	8047.609388931757
2.2329163551330566	10784.622021439083
2.235969066619873	11520.14237341295
2.2390167713165283	8642.132786159662
2.2420592308044434	8982.30126761186
2.2450966835021973	8593.06893835045
2.248128890991211	6116.591069124883
2.2511560916900635	5001.428882351427
2.254178285598755	3350.5325980720113
2.257194995880127	2756.061424883427
2.260206699371338	5403.976098540949
2.2632133960723877	5517.849609243202
2.266214609146118	3863.697779127935
2.2692108154296875	5785.753479348211
2.2722020149230957	10250.517448774079
2.2751877307891846	10706.179331055599
2.278168201446533	9000.595225185623
2.2811436653137207	8832.024848550103
2.284113883972168	6167.077450927611
2.287078857421875	4870.646487132044
2.290038824081421	4482.251359999632
2.2929933071136475	3796.172387931894
2.295942783355713	4264.236702198199
2.298887014389038	4628.248667194698
2.301826238632202	5124.184289756961
2.304760217666626	8503.92061714022
2.3076889514923096	18123.206174300016
2.310612440109253	32377.51379412453
2.3135311603546143	30003.46382464917
2.3164443969726562	12094.89077188911
2.319352865219116	2747.1584522982293
2.322256088256836	3158.453060020071
2.3251543045043945	3453.167396154024
2.328047275543213	2784.7074638174477
2.330935478210449	2775.821488493519
2.3338186740875244	3578.398531560449
2.3366971015930176	4113.413935926
2.3395702838897705	3902.7752207009817
2.3424389362335205	3856.700208966045
2.3453025817871094	3499.852604315846
2.348161458969116	4862.912752239049
2.351015567779541	6440.908491133357
2.353865146636963	6882.37858628246
2.3567099571228027	7854.151394214248
2.3595502376556396	14067.92083791084
2.3623859882354736	17502.592317364884
2.3652172088623047	17838.000793858533
2.368043899536133	12733.287108626138
2.370866537094116	5307.620441041981
2.3736846446990967	4454.356255270875
2.3764986991882324	7397.26507254132
2.3793084621429443	10257.842834005955
2.3821144104003906	11875.920424806854
2.384916305541992	10892.371273986495
2.387714147567749	12199.541952668582
2.3905084133148193	16832.122268194813
2.393299102783203	18549.77540361453
2.3960859775543213	18193.53243163008
2.398869514465332	20361.11510105718
2.4016497135162354	26535.146110760277
2.4044265747070312	27410.330406205594
2.407200336456299	21337.212908568927
2.409970998764038	28008.702644352896
2.4127390384674072	41893.71007108049
2.415503978729248	38152.26989273378
2.418266534805298	32955.89788357428
2.4210267066955566	36978.54365971392
2.4237842559814453	35307.287460429114
2.426539897918701	30960.743979805688
2.429293394088745	36525.208276889396
2.4320452213287354	41845.21076668526
2.4347951412200928	39390.79302809834
2.4375438690185547	46784.34002713727
2.440291166305542	66703.27252896318
2.443037271499634	74607.7801400099
2.445782423019409	61563.074538133
2.4485268592834473	46749.84770442548
2.451270818710327	43862.15839886971
2.454014539718628	53184.67983961426
2.4567582607269287	73494.35299207714
2.4595019817352295	88858.31391260667
2.4622461795806885	97657.59114669095
2.4649908542633057	109530.86779642403
2.4677364826202393	104704.6080520892
2.4704833030700684	91277.23157388176
2.473231554031372	84193.80116997866
2.4759814739227295	83938.83853336409
2.4787333011627197	73697.60659634833
2.481487512588501	63436.33842773438
2.4842441082000732	81964.57976350051
