#wavelength	surface flux
0.8	491718.40713413025
0.8002000000000001	500377.33858411945
0.8004000500000003	508854.83179523307
0.8006001500125003	517303.65178831125
0.8008003000500035	526611.8168021663
0.8010005001250161	534619.9791334178
0.8012007502500472	546325.8593854912
0.8014010504376099	553465.118999227
0.8016014007002193	560947.9957170946
0.8018018010503944	572953.7370604317
0.8020022515006572	578805.8528749261
0.8022027520635323	589051.9541670195
0.8024033027515483	600452.4704628417
0.8026039035772362	608012.3060522103
0.8028045545531306	618757.522132657
0.8030052556917691	626257.3330265617
0.803206007005692	637238.2779305867
0.8034068085074435	646041.5014395306
0.8036076602095705	660060.7770217225
0.8038085621246229	671561.8409612792
0.8040095142651542	681209.4951107856
0.8042105166437206	685296.3040270659
0.8044115692728815	699001.9592711619
0.8046126721651998	707663.540789194
0.8048138253332411	721197.9225118776
0.8050150287895745	734492.5940074882
0.805216282546772	743755.9240702561
0.8054175866174087	748578.4030360241
0.8056189410140631	763373.7762760207
0.8058203457493168	772920.1952780681
0.8060218008357541	788441.5963128154
0.8062233062859632	787190.6003309409
0.8064248621125346	805501.9204220453
0.806626468328063	822024.0826036461
0.8068281249451449	831957.3266668611
0.8070298319763813	839072.0836309781
0.8072315894343755	845021.2589983029
0.8074333973317341	865026.2968757126
0.8076352556810671	878252.0375590851
0.8078371644949874	888135.4442046094
0.8080391237861113	909632.2944547264
0.8082411335670578	912564.8223524642
0.8084431938504498	920258.7782720205
0.8086453046489125	935269.4282480435
0.8088474659750746	941248.9954462125
0.8090496778415686	952069.1064943845
0.809251940261029	945592.5082543042
0.8094542532460944	986577.6678944608
0.8096566168094059	1001005.9963899585
0.8098590309636085	1009634.9754557328
0.8100614957213493	987726.5166199137
0.8102640110952797	1023520.6656637663
0.8104665770980536	1026074.630810352
0.8106691937423283	1052288.977438573
0.8108718610407639	1044976.2276977348
0.8110745790060241	1061633.4614689606
0.8112773476507757	1099342.783716006
0.8114801669876885	1087573.1652366181
0.8116830370294355	1094815.641979615
0.8118859577886929	1156201.349594876
0.8120889292781401	1142077.6986424753
0.8122919515104597	1131085.5079610497
0.8124950244983374	1110823.7105439538
0.8126981482544621	1188992.3969365149
0.8129013227915257	1216961.1362337184
0.8131045481222237	1230251.9256793
0.8133078242592543	1223982.9346673242
0.8135111512153191	1239651.26178393
0.813714529003123	1237785.0924716766
0.8139179576353739	1278196.6675826267
0.8141214371247829	1284525.1299501576
0.8143249674840641	1250426.043040203
0.814528548725935	1328760.587578813
0.8147321808631167	1353878.1135973588
0.8149358639083326	1330943.2024576152
0.8151395978743097	1280579.7950904837
0.8153433827737784	1395008.164581895
0.8155472186194719	1375841.960897179
0.8157511054241268	1401869.1789918123
0.815955043200483	1446593.1165348764
0.8161590319612831	1470155.7533490083
0.8163630717192736	1400639.1135029895
0.8165671624872033	1488903.2836897043
0.8167713042778252	1506670.1473770076
0.8169754971038948	1547328.9976663261
0.8171797409781707	1473635.209054731
0.8173840359134155	1592958.0941188692
0.8175883819223938	1598504.6797488104
0.8177927790178745	1618539.7273052677
0.8179972272126291	1584753.7154446244
0.8182017265194322	1488020.9871117072
0.8184062769510622	1371463.1072720955
0.8186108785203001	1652825.913805922
0.8188155312399301	1637824.370596294
0.8190202351227402	1674968.571157412
0.819224990181521	1573344.0601471646
0.8194297964290664	1180906.1703722388
0.8196346538781738	1460094.662094246
0.8198395625416434	1737274.2206355166
0.8200445224322789	1772567.0858262414
0.820249533562887	1830921.7181372873
0.8204545959462778	1849093.1194035227
0.8206597095952644	1875035.9223134052
0.8208648745226633	1908029.3512710608
0.8210700907412941	1923673.050721979
0.8212753582639793	1947551.378399722
0.8214806771035456	1969376.6582240527
0.8216860472728215	1986394.6234142291
0.8218914687846397	1996187.2783077483
0.822096941651836	2029763.6160828075
0.822302465887249	2061954.1433311235
0.8225080415037209	2091469.047056284
0.8227136685140968	2037670.8106608167
0.8229193469312254	1928642.0513558227
0.8231250767679583	1941028.8852049466
0.8233308580371503	2104819.4224968287
0.8235366907516598	2086971.0825654643
0.8237425749243477	2176944.052592603
0.8239485105680789	2187289.6805524933
0.824154497695721	2219439.4380567903
0.824360536320145	2197797.5834195055
0.8245666264542252	2120545.55350075
0.8247727681108388	2334656.9843985457
0.8249789613028664	2348033.5658088685
0.8251852060431922	2376972.330014272
0.825391502344703	2428425.649799154
0.8255978502202894	2443883.560082419
0.8258042496828445	2450436.7236745115
0.8260107007452654	2496992.386174175
0.8262172034204517	2403404.9539045477
0.8264237577213068	2483751.0790673853
0.8266303636607373	2555361.8308600644
0.8268370212516525	2596817.0811701226
0.8270437305069654	2620148.8034744267
0.8272504914395923	2631255.3466171087
0.8274573040624523	2590942.4800781184
0.8276641683884679	2671747.9983904217
0.8278710844305652	2674012.340137649
0.8280780522016729	2746512.8646189957
0.8282850717147234	2743385.854399955
0.8284921429826521	2803136.3074799464
0.8286992660183978	2816910.0349851907
0.8289064408349024	2797576.7390668686
0.8291136674451112	2779909.3073062813
0.8293209458619727	2855480.1882766713
0.8295282760984382	2812547.1300298157
0.829735658167463	2709307.0971126305
0.8299430920820048	2923845.563082738
0.8301505778550254	2995011.5044936426
0.8303581154994891	3014508.9840988535
0.8305657050283641	3064229.778072752
0.8307733464546212	2971026.457825406
0.8309810397912352	3103494.540741002
0.8311887850511829	3155910.512281977
0.8313965822474458	3077268.3588294676
0.8316044313930077	3195684.1222256958
0.8318123325008561	3238229.651783189
0.8320202855839813	3236033.889799608
0.8322282906553774	3296739.996514749
0.8324363477280413	3293119.4717021063
0.8326444568149735	3383003.2177019026
0.8328526179291771	3416273.130055136
0.8330608310836596	3377580.946979764
0.8332690962914304	3322424.9484029184
0.8334774135655034	3396278.063664601
0.833685782918895	3434967.8357131667
0.8338942043646247	3556933.0701428815
0.834102677915716	3485700.199145776
0.834311203585195	3588987.8114256314
0.8345197813860912	3648017.610478631
0.8347284113314379	3703586.4183458006
0.8349370934342709	3741457.6033261344
0.8351458277076294	3533002.930725444
0.8353546141645565	3735162.7282113335
0.8355634528180977	3622044.328095833
0.8357723436813022	3661593.765079537
0.8359812867672226	3571310.399112642
0.8361902820889144	3899898.494626552
0.8363993296594368	3540205.624286549
0.8366084294918518	3902724.295942328
0.8368175815992247	3873021.2838746323
0.8370267859946247	3844630.015681694
0.8372360426911234	4073608.529551241
0.8374453517017962	4119024.66263433
0.8376547130397217	3953760.201850759
0.8378641267179816	3914315.328208445
0.8380735927496613	4164569.2856508875
0.8382831111478488	4243313.148115858
0.8384926819256358	4291067.864208666
0.8387023050961173	4235063.671975519
0.8389119806723914	4242245.640847417
0.8391217086675596	4429742.506832774
0.8393314890947265	4494528.367952662
0.8395413219670003	4491739.751933548
0.8397512072974922	4524413.496527251
0.8399611450993165	4474866.36994728
0.8401711353855914	4519801.681970942
0.8403811781694378	4620654.398710527
0.8405912734639802	4527444.108821273
0.8408014212823464	4533753.545652158
0.8410116216376671	4697196.565420088
0.8412218745430766	4781508.287765352
0.8414321800117124	4850457.13709357
0.8416425380567154	4778010.526223236
0.8418529486912297	4865312.547852923
0.8420634119284025	4659551.831540731
0.8422739277813847	4896394.027613384
0.8424844962633302	4925723.7959238505
0.842695117387396	5090977.466985009
0.8429057911667428	5115240.628029978
0.8431165176145345	5027528.10561074
0.8433272967439382	5158599.810285097
0.8435381285681244	5127811.954029853
0.8437490131002665	5118735.661295174
0.8439599503535415	5301221.887941878
0.84417094034113	5207929.612934594
0.8443819830762154	5166041.997829468
0.8445930785719846	5374942.900855417
0.8448042268416277	5422450.265825087
0.8450154278983382	5467088.341723474
0.8452266817553128	5454928.481386303
0.8454379884257517	5485323.607517963
0.8456493479228583	5257912.837687936
0.845860760259839	5620711.150486289
0.846072225449904	5764227.710800298
0.8462837435062666	5758092.534399717
0.8464953144421433	5524012.192453536
0.8467069382707537	5662433.600256919
0.8469186150053215	5881945.559085446
0.847130344659073	5794576.996585453
0.8473421272452377	5888604.024163024
0.8475539627770492	5886998.464577183
0.8477658512677435	5927418.750666633
0.8479777927305605	6054287.375375885
0.8481897871787432	6085196.484880254
0.848401834625538	6141625.224300076
0.8486139350841944	6157020.503099955
0.8488260885679657	6126476.3173666615
0.8490382950901076	6156153.4934451245
0.8492505546638802	6272145.731335011
0.8494628673025462	6110670.405078018
0.8496752330193721	6341234.381455044
0.8498876518276269	6260128.94696016
0.8501001237405839	6148938.234343639
0.8503126487715191	6176454.446640302
0.850525226933712	6160750.47251436
0.8507378582404455	6031451.506104908
0.8509505427050057	5782614.66596527
0.8511632803406821	5573582.663932005
0.8513760711607672	4916786.460024849
0.8515889151785576	3974543.5692303176
0.8518018124073523	2364733.024146373
0.8520147628604541	578896.5385001939
0.8522277665511693	682974.6186693572
0.8524408234928071	2544601.514103952
0.8526539336986805	4186738.4924223684
0.8528670971821053	5234134.646988366
0.8530803139564007	5892178.161697534
0.8532935840348901	6252897.3846681155
0.8535069074308987	6686564.887525554
0.8537202841577566	6891277.445991183
0.8539337142287962	7026379.155159924
0.8541471976573534	7126761.2427333305
0.8543607344567677	7271125.298717423
0.8545743246403821	7433227.865508949
0.8547879682215422	7416924.575954864
0.8550016652135977	7565348.235067063
0.8552154156299011	7587143.105101931
0.8554292194838088	7660355.154169282
0.8556430767886797	7636704.509372688
0.855856987557877	7860588.179971909
0.8560709518047664	7945789.462400084
0.8562849695427177	8049027.83412981
0.8564990407851035	8044114.406644597
0.8567131655452999	8145947.7054699315
0.8569273438366862	8268147.418360578
0.8571415756726455	8291526.263939448
0.8573558610665638	8245836.469989437
0.8575702000318304	8177579.510758924
0.8577845925818384	8378930.613013505
0.857999038729984	8555218.857891528
0.8582135384896665	8589461.987090752
0.858428091874289	8565876.495270062
0.8586426988972576	8669311.936132157
0.8588573595719821	8679903.568503667
0.8590720739118751	8683346.439865546
0.8592868419303532	8807366.514221031
0.8595016636408359	8869081.259933243
0.8597165390567462	8951400.08647745
0.8599314681915105	8924243.876173858
0.8601464510585584	8927860.223470666
0.860361487671323	9082727.131994309
0.8605765780432408	9110458.234801939
0.8607917221877518	9140086.013683693
0.8610069201182988	9045091.03162395
0.8612221718483286	8146641.276239699
0.8614374773912907	5563799.235893681
0.8616528367606385	6486489.711075612
0.8618682499698288	5381409.341874643
0.8620837170323213	5369908.7951715905
0.8622992379615795	6144930.525458303
0.8625148127710699	6206623.649145861
0.8627304414742627	5325871.115132352
0.8629461240846313	7504932.871847359
0.8631618606156526	5614302.620921845
0.8633776510808066	5144412.750065474
0.8635934954935769	5494413.1800725125
0.8638093938674504	5826132.1855240725
0.8640253462159173	6279501.046094716
0.8642413525524714	5827104.682567757
0.8644574128906095	6673804.018480497
0.8646735272438323	6882646.986127606
0.8648896956256433	5474472.353527418
0.8651059180495498	6971272.468303448
0.8653221945290621	6507445.090630606
0.8655385250776946	8643289.876765389
0.8657549097089641	7344568.645560945
0.8659713484363913	7286455.211439491
0.8661878412735006	7626417.677383085
0.866404388233819	7743626.884251823
0.8666209893308775	6922466.550338145
0.8668376445782103	9313703.368680695
0.8670543539893549	7865866.859517014
0.8672711175778525	7507737.128778545
0.8674879353572469	7689617.764267248
0.8677048073410862	8380391.702683356
0.8679217335429217	8870302.872542964
0.8681387139763074	8405784.003862899
0.8683557486548015	7077815.005631302
0.8685728375919655	6853929.635996945
0.8687899808013633	8650030.914078748
0.8690071782965637	9348032.01755213
0.869224430091138	9789164.187671756
0.8694417361986609	8978425.734282631
0.8696590966327107	7030807.894671184
0.869876511406869	7594274.48246311
0.8700939805347206	8520313.187795406
0.8703115040298544	8745574.084989198
0.870529081905862	7730267.996821385
0.8707467141763385	8843670.621607522
0.8709644008548827	7619780.141616272
0.8711821419550964	7004253.870952061
0.8713999374905854	7121466.037492938
0.871617787474958	8591953.053004181
0.8718356919218269	8395940.951085193
0.8720536508448075	6978200.729638788
0.8722716642575187	8088465.47824945
0.8724897321735832	7432323.704977829
0.8727078546066265	9156168.058844676
0.8729260315702784	7652365.464010501
0.873144263078171	8508723.213735672
0.8733625491439405	9006042.32391379
0.8735808897812266	6833089.335412729
0.8737992850036719	8189257.780615002
0.874017734824923	8646900.367851462
0.8742362392586293	9069273.357827846
0.874454798318444	9417594.896760464
0.8746734120180236	9610256.85021596
0.8748920803710283	9979538.011393683
0.875110803391121	8668386.752365263
0.8753295810919689	8443876.542751871
0.875548413487242	10504288.225490008
0.8757673005906139	10006215.25712546
0.8759862424157616	10287532.136310646
0.8762052389763657	10492573.871778233
0.8764242902861098	9612575.25444623
0.8766433963586814	10218210.204079386
0.8768625572077712	8637830.54342398
0.8770817728470732	7868705.368145542
0.8773010432902849	10413576.082454767
0.8775203685511077	9807416.82291247
0.8777397486432454	11925499.03249606
0.8779591835804065	11454837.57855859
0.8781786733763015	9182739.974918189
0.8783982180446457	10043575.362613443
0.878617817599157	10908352.42766639
0.8788374720535569	8925651.38496077
0.8790571814215703	9720823.144841539
0.8792769457169257	9836937.765146418
0.879496764953355	10252838.234735614
0.8797166391445934	12967674.447876237
0.8799365683043796	12388549.3369582
0.8801565524464557	10293542.407792246
0.8803765915845676	9139744.206596855
0.8805966857324639	10521211.726144517
0.880816834903897	9302047.53018044
0.881037039112623	11158668.628742138
0.8812572983724012	11047133.534702629
0.8814776126969944	10504821.94556332
0.8816979821001687	11592011.537348894
0.8819184065956938	13308316.051930161
0.8821388861973429	11795092.568322634
0.8823594209188923	10242001.888452528
0.882580010774122	10442624.558431162
0.8828006557768155	10752840.955084937
0.8830213559407598	9631414.677651454
0.8832421112797452	13318338.697439851
0.8834629218075651	10446553.022379305
0.8836837875380171	10137455.226726513
0.8839047084849018	12153916.541478625
0.884125684662023	13849144.51401871
0.8843467160831886	13875785.433240188
0.8845678027622095	13211102.71086827
0.8847889447129001	9037007.921045288
0.8850101419490785	10711122.930974202
0.8852313944845657	11845233.30608683
0.885452702333187	15180715.412121696
0.8856740655087704	13079457.885696955
0.8858954840251476	10496809.93651671
0.8861169578961539	10973262.832363894
0.886338487135628	15024963.357781863
0.886560071757412	14340886.738998806
0.8867817117753515	13946366.20423329
0.8870034072032955	12195189.181551933
0.8872251580550963	9183812.949508252
0.8874469643446101	10463203.244640913
0.8876688260856963	11007452.423392784
0.8878907432922178	14293750.487234998
0.8881127159780409	15418576.20967772
0.8883347441570356	13952877.506932894
0.8885568278430749	9288468.483552277
0.8887789670500358	13252550.836734984
0.8890011617917983	14222885.783901455
0.8892234120822464	16346983.420670392
0.8894457179352669	15258986.689399164
0.8896680793647509	11450092.104980366
0.8898904963845921	9606976.013722608
0.8901129690086883	13424229.48247056
0.8903354972509405	16310421.877125887
0.8905580811252535	15883678.335455887
0.8907807206455347	14368080.52817479
0.8910034158256963	12942009.828773962
0.8912261666796527	10665464.57268267
0.8914489732213227	13780811.543683883
0.8916718354646282	15684460.86395506
0.8918947534234944	12327512.207626551
0.8921177271118502	10788173.872880407
0.8923407565436284	13600182.155272923
0.8925638417327644	9730882.541424315
0.8927869826931977	12835630.190098803
0.8930101794388711	12174085.876461314
0.8932334319837308	12513474.218685567
0.8934567403417267	12656720.457973229
0.8936801045268123	9665476.09301721
0.8939035245529441	6635949.977574384
0.8941270004340824	3020641.443152504
0.894350532184191	624117.7066749249
0.8945741198172371	3400931.3711610455
0.8947977633471915	7095597.888218398
0.8950214627880284	10683835.674959293
0.8952452181537254	11713031.708303917
0.8954690294582639	9618259.821594192
0.8956928967156286	12500403.111204274
0.8959168199398075	15244927.600141827
0.8961407991447926	17001573.512575306
0.8963648343445789	16682672.713582639
0.896588925553165	12538110.5883526
0.8968130727845534	11913834.002472162
0.8970372760527496	13238001.373356123
0.8972615353717629	15066153.079916202
0.8974858507556059	14715452.151920486
0.8977102222182949	16097804.95113477
0.8979346497738496	18587580.76074576
0.8981591334362931	16592297.160172047
0.8983836732196523	12710481.321194638
0.8986082691379572	16863279.844211146
0.8988329212052417	17881292.519574635
0.8990576294355432	16148171.415908018
0.8992823938429022	16922025.429849748
0.8995072144413631	18524048.565778904
0.8997320912449734	16283957.83249382
0.8999570242677847	16379151.88131071
0.9001820135238516	13981443.454828674
0.9004070590272328	18429282.714190703
0.9006321607919896	19670939.359766208
0.9008573188321878	19786226.32119521
0.9010825331618959	17951706.926963236
0.9013078037951865	17154102.80691645
0.9015331307461353	18003137.720755253
0.9017585140288219	17527014.85712837
0.9019839536573292	20515384.145026885
0.9022094496457435	22380814.43435727
0.9024350020081551	20919661.311148066
0.9026606107586572	21906882.808116313
0.902886275911347	15771083.753280679
0.9031119974803249	16764003.54958116
0.9033377754796951	19178910.439756945
0.903563609923565	21733239.169027
0.903789500826046	24777901.4406187
0.9040154482012526	25289865.11235563
0.904241452063303	21830892.90436795
0.9044675124263188	19091695.774892583
0.9046936293044254	20761003.0584001
0.9049198027117517	20731860.09625925
0.9051460326624297	23589415.689972695
0.9053723191705955	24846440.131612264
0.9055986622503881	22183500.29668867
0.9058250619159507	23490640.184946932
0.9060515181814298	19941012.895417463
0.9062780310609752	21640431.395530388
0.9065046005687405	22825155.569151103
0.906731226718883	22765619.571419567
0.9069579095255627	25316517.35315764
0.907184649002944	21895404.465601254
0.907411445165195	22973305.48244878
0.9076382980264862	22561021.397290573
0.907865207600993	23156001.582887445
0.9080921739028933	22598283.991560858
0.9083191969463691	19620596.064449955
0.9085462767456058	24299909.25077358
0.9087734133147922	26163892.73742003
0.9090006066681211	23289978.11304428
0.909227856819788	24165556.429135483
0.9094551637839932	23797996.99835948
0.9096825275749393	25501281.61544077
0.9099099482068329	23845692.376235776
0.9101374256938848	24001472.645295177
0.9103649600503083	24359016.743556235
0.9105925512903209	29080392.88928836
0.9108201994281437	21041319.76807348
0.9110479044780008	21213949.62515009
0.9112756664541204	26164187.385288645
0.911503485370734	25621214.410531607
0.9117313612420768	28312827.915138848
0.9119592940823873	23132224.54225057
0.912187283905908	27695145.031954985
0.9124153307268845	27959857.037196472
0.9126434345595664	28472511.849838413
0.9128715954182063	24855140.478127692
0.9130998133170609	21647525.42998264
0.9133280882703902	23782546.463112153
0.913556420292458	28501422.61004076
0.9137848093975312	26225134.549283627
0.9140132555998806	24985395.511383582
0.9142417589137806	28425619.905715417
0.9144703193535092	23969716.33472509
0.9146989369333476	29890823.01503111
