#wavelength	surface flux
0.676892	302630.4533366257
0.678297	320438.89242295874
0.679702	337120.24989368045
0.681109	352880.8894814128
0.682517	367463.8155547722
0.683926	381316.513561104
0.685337	393945.48358630337
0.686749	405138.46299895796
0.688164	414867.74265473837
0.689581	422440.63134062744
0.691	425254.1371637816
0.692422	427288.93226984923
0.693847	427872.37572191545
0.695274	435001.09917016677
0.696705	436598.51575643674
0.698139	435737.83315167396
0.699576	431598.6587694513
0.701017	425952.2511089185
0.702461	418152.42592326406
0.70391	410639.78018630965
0.705362	400237.4066827445
0.706819	389064.0613540319
0.70828	376927.1682229197
0.709745	362337.01113126945
0.711216	347494.77186331403
0.71269	331971.8434335627
0.71417	316098.85486551386
0.715655	295442.5152970192
0.717145	273838.47425290185
0.71864	256423.0935701465
0.72014	242259.25907019633
0.721647	226951.98801612295
0.723158	213498.3469767071
0.724676	195956.2490815903
0.726199	178642.075469451
0.727728	160035.08123406407
0.729264	149117.78430780157
0.730805	134181.0585302393
0.732353	124139.25893771673
0.733907	111502.97012640578
0.735468	97465.93709228009
0.737035	88435.61023859684
0.738609	77894.49085482617
0.74019	68355.22126081795
0.741777	59370.175991192715
0.743372	51294.61873106118
0.744973	43800.465270701505
0.746582	36994.549028927926
0.748197	30919.234778769107
0.74982	25727.65417552899
0.751451	21135.699018558706
0.753088	17208.389699780837
0.754734	13899.272333199955
0.756386	11140.690227893692
0.758047	8853.547593033745
0.759715	6950.913197302681
0.76139	5322.599630907435
0.763074	3849.505543646054
0.764765	2267.601034605983
0.766464	788.7773845554789
0.768172	1653.2429221679809
0.769887	1154.8758650043756
0.77161	3234.93879675916
0.773341	5616.814332552938
0.775081	8076.395103518886
0.776829	10984.908885985167
0.778585	13205.65886635776
0.780349	13821.647237886305
0.782121	24297.163784750366
0.783902	32208.847223460216
0.785691	41258.58699929101
0.787489	52213.763165489574
0.789295	65116.486876150506
0.79111	79681.44770070817
0.792933	86426.12639497871
0.794764	59286.29049455822
0.796604	126423.90638775275
0.798453	167560.84822238758
0.80031	200967.2935276943
0.802176	236807.8274034801
0.804051	277568.8567589834
0.805934	320980.53601126984
0.807826	369334.20273209893
0.809727	421143.745610957
0.811636	474941.51074946177
0.813554	527360.2513173887
0.81548	605980.1906818853
0.817416	683080.0052222478
0.81936	727190.9147646537
0.821313	861856.6514488463
0.823274	956227.2770839707
0.825244	1057981.9142198623
0.827223	1186295.842615999
0.829211	1293082.250422041
0.831208	1401140.7082591054
0.833213	1569922.4733226895
0.835227	1704198.1185225623
0.837249	1822592.0714721135
0.83928	2022791.2457686851
0.841321	2206865.781722554
0.843369	2395859.5410874374
0.845427	2573444.5707765385
0.847493	2813368.2045946736
0.849567	2890773.50267629
0.851651	1990912.0496319162
0.853742	3070643.6224762867
0.855843	3744996.812441252
0.857952	4057899.6839711713
0.86007	4254458.52885373
0.862196	3575595.5600977354
0.864331	3925255.6590213263
0.866474	4357304.801015784
0.868626	4653382.460586384
0.870786	4678386.233729632
0.872955	4925895.568734999
0.875132	4886754.298210752
0.877317	6146450.656524364
0.879511	6524565.9648734955
0.881713	6266564.26330087
0.883923	6654107.7215715265
0.886142	7085002.455149991
0.888369	6784242.89057245
0.890604	7652732.220980351
0.892847	6220050.823579087
0.895099	5363770.815193003
0.897358	8326882.493976254
0.899626	9558592.405359322
0.901901	10908352.53785401
0.904185	12218073.703781923
0.906476	12155007.131352387
0.908776	11449858.78749792
0.911083	12634823.877227582
0.913398	12932043.412572961
0.915721	14346968.557528703
0.918051	14628958.74523691
0.92039	16504280.105898343
0.922736	16663242.534024786
0.925089	15510156.978076007
0.927451	11986029.830242988
0.929819	8942498.186150437
0.932195	7885960.556144156
0.934579	8822599.771162916
0.93697	15236592.333282312
0.939369	17174092.931892432
0.941774	16789049.422216542
0.944187	14386953.057074657
0.946607	17544402.219428934
0.949035	18223650.52581126
0.951469	14333887.262968974
0.953911	16090331.998975996
0.956359	13374240.995330594
0.958814	18626600.56328593
0.961277	13523376.359454669
0.963746	13991219.620145021
0.966222	19059944.75177121
0.968705	21727041.035377137
0.971194	23951434.201300427
0.97369	22153732.049620353
0.976193	27251291.246550452
0.978702	26739095.915123742
0.981217	28017902.769502345
0.983739	25886842.82152651
0.986268	30395125.318914875
0.988802	31170066.49290349
0.991343	28161816.61082617
0.99389	31335038.454307098
0.996444	31402995.899489094
0.999003	23536095.109867882
1.00157	23661380.06238893
1.00414	26877337.443191692
1.00672	27883739.079496898
1.0093	29382651.805729087
1.01189	30864721.51139426
1.01448	35386163.655237526
1.01708	36712347.88352818
1.01969	40774324.70223474
1.0223	41845272.282158665
1.02492	42520934.61739713
1.02754	42959051.93991801
1.03017	47746186.92279476
1.0328	49016017.64503818
1.03544	49383722.919742815
1.03808	55962829.666872874
1.04073	55702488.65556534
1.04339	56466559.523324
1.04604	55968331.046147294
1.04871	56787402.18614617
1.05138	58230742.20173617
1.05405	61470731.50687241
1.05673	60722864.52708473
1.05941	65273072.50930789
1.0621	64539985.358860426
1.06479	67920562.41602309
1.06749	69304995.63410737
1.07019	73107293.76187822
1.07289	72702118.40286301
1.0756	75086055.13476549
1.07832	76544378.40315622
1.08104	76647157.59639114
1.08376	79483102.78301759
1.08649	73173909.06561133
1.08922	66609487.521537945
1.09195	60274746.36995364
1.09469	53990595.05612744
1.09743	44045274.15114277
1.10018	37231196.00703894
1.10293	29201817.925003722
1.10568	21412468.200048972
1.10844	24916555.683675904
1.1112	19009124.51315444
1.11396	15945967.694399199
1.11673	13486535.49041934
1.1195	18682353.048905298
1.12228	15050384.409722036
1.12505	20465042.143222727
1.12783	24543173.832767278
1.13062	22210654.25179659
1.13341	9289688.485359764
1.1362	12382825.362798348
1.13899	18822497.27368198
1.14178	25203356.52079405
1.14458	19125574.748625986
1.14738	19545818.068042707
1.15019	30748134.879484985
1.153	22729040.503227808
1.1558	18915482.202923927
1.15862	26644045.41747709
1.16143	16847029.133611064
1.16425	13815138.951544425
1.16707	14947400.859387353
1.16989	18342991.237029642
1.17271	25985579.592017863
1.17554	21826569.57613727
1.17837	17446588.272130758
1.1812	34081419.82019175
1.18403	35683031.94962705
1.18686	35896239.36120446
1.1897	41309090.421986364
1.19253	45118885.23738036
1.19537	50503379.71067883
1.19822	53499929.53937123
1.20106	57856248.633673884
1.2039	60115912.75308899
1.20675	65935500.36948359
1.2096	70932548.23047018
1.21245	73214907.29177907
1.2153	76882264.39297287
1.21815	77784376.16758841
1.221	83007081.57618836
1.22385	86927452.88074642
1.22671	89592009.02556072
1.22957	93920966.50595178
1.23242	95634859.9518747
1.23528	94014781.33746225
1.23814	94166529.27818106
1.241	85160475.72172417
1.24387	71706168.489084
1.24673	91898649.52953744
1.24959	79279445.78741334
1.25245	54921670.53537253
1.25532	88179878.17180997
1.25818	104092964.85522984
1.26105	111272954.86607422
1.26392	105855344.97196679
1.26678	111468034.66031983
1.26965	106622757.2834749
1.27252	113484289.81467357
1.27538	114989534.96348697
1.27825	113641488.95500182
1.28112	112074423.78814591
1.28399	94461305.8641072
1.28686	97555764.14221342
1.28973	96390760.51238467
1.2926	95778761.82481259
1.29546	83750140.42394638
1.29833	77819668.74089608
1.3012	89041083.51791449
1.30407	92156061.30870491
1.30694	79964154.5677847
1.30981	85683200.23977026
1.31267	84546648.1292266
1.31554	71717111.30451517
1.31841	65684993.69334863
1.32128	75341910.5109473
1.32414	53775422.9008614
1.32701	36732812.28687507
1.32987	26903628.864063922
1.33274	15520391.71286999
1.3356	11379078.949317116
1.33847	3005671.5046027773
1.34133	2293707.513436043
1.34419	3134616.40105959
1.34705	2438809.6618038253
1.34991	2936235.6278496445
1.35277	3342489.4880866474
1.35563	1283281.5137059982
1.35849	1274066.316564913
1.36135	1816820.5056706087
1.3642	2959167.8541870653
1.36706	2930138.382620912
1.36991	2764435.9176632627
1.37277	2883394.8287338647
1.37562	2740609.9771152628
1.37847	2328912.093645538
1.38132	2388845.668505309
1.38417	1277667.8028023029
1.38701	513837.660325601
1.38986	2141867.32528835
1.39271	2774550.1502862736
1.39555	1610910.1024278544
1.39839	2520168.603388512
1.40123	3276495.756534707
1.40407	3239013.1697707386
1.40691	2544208.706935005
1.40974	1844448.9158569619
1.41258	2746518.7904108316
1.41541	3153087.3164326907
1.41824	1555203.5993459101
1.42107	1098067.872609421
1.4239	1133643.2298382707
1.42673	3250725.7387019373
1.42955	4449762.867593734
1.43237	3052795.591302949
1.43519	4455848.828279151
1.43801	5008106.8196941735
1.44083	4518328.284160564
1.44365	5452788.239245588
1.44646	4684980.873212489
1.44927	6413823.685044794
1.45208	9141394.559140453
1.45489	6481006.334084949
1.45769	10190528.57705711
1.4605	9808814.406328902
1.4633	5999153.504812904
1.4661	10123539.090977833
1.4689	9777047.179526148
1.47169	9892616.663703524
1.47449	9342403.927912485
1.47728	9523098.971278995
1.48007	9663975.014148526
1.48286	11383669.878510118
1.48564	10806536.12122157
1.48842	11071433.241094295
1.4912	12717251.11192648
1.49398	11577289.479334796
1.49676	14618358.113116667
1.49953	15742329.646580556
1.5023	18950319.499612905
1.50507	22045226.741359346
1.50784	19465812.774732772
1.51061	22173737.60044687
1.51337	22968704.573048428
1.51613	19415088.753853757
1.51888	18145007.254346747
1.52164	21756206.46227785
1.52439	26117933.29718191
1.52714	23311203.484698866
1.52989	25254923.09441333
1.53263	29803977.25114252
1.53538	34181100.094688214
1.53812	32967774.94352857
1.54086	29754972.75840238
1.54359	28395005.53487823
1.54632	34961685.389017165
1.54905	35475919.41447852
1.55178	35023892.713932715
1.5545	36916072.74794794
1.55723	38675838.341237955
1.55995	42275832.524054885
1.56266	40678005.95465808
1.56538	44946646.685266376
1.56809	50960375.23002892
1.5708	49501913.62520882
1.57351	49238816.36756055
1.57621	49913807.85706601
1.57891	49804441.82922535
1.58161	52151738.4217891
1.5843	51936870.00980496
1.587	51898156.11137934
1.58969	49717995.35042216
1.59238	47261153.18105822
1.59506	50274187.46159402
1.59774	51728542.80855913
1.60042	48879457.056791864
1.6031	45714046.54850693
1.60577	42306990.6328335
1.60844	39706301.19228388
1.61111	41367914.13692323
1.61378	39159605.15920799
1.61644	35907282.23115016
1.6191	32883485.955662053
1.62176	36228393.00126989
1.62441	35738205.91939815
1.62707	36209738.68361277
1.62971	33702847.82539213
1.63236	35965638.69472463
1.635	39687504.61444241
1.63764	43022774.71287861
1.64028	36132959.6275861
1.64292	37451822.00547498
1.64555	32657509.58997068
1.64818	34170736.33092587
1.65081	40031869.77685311
1.65343	37941287.29753408
1.65605	31700616.598345935
1.65867	32986993.049650643
1.66128	41406728.95276993
1.6639	34396119.5360907
1.66651	11635929.857132124
1.66911	6796211.171850311
1.67172	18221528.04474397
1.67432	27899066.67869427
1.67692	32667877.694265064
1.67951	30874227.032387648
1.68211	26233350.09849826
1.6847	20054876.948764358
1.68728	21006617.643048793
1.68987	20782145.956624087
1.69245	17144556.715393003
1.69503	16346344.383385232
1.6976	15830269.12451491
1.70018	16338235.440257559
1.70275	13477413.545207126
1.70531	12851570.297633758
1.70788	17058061.0104795
1.71044	20392215.603269607
1.713	23067842.044459604
1.71556	24181164.480827708
1.71811	24502495.22733529
1.72066	21236553.791725572
1.72321	14679301.69759561
1.72575	18192748.295203004
1.7283	21833026.587687366
1.73084	21088078.484093487
1.73337	16731837.171769073
1.73591	15751578.579924745
1.73844	17277208.619819406
1.74097	16269028.47675497
1.74349	15087358.182479281
1.74602	16185386.993698422
1.74854	20043601.499483407
1.75105	19782874.22537602
1.75357	14416582.85899818
1.75608	9914746.493421685
1.75859	10654586.524371274
1.7611	10701535.688650971
1.7636	10995373.51292649
1.7661	10320781.062436974
1.7686	8679359.787280047
1.7711	9733612.472040407
1.77359	9069447.802055389
1.77608	6489709.158396901
1.77857	7370709.06803867
1.78105	8548830.260967024
1.78354	6388468.307242762
1.78602	5422084.392046844
1.78849	6820772.3727750555
1.79097	6139971.259553474
1.79344	5389693.918763294
1.79591	6463155.181697994
1.79837	8547784.566287117
1.80084	5875144.111661239
1.8033	5140072.1234037625
1.80576	5323725.131237715
1.80821	5238555.076006331
1.81067	5325374.691642067
1.81312	6440560.803954663
1.81557	6975508.525373191
1.81801	4952447.586420686
1.82046	4220658.605649175
1.8229	5182113.244699148
1.82533	4723675.015484572
1.82777	3960945.159091767
1.8302	4219849.077213357
1.83263	4252078.9693065705
1.83506	4097002.253070643
1.83749	4218683.529047814
1.83991	4531512.072518953
1.84233	5189991.869260652
1.84475	6227360.109765439
1.84716	5233912.7378035905
1.84957	5738046.983369103
1.85198	6823410.613238199
1.85439	5211305.729697595
1.8568	3397653.7234277287
1.8592	2550426.672951354
1.8616	2842876.087782851
1.864	2994041.438155715
1.86639	2554669.2837475655
1.86878	2212799.304827032
1.87118	3209650.016946299
1.87356	3725981.928203997
1.87595	4154594.8924336643
1.87833	6588736.118355159
1.88071	8302181.248644908
1.88309	7170135.895402287
1.88547	6395997.9019123
1.88784	7487447.271376385
1.89021	7946942.414632199
1.89258	9005306.236646423
1.89494	10380377.331208741
1.89731	8999710.996478682
1.89967	6690735.145897206
1.90203	6731275.13951563
1.90439	6790592.978454305
1.90674	8727412.221836355
1.90909	9479284.18846388
1.91144	5738144.979502221
1.91379	4954292.03775586
1.91613	7849724.005586259
1.91848	8845027.37623837
1.92082	6664016.921709122
1.92315	5549818.384413057
1.92549	6055580.176962998
1.92782	6171685.736176834
1.93015	5049727.366444078
1.93248	4211608.077058656
1.93481	3997607.4792846646
1.93713	3208818.9060930065
1.93945	2780802.2867504526
1.94177	4772920.197305401
1.94409	6022133.695799581
1.94641	5526990.700222225
1.94872	5726599.854143548
1.95103	7339144.750905755
1.95334	7123042.264376757
1.95564	5186884.488751141
1.95795	4626651.423009647
1.96025	4079064.5564091806
1.96255	3894906.781841416
1.96484	5578445.352525673
1.96714	6906643.183306601
1.96943	6742812.126359933
1.97172	7367085.599186493
1.97401	7676303.708428353
1.97629	7620725.590857341
1.97858	7914242.13746991
1.98086	6678873.897895376
1.98314	5478578.7920793155
1.98541	6956607.490966698
1.98769	9000162.228396516
1.98996	8162227.862441258
1.99223	7357052.8603277635
1.9945	8895905.727292664
1.99677	9696129.114557488
1.99903	8988221.776151283
2.00129	8668330.015035434
2.00355	9205524.525132537
2.00581	10288125.551303064
2.00806	10233150.410330007
2.01031	10595076.593513837
2.01256	13187884.178712558
2.01481	14142257.712238384
2.01706	12257601.09401776
2.0193	12219318.234550774
2.02154	14479504.83023853
2.02378	15200792.47519655
2.02602	13491109.089222023
2.02825	12561393.6957742
2.03049	13571290.964432463
2.03272	15586422.160309346
2.03494	16369730.958017282
2.03717	15874280.10194087
2.03939	15858542.16868298
2.04162	17384199.15179669
2.04384	18897540.304549556
2.04605	19198662.447158292
2.04827	18275327.060465395
2.05048	18023181.04607012
2.05269	17810826.680113915
2.0549	16726276.985505074
2.05711	17941553.704488654
2.05931	19091538.183716886
2.06151	18964770.87201282
2.06371	19242623.19249342
2.06591	19196497.221747644
2.06811	19685066.04085938
2.0703	20885903.70300691
2.07249	21650225.72543949
2.07468	21349822.310349215
2.07686	20886141.612025265
2.07905	21241265.740240153
2.08123	21752621.646323748
2.08341	21981217.969136834
2.08559	21840482.671117727
2.08776	21900646.83507175
2.08994	22162447.529092353
2.09211	22020040.08935196
2.09428	22158538.93922405
2.09645	22554943.989368852
2.09861	22127715.63907484
2.10077	21197588.987323914
2.10293	20973798.61040298
2.10509	21552739.576634455
2.10725	21697638.64131183
2.1094	20581667.515559174
2.11155	18882656.74046597
2.1137	18485619.454401538
2.11585	18982513.46961354
2.11799	19510968.464095037
2.12013	20231092.513166297
2.12227	20452161.63636595
2.12441	20513205.895227313
2.12655	20378454.17369433
2.12868	19750641.294017117
2.13081	19410617.51725551
2.13294	19233426.34047938
2.13507	18284701.710427698
2.13719	17666777.648349985
2.13931	18337646.340106096
2.14143	18792540.703086007
2.14355	18061333.88711845
2.14567	16794050.239863675
2.14778	15339657.790609047
2.14989	14525537.481793849
2.152	14637422.987013651
2.1541	14571639.653425058
2.15621	14287912.42942129
2.15831	13747335.286720518
2.16041	12684495.165021911
2.16251	12440696.129513022
2.1646	12862928.601685915
2.1667	13126973.162029164
2.16879	13639190.42264828
2.17087	14108275.12334756
2.17296	13781578.080123011
2.17504	13383284.39949564
2.17713	13338304.199800618
2.1792	12652624.873077884
2.18128	10904841.502243135
2.18336	9237380.047853326
2.18543	9052717.460262666
2.1875	9357229.822486114
2.18957	8981067.514751194
2.19163	8672243.827080032
2.1937	8598056.009069832
2.19576	7680323.686315402
2.19782	5801776.533227371
2.19987	3952475.1858905377
2.20193	3061999.831603297
2.20398	2894551.447112169
2.20603	2879779.409266003
2.20808	3075481.1599495383
2.21012	3342204.660942314
2.21217	3534199.0040743384
2.21421	4008191.3025502316
2.21625	4545478.438628673
2.21828	4751224.083564315
2.22032	4928954.981946528
2.22235	5073349.111165879
2.22438	4873829.405233868
2.22641	4211910.088214425
2.22843	3835785.4702574485
2.23046	3663271.3891010685
2.23248	3209933.2506724694
2.2345	2722349.9938090537
2.23651	2414871.481131731
2.23853	2373322.9573023613
2.24054	2652598.791941012
2.24255	3098572.435092983
2.24456	3483397.082910721
2.24657	3645114.090292163
2.24857	3562986.268254806
2.25057	3276382.1247419505
2.25257	2858103.542248071
2.25457	2432802.1627651644
2.25656	2235473.556834033
2.25856	2255060.110506871
2.26055	2244525.8917853045
2.26254	1993157.624381202
2.26453	1808432.7909714808
2.26651	1904086.0788417435
2.2685	2035785.8123338555
2.27048	2079934.6833362584
2.27246	2224928.709131171
2.27443	2263991.0130532375
2.27641	2289878.5998237226
2.27838	2456737.134980371
2.28036	2460229.2061958876
2.28233	2230657.1295293095
2.28429	1993323.814908219
2.28626	1769436.0932233795
2.28823	1565019.6020219545
2.29019	1444372.2018922374
2.29215	1371791.4693117212
2.29411	1373155.96440508
2.29607	1461962.3472357388
2.29802	1690891.8342634297
2.29998	2025874.947330056
2.30193	2437638.1097037885
2.30388	2778248.5390052963
2.30583	2936420.506558056
2.30778	3110747.9236045466
2.30972	3502121.893002723
2.31167	3917240.0523062013
2.31361	3573024.1869469127
2.31555	2551553.832830586
2.31749	1618316.956355855
2.31943	1348576.8702823352
2.32137	1276629.1275795507
2.32331	1135303.6784820748
2.32524	965436.2907091753
2.32718	801151.6199157579
2.32911	722025.4233727751
2.33104	780580.9339249543
2.33297	935847.8509070198
2.3349	1164947.3854396185
2.33683	1483822.2171629677
2.33876	1736919.9499788892
2.34068	1864279.9141555792
2.34261	1930216.6798745738
2.34453	2013077.832284221
2.34646	2105740.225188605
2.34838	2131383.088938482
2.3503	2015300.402740672
2.35223	1963053.1711556565
2.35415	1890950.7014160291
2.35607	1720880.9883510596
2.35799	1847194.7742188754
2.35991	2233831.4393427046
2.36183	2577126.959079433
2.36375	2808941.3097132836
2.36566	3064545.201366947
2.36758	2953962.2205563127
2.3695	2504434.3555011437
2.37142	2092250.441313476
2.37334	1915896.9280025254
2.37526	1725718.2455589476
2.37718	1512960.1979760714
2.3791	1433039.0848720267
2.38101	1437094.9732244874
2.38293	1469895.6487136725
2.38485	1596330.7545275278
2.38677	1962695.709414757
2.3887	2355294.781083173
2.39062	2462038.4132595756
2.39254	2444338.1108699744
2.39446	2576358.1069284757
2.39639	2693946.100830359
2.39831	2585311.695333157
2.40024	2562148.0939015998
2.40216	2727823.6360735763
2.40409	3025700.651679176
2.40602	3027241.375211405
2.40795	2885008.5107391197
2.40989	3078775.504336684
2.41182	3542083.5108994753
2.41376	3703768.677203973
2.4157	3729872.9273487343
2.41764	3700231.6280781864
2.41958	3657297.257707376
2.42152	3534532.5662347833
2.42347	3464255.644507161
2.42542	3419687.765888027
