#wavelength	surface flux
0.676892	2833.790277065723
0.678297	2962.9277323317256
0.679702	3085.780771824203
0.681109	3203.675559424998
0.682517	3309.3571763535588
0.683926	3412.101730855029
0.685337	3504.7564508262158
0.686749	3583.279264030826
0.688164	3647.1282150996185
0.689581	3683.5798564841757
0.691	3685.0548586805007
0.692422	3605.203513761695
0.693847	3668.906508793941
0.695274	3676.1123317191245
0.696705	3700.2207565995727
0.698139	3713.0348221665968
0.699576	3668.936347255535
0.701017	3625.979781391761
0.702461	3551.209922438536
0.70391	3545.3443149335358
0.705362	3478.049453064633
0.706819	3414.916585843001
0.70828	3355.883943617746
0.709745	3246.377043332739
0.711216	3153.787087370331
0.71269	3058.609427146885
0.71417	2973.599139266352
0.715655	2773.8697228619612
0.717145	2527.0671821784476
0.71864	2353.1468385269372
0.72014	2326.828792559886
0.721647	2304.6192280074793
0.723158	2305.658806695208
0.724676	2173.9008221503054
0.726199	2025.2951363745456
0.727728	1823.9401226664074
0.729264	1911.932992783806
0.730805	1795.0865210951547
0.732353	1902.969105640082
0.733907	1863.6540508435394
0.735468	1713.2421471244147
0.737035	1777.7699088960892
0.738609	1726.3679054090546
0.74019	1690.8049104775575
0.741777	1650.653775395968
0.743372	1625.8004273559663
0.744973	1578.486454382901
0.746582	1518.3945973931059
0.748197	1451.8135358939571
0.74982	1407.0236601364832
0.751451	1344.953664319714
0.753088	1280.5810063302285
0.754734	1213.4421990656774
0.756386	1137.8708112346003
0.758047	1046.3003964029442
0.759715	930.3661260808607
0.76139	783.5378919630162
0.763074	587.8721990017075
0.764765	313.12969433321075
0.766464	111.98948434671485
0.768172	210.31834585807331
0.769887	158.22237256379358
0.77161	478.0020089747922
0.773341	868.8406757843072
0.775081	1165.450497502712
0.776829	1427.3960420080675
0.778585	1555.963227961149
0.780349	1481.8964309741425
0.782121	2111.592414495983
0.783902	2396.0541718904738
0.785691	2659.783142584102
0.787489	2968.6942075389493
0.789295	3287.8164633472757
0.79111	3620.785395861138
0.792933	3752.7494461335095
0.794764	3042.552827397041
0.796604	4473.793274812916
0.798453	5146.203478284369
0.80031	5644.329009691986
0.802176	6141.037315534908
0.804051	6751.9835869799
0.805934	7276.988935385968
0.807826	7912.803765558144
0.809727	8481.500468173395
0.811636	8914.080786652821
0.813554	8952.509128742962
0.81548	10195.714382523842
0.817416	11598.161803374373
0.81936	12786.751158863772
0.821313	14084.664041358154
0.823274	14541.424071657539
0.825244	15861.443889868156
0.827223	18100.217172818095
0.829211	19192.907132484368
0.831208	19810.755403425308
0.833213	22527.476505710914
0.835227	24068.784872388278
0.837249	24811.88630008567
0.83928	28304.00045512606
0.841321	30852.41936108522
0.843369	33448.318754067404
0.845427	35666.89669342257
0.847493	39940.21098601745
0.849567	41277.43132621502
0.851651	33779.744167032004
0.853742	46295.46949186903
0.855843	53278.26119305769
0.857952	56988.84761572585
0.86007	61134.980690163036
0.862196	63795.003542392675
0.864331	67816.30477505064
0.866474	73490.55721102636
0.868626	79484.43329003575
0.870786	84980.39028242888
0.872955	90896.62185167825
0.875132	95150.78388452803
0.877317	98757.25036419004
0.879511	102366.57811643377
0.881713	89720.94319710259
0.883923	81701.3302182071
0.886142	85851.26951943181
0.888369	79731.47104288763
0.890604	85986.07376215984
0.892847	73624.93042544913
0.895099	64759.43689310886
0.897358	92350.70767679218
0.899626	107304.59810575335
0.901901	130020.8317574288
0.904185	164330.64541141264
0.906476	181491.51619146127
0.908776	151441.3836693121
0.911083	172871.79036108707
0.913398	157965.48495054414
0.915721	185426.87193527233
0.918051	175121.00523071724
0.92039	197502.2886052707
0.922736	196694.53695015493
0.925089	160800.2449756632
0.927451	98616.02780834895
0.929819	52850.29938554853
0.932195	44961.879063260145
0.934579	46716.907030384
0.93697	120104.86460725058
0.939369	157435.85749856188
0.941774	141822.09691092244
0.944187	110286.99254470548
0.946607	132737.39525612225
0.949035	155270.93299391176
0.951469	93338.79678948013
0.953911	107131.60577680708
0.956359	89302.96437963023
0.958814	131661.63650284967
0.961277	77124.61940332585
0.963746	111318.97159942093
0.966222	146626.9362338772
0.968705	193714.2962577312
0.971194	213283.0280137605
0.97369	187259.57381839058
0.976193	241475.61284218053
0.978702	231427.87906423744
0.981217	233981.47046498695
0.983739	205495.31598305443
0.986268	260308.65825254924
0.988802	268572.6206859078
0.991343	283467.35778215533
0.99389	323388.3128912848
0.996444	364235.3605916257
0.999003	361406.39546982275
1.00157	441167.8571096068
1.00414	491556.3851840329
1.00672	543077.1913185953
1.0093	531474.3426001994
1.01189	555801.4860473761
1.01448	564693.3881164436
1.01708	583193.8629339308
1.01969	568176.417188741
1.0223	598264.5727654225
1.02492	626857.7673623234
1.02754	652000.7282709829
1.03017	649650.4162853784
1.0328	621640.8042333431
1.03544	709702.3725614675
1.03808	743087.9883883283
1.04073	738453.5335189105
1.04339	772744.9789781745
1.04604	828611.5957192631
1.04871	837300.4178089912
1.05138	863151.8313021276
1.05405	921686.6204101488
1.05673	946538.6601887282
1.05941	964071.3557150183
1.0621	989578.9928730334
1.06479	970556.7248027779
1.06749	974493.4637087706
1.07019	990110.3302466981
1.07289	991290.4711126364
1.0756	980796.6338893825
1.07832	933345.4470789687
1.08104	977235.7684868503
1.08376	989524.9676328147
1.08649	913596.1640644469
1.08922	778535.7933614531
1.09195	706742.128928765
1.09469	626532.9307736168
1.09743	534223.727098808
1.10018	433711.78643174504
1.10293	311762.1437059008
1.10568	218907.44257447714
1.10844	248989.22397838713
1.1112	172147.35759288975
1.11396	136625.6435620515
1.11673	101496.19240861628
1.1195	133309.96712714699
1.12228	85550.91643623592
1.12505	143537.43357184096
1.12783	162152.8006923698
1.13062	188806.24410708313
1.13341	65903.37667201855
1.1362	82541.59024916557
1.13899	203886.14451653135
1.14178	276316.96277145296
1.14458	161327.50343256685
1.14738	130884.95075467776
1.15019	226177.3809930835
1.153	153079.20246223087
1.1558	121412.42790519865
1.15862	188157.84536856491
1.16143	100001.30077976298
1.16425	80376.70042724596
1.16707	135150.99490937334
1.16989	205186.87522947503
1.17271	295832.6235711939
1.17554	346786.41836668365
1.17837	288875.6886445235
1.1812	515591.77266374783
1.18403	533536.2889258842
1.18686	494385.0988763397
1.1897	624417.1432480288
1.19253	680068.2402591198
1.19537	749004.6409088529
1.19822	764088.0579442476
1.20106	835868.8407345071
1.2039	932951.1605515329
1.20675	1047845.0884473249
1.2096	978127.8497180331
1.21245	1002632.1623726324
1.2153	1097669.1525574317
1.21815	985960.4861901226
1.221	1137483.8858817639
1.22385	1242210.7276021144
1.22671	1299825.224581688
1.22957	1525907.5452758304
1.23242	1523755.6549094424
1.23528	1563778.0142133848
1.23814	1553317.9055605582
1.241	1661096.8260906904
1.24387	1680116.2890936772
1.24673	1774681.908722836
1.24959	1732511.6828130453
1.25245	1700118.676164819
1.25532	1894851.6282503312
1.25818	1939757.4004310877
1.26105	1996635.5289250256
1.26392	1858540.1770807104
1.26678	1920785.3878821542
1.26965	1807759.0801179735
1.27252	1923536.4027848886
1.27538	1919079.7246019144
1.27825	1802354.1888359939
1.28112	1741060.2019989183
1.28399	1378704.4965700912
1.28686	1321783.8174448444
1.28973	1310059.7406387515
1.2926	1243492.3571104265
1.29546	1070468.621763167
1.29833	1047782.7977173944
1.3012	1238714.1733021082
1.30407	1189910.042839653
1.30694	1078478.3897580914
1.30981	1167084.4257831546
1.31267	1024799.9660251646
1.31554	880918.8118930588
1.31841	807372.260528324
1.32128	1167439.4080745461
1.32414	855821.9348785833
1.32701	615568.9348579366
1.32987	316408.2180984783
1.33274	316270.08499199897
1.3356	304075.4890771987
1.33847	63852.84619991595
1.34133	48277.0534800827
1.34419	66507.11506970623
1.34705	34643.07115471177
1.34991	41339.73891155396
1.35277	37330.797520764376
1.35563	14450.0024257446
1.35849	9846.293551553727
1.36135	14654.433695341328
1.3642	32781.461509765024
1.36706	21757.552931064693
1.36991	21631.234702596455
1.37277	23812.60380969223
1.37562	36301.69711154806
1.37847	29395.92920492484
1.38132	24492.088344129523
1.38417	8014.131453903321
1.38701	4202.563865321615
1.38986	25406.47925712597
1.39271	43436.42511079144
1.39555	15618.101845069255
1.39839	16650.5111861896
1.40123	25357.062957514387
1.40407	27094.607522500675
1.40691	25029.85497236007
1.40974	16534.020178760988
1.41258	37777.02342676272
1.41541	52772.99511974067
1.41824	23475.080447825854
1.42107	9368.350641463721
1.4239	11620.873775588392
1.42673	58571.220204614
1.42955	97469.97748389564
1.43237	60253.13356316054
1.43519	116212.61498557261
1.43801	115238.34508236547
1.44083	96229.13601321973
1.44365	112394.39621608779
1.44646	95887.77612948668
1.44927	168069.0785343559
1.45208	265810.9996545893
1.45489	196528.34768009503
1.45769	296060.7875923529
1.4605	245435.5985586302
1.4633	187695.50091065757
1.4661	299074.7172503711
1.4689	268909.13940382673
1.47169	202390.24032727137
1.47449	152535.19838652204
1.47728	128457.53375832454
1.48007	128554.23083821683
1.48286	204440.91933675433
1.48564	192442.6069435062
1.48842	190675.4897008893
1.4912	212176.35644374255
1.49398	139843.02614656137
1.49676	199218.79428681545
1.49953	294574.0669716198
1.5023	337657.3704382667
1.50507	401433.85610079
1.50784	387205.8566520937
1.51061	308758.64164669975
1.51337	258672.15261357298
1.51613	236171.94245966792
1.51888	245372.92946814897
1.52164	327315.7873061579
1.52439	418021.4183158882
1.52714	391894.9493346557
1.52989	524802.798525312
1.53263	562058.7674845866
1.53538	652504.1498272838
1.53812	767188.2097911836
1.54086	530447.219716555
1.54359	658787.3389829829
1.54632	687048.055318823
1.54905	647906.9224095214
1.55178	639662.0691196193
1.5545	800222.642346565
1.55723	1016659.5898437282
1.55995	1149795.7280658712
1.56266	1034965.823771548
1.56538	1584166.945432242
1.56809	1845249.3611683834
1.5708	1774728.365271808
1.57351	1635782.702236736
1.57621	1830762.320457074
1.57891	1734407.2028678826
1.58161	1968395.7441871031
1.5843	1934118.006475435
1.587	1956893.837820525
1.58969	1827530.2949651482
1.59238	1602071.0773941644
1.59506	1879964.7060022291
1.59774	2019452.134135118
1.60042	1788589.4414159418
1.6031	1523692.9615881029
1.60577	1402483.1738943027
1.60844	1196463.9684743115
1.61111	1097087.9431415736
1.61378	928957.4065673879
1.61644	812858.2962181102
1.6191	722110.2779631518
1.62176	836135.7130205625
1.62441	884805.1978181488
1.62707	862206.4731881962
1.62971	855870.2264271312
1.63236	692809.2724458288
1.635	919382.6514778736
1.63764	1142530.0247236541
1.64028	994218.5585977185
1.64292	863364.396208583
1.64555	605912.9968321668
1.64818	487372.5521068638
1.65081	804085.6126916659
1.65343	948297.6901685464
1.65605	661017.4000090272
1.65867	700256.6410403909
1.66128	1000558.6358346452
1.6639	709137.6182765603
1.66651	147824.88643927695
1.66911	69861.89825765361
1.67172	315842.3536532372
1.67432	562903.2943674009
1.67692	730020.3184276388
1.67951	568795.7868668231
1.68211	376994.97823891276
1.6847	256797.70590573206
1.68728	229699.10957853936
1.68987	226742.60327951572
1.69245	153974.1847895462
1.69503	159657.66131156633
1.6976	143341.21527921373
1.70018	137648.5284227673
1.70275	98238.41183836853
1.70531	110421.78533787232
1.70788	201757.3059535018
1.71044	372137.88787515595
1.713	600786.8485131763
1.71556	672360.1453748812
1.71811	671719.7707721051
1.72066	509607.69440154044
1.72321	289957.77490759076
1.72575	474166.76626994193
1.7283	570456.2592495857
1.73084	577902.7398261323
1.73337	410665.0712945096
1.73591	360190.84365793003
1.73844	512673.3121185886
1.74097	542179.2344647006
1.74349	586422.6987809155
1.74602	712926.0448098633
1.74854	846298.220189647
1.75105	872245.7768767915
1.75357	639987.2973491704
1.75608	314980.5791186226
1.75859	259043.9918144751
1.7611	244177.88418191226
1.7636	273920.95744834474
1.7661	312062.10323883547
1.7686	297537.30155552906
1.7711	374298.2427870679
1.77359	296140.0511803853
1.77608	186806.5393731533
1.77857	303621.4998982307
1.78105	426103.36281052075
1.78354	286226.0294833705
1.78602	195454.33363248428
1.78849	236759.11252117806
1.79097	198178.18397876236
1.79344	162800.94226278795
1.79591	216731.11893850705
1.79837	342423.7601373602
1.80084	212576.16445741174
1.8033	139742.55852084854
1.80576	149610.50050341437
1.80821	161549.44200132444
1.81067	163932.79336807705
1.81312	211344.89097013668
1.81557	217518.2855556504
1.81801	130493.5190690141
1.82046	99170.04966142063
1.8229	155686.58169904436
1.82533	137239.71676976891
1.82777	76956.43823761729
1.8302	78847.7509995379
1.83263	85248.23400940959
1.83506	66573.46211973649
1.83749	55058.164933156266
1.83991	76211.1365115635
1.84233	142389.53588228
1.84475	242276.07735723432
1.84716	162466.83665101574
1.84957	160065.56624352693
1.85198	245352.90338842527
1.85439	173822.39783492152
1.8568	83134.02310340952
1.8592	43260.51695676361
1.8616	61011.60591090114
1.864	76236.46600082582
1.86639	55157.766172191456
1.86878	30257.210852900414
1.87118	45169.959030504986
1.87356	60246.231855135535
1.87595	102605.51790086171
1.87833	265553.982265341
1.88071	335833.6641881808
1.88309	247588.52624553375
1.88547	210663.3390339655
1.88784	268674.4088124123
1.89021	285173.5459343044
1.89258	325379.89507082215
1.89494	454655.31919308164
1.89731	388858.80209629796
1.89967	209771.30977407942
1.90203	189544.0693730918
1.90439	161784.99134910584
1.90674	175309.88381172062
1.90909	164190.92333986307
1.91144	63252.77711658005
1.91379	53469.17920314722
1.91613	126061.93558960692
1.91848	145674.03995797777
1.92082	88023.28952995618
1.92315	73704.71833950494
1.92549	84263.10684883324
1.92782	81541.29857187164
1.93015	60161.634816868966
1.93248	40304.95338161215
1.93481	42738.79308827974
1.93713	46289.54204635
1.93945	49572.04046000624
1.94177	90405.91952527754
1.94409	98632.07755263535
1.94641	77465.26880850169
1.94872	60155.532693724184
1.95103	72637.71228227773
1.95334	91344.93231040031
1.95564	98014.71760044193
1.95795	113874.49129309591
1.96025	94199.60918907028
1.96255	79297.95517976805
1.96484	135431.1198983806
1.96714	194431.40204729035
1.96943	182619.9548580858
1.97172	173092.8970649495
1.97401	165361.64009795617
1.97629	167028.99146179247
1.97858	190529.02849973986
1.98086	153639.6825678697
1.98314	106176.8757242705
1.98541	165938.6356406181
1.98769	259230.09980604277
1.98996	234901.48640293238
1.99223	197865.76386899775
1.9945	274814.1285463623
1.99677	365391.5077239757
1.99903	400962.7207195638
2.00129	377726.0384610993
2.00355	326680.14344967454
2.00581	347278.76754791674
2.00806	417298.3497310328
2.01031	410699.45347825385
2.01256	420043.50290113746
2.01481	423827.7033663939
2.01706	360759.08775257325
2.0193	334938.11649003375
2.02154	404313.7452638913
2.02378	492942.6502595441
2.02602	477495.81386598287
2.02825	388787.30427042575
2.03049	402570.5863100039
2.03272	513018.8301946631
2.03494	567144.8212703168
2.03717	529069.8003483771
2.03939	522833.39709426224
2.04162	670122.9633947362
2.04384	822282.420722708
2.04605	874966.3656392392
2.04827	827235.4029836401
2.05048	825096.698337833
2.05269	877181.3649129932
2.0549	848901.4173761673
2.05711	823477.3246190565
2.05931	832002.0056826217
2.06151	952519.79118302
2.06371	1082367.7159137053
2.06591	1074554.6758958502
2.06811	1028563.4894498081
2.0703	1107582.1285246797
2.07249	1257240.3761281613
2.07468	1343016.1144296362
2.07686	1380636.6550997025
2.07905	1357887.1190411807
2.08123	1273518.1754601793
2.08341	1259425.91813976
2.08559	1309122.2809686721
2.08776	1353134.9738649097
2.08994	1381141.603821162
2.09211	1336252.80207093
2.09428	1279066.367381002
2.09645	1289718.9589680631
2.09861	1285529.234125974
2.10077	1240090.9267192972
2.10293	1262220.8178123683
2.10509	1348217.44123302
2.10725	1378380.0312164517
2.1094	1288129.4315169724
2.11155	1152684.1920148404
2.1137	1122097.2906391257
2.11585	1160615.0517236618
2.11799	1204775.5107888423
2.12013	1254201.1567851305
2.12227	1244322.764557634
2.12441	1219111.1336783601
2.12655	1202551.8808675152
2.12868	1169745.1483838416
2.13081	1138918.65051503
2.13294	1096438.1767760657
2.13507	1010223.1409746996
2.13719	963800.5554226093
2.13931	1036305.1835759621
2.14143	1073673.3630024767
2.14355	975502.1800685686
2.14567	846174.7218701298
2.14778	736183.6185407268
2.14989	683930.6593357244
2.152	694412.7753932078
2.1541	677259.9930221187
2.15621	627706.3955178733
2.15831	561395.8918310651
2.16041	428495.8534034159
2.16251	319552.0830869777
2.1646	330715.3641280401
2.1667	392944.55637884577
2.16879	454806.99453759147
2.17087	518870.52032935043
2.17296	539108.6949180249
2.17504	544718.0797464817
2.17713	559901.1794915664
2.1792	504712.548305796
2.18128	390688.3583175753
2.18336	319132.7515165875
2.18543	340571.3558286701
2.1875	355282.9139627162
2.18957	294073.56247437827
2.19163	232288.37575002803
2.1937	210490.09989868544
2.19576	179718.35938760382
2.19782	116129.46311325439
2.19987	53058.155910318776
2.20193	29576.67679765743
2.20398	36117.11401916022
2.20603	46209.500634478114
2.20808	50527.616249168685
2.21012	46057.53488371101
2.21217	44769.667661107036
2.21421	64223.83752628726
2.21625	82166.33287058662
2.21828	77653.3920648592
2.22032	65634.23516334927
2.22235	67154.33292239533
2.22438	77619.82863687875
2.22641	67517.238054781
2.22843	43463.75980288646
2.23046	27058.99856069333
2.23248	21695.792712475344
2.2345	21861.259253776552
2.23651	19323.46057114321
2.23853	18071.66644535691
2.24054	24875.022820480895
2.24255	32866.35811025732
2.24456	34438.795211192184
2.24657	29003.172008216206
2.24857	22144.851215526574
2.25057	17478.328380051422
2.25257	12901.92973091114
2.25457	8936.90741409959
2.25656	8502.784407997748
2.25856	13034.28537967229
2.26055	17207.498023198903
2.26254	17243.28971446341
2.26453	16134.044554764776
2.26651	16871.797453206702
2.2685	16924.338247073774
2.27048	17272.460662136047
2.27246	23149.75066340688
2.27443	26857.206604362163
2.27641	26235.395255518866
2.27838	27542.35719741707
2.28036	27843.19357863433
2.28233	22822.332221550965
2.28429	18290.452896413793
2.28626	15204.982677797898
2.28823	12187.479277754022
2.29019	9234.01382749104
2.29215	7557.703546742115
2.29411	8414.364442239841
2.29607	10948.795664124156
2.29802	13329.04906534679
2.29998	15971.702725469147
2.30193	22423.93736873103
2.30388	30877.077956628076
2.30583	38262.01852577372
2.30778	50811.99651318698
2.30972	76931.1017976587
2.31167	103159.58653934531
2.31361	97148.83547398294
2.31555	61563.30033301562
2.31749	23419.57833646861
2.31943	8584.50321582145
2.32137	6732.048186386989
2.32331	7616.941698871647
2.32524	7003.173532195024
2.32718	5524.699645217124
2.32911	4157.122201051666
2.33104	3525.8162327805258
2.33297	5633.416732757223
2.3349	11657.661208574917
2.33683	17918.535297819373
2.33876	19100.380720216333
2.34068	16573.26118376303
2.34261	13967.271336276159
2.34453	13131.794428483045
2.34646	15822.04469622864
2.34838	22358.436018312983
2.3503	26170.751739585332
2.35223	26989.25322324698
2.35415	25310.83235530523
2.35607	25692.033081032583
2.35799	35924.18353322771
2.35991	48468.6913762928
2.36183	53475.679016929374
2.36375	51108.72471482079
2.36566	47262.129586355804
2.36758	36140.85859603385
2.3695	24022.57285754467
2.37142	17771.57357256759
2.37334	18870.183686998487
2.37526	20791.27289956669
2.37718	20925.270940932685
2.3791	21473.4466921622
2.38101	23211.01734252472
2.38293	25602.641566816746
2.38485	27080.424832766592
2.38677	31914.83729557303
2.3887	39860.92931562627
2.39062	45580.371842714325
2.39254	48543.26172188315
2.39446	50545.58301625185
2.39639	51909.10711733209
2.39831	54330.88870649418
2.40024	69008.0181250321
2.40216	84477.48175796503
2.40409	91854.05012127766
2.40602	78878.63340377362
2.40795	62902.64257803011
2.40989	65010.42815492862
2.41182	86287.05003801428
2.41376	100060.45991558475
2.4157	103600.65130207255
2.41764	102927.23613985608
2.41958	101928.74018334901
2.42152	97634.5557987343
2.42347	91447.7338643869
2.42542	89238.11104680607
