#wavelength	surface flux
0.676892	769635.7866935136
0.678297	810638.0498505151
0.679702	848453.8723186515
0.681109	884308.4240704448
0.682517	916918.3847345867
0.683926	948794.8815421251
0.685337	977043.0756657411
0.686749	1002944.2409500787
0.688164	1026279.8258053861
0.689581	1040551.431797603
0.691	1043145.2847333931
0.692422	1051225.6645136755
0.693847	1050318.1666388358
0.695274	1069793.1658704502
0.696705	1075621.3063327633
0.698139	1075131.9676315626
0.699576	1069624.145345409
0.701017	1060838.8679892311
0.702461	1048451.8764901318
0.70391	1036563.9303587648
0.705362	1021513.6122505278
0.706819	1001130.9396277963
0.70828	979792.7487122607
0.709745	953103.0250233702
0.711216	925629.7066335204
0.71269	895409.9946596465
0.71417	863824.6258619744
0.715655	825299.6679833175
0.717145	783364.7988447667
0.71864	747403.1617126443
0.72014	713995.9710808576
0.721647	677816.0028371153
0.723158	643235.1713520424
0.724676	600646.3963201771
0.726199	557419.7738013058
0.727728	513992.8228366482
0.729264	479425.3895862078
0.730805	440085.3451344322
0.732353	407661.1430007926
0.733907	371328.88365406083
0.735468	333512.76774660416
0.737035	303131.63931642787
0.738609	270522.67966797197
0.74019	239728.4895905815
0.741777	210008.6322938453
0.743372	182093.00760846454
0.744973	155667.111812555
0.746582	130981.73145720274
0.748197	108468.31909931022
0.74982	88481.82477424935
0.751451	70658.72624753052
0.753088	55207.642731840955
0.754734	42102.16779411906
0.756386	31267.933976066022
0.758047	22563.89084607956
0.759715	15825.739611335255
0.76139	10802.34920857017
0.763074	7133.65049112878
0.764765	4042.34704389409
0.766464	1512.195083091496
0.768172	2980.28668828004
0.769887	2148.4156660459635
0.77161	5783.500990746515
0.773341	10730.749463793261
0.775081	17126.290021699027
0.776829	25980.70888078003
0.778585	33352.96584986802
0.780349	36062.28345040888
0.782121	72134.65842131995
0.783902	100379.29674046961
0.785691	132207.0883795142
0.787489	169812.46116715396
0.789295	213168.91326597496
0.79111	260787.2098359867
0.792933	281418.5246670456
0.794764	187112.11631779544
0.796604	404091.49553179747
0.798453	527231.7117605092
0.80031	619191.4497721432
0.802176	715897.3896024751
0.804051	822895.2669749258
0.805934	935831.0269177041
0.807826	1057677.3294106175
0.809727	1185774.1420719484
0.811636	1319981.3239045767
0.813554	1455487.5422457957
0.81548	1627873.1800434256
0.817416	1774922.1544435152
0.81936	1817667.7476317424
0.821313	2171449.5894733104
0.823274	2382904.472971695
0.825244	2593654.5527210296
0.827223	2832323.8624329297
0.829211	3048418.2020325153
0.831208	3270380.6831811974
0.833213	3555813.805065857
0.835227	3805938.9855234576
0.837249	4046920.2907785643
0.83928	4367540.64407712
0.841321	4671242.355299486
0.843369	4970772.633173932
0.845427	5256287.66624929
0.847493	5618542.736214151
0.849567	5765174.466532553
0.851651	4023084.0977674327
0.853742	5945226.545370441
0.855843	7099671.245471076
0.857952	7580350.468548015
0.86007	7802117.351953707
0.862196	6196106.876465299
0.864331	6838545.075547836
0.866474	7563142.560091351
0.868626	7986609.564988835
0.870786	7864630.738587971
0.872955	8143332.581630421
0.875132	7991196.265572554
0.877317	10113084.979792422
0.879511	10661415.888927532
0.881713	10440663.796233213
0.883923	11229215.326219508
0.886142	11670812.089829482
0.888369	11244552.889388984
0.890604	12646150.941991908
0.892847	10694756.440763906
0.895099	9398509.25124404
0.897358	13538208.850077365
0.899626	15172010.055689521
0.901901	16787176.15921492
0.904185	18130584.512315962
0.906476	17812299.227190442
0.908776	17894910.421929143
0.911083	18815215.18730727
0.913398	19441388.706178207
0.915721	20928456.695315126
0.918051	21425613.16917835
0.92039	23650670.288128834
0.922736	23981511.3301847
0.925089	23380373.172421567
0.927451	20448649.0564385
0.929819	17507073.46216808
0.932195	16507177.89557796
0.934579	17293470.765858155
0.93697	24362863.814754326
0.939369	26221298.898005713
0.941774	26236656.743446797
0.944187	23410694.889628366
0.946607	27558727.364179946
0.949035	27767346.60453154
0.951469	25130207.292227183
0.953911	26608384.981301792
0.956359	24287054.248970278
0.958814	29515029.885490697
0.961277	24957104.160192195
0.963746	24145441.57751799
0.966222	30185714.437675193
0.968705	32865336.472264107
0.971194	35272175.527564526
0.97369	33949627.36807251
0.976193	38557067.81380279
0.978702	38737055.06592279
0.981217	40468342.66815067
0.983739	39599870.55865365
0.986268	43515939.22502944
0.988802	43453769.55933456
0.991343	37196081.549210146
0.99389	40367771.4858558
0.996444	39918472.06580996
0.999003	31534256.96446385
1.00157	30921655.689076856
1.00414	34273410.55070246
1.00672	34851487.2127978
1.0093	37016149.93321739
1.01189	38277364.20400994
1.01448	42230278.51881837
1.01708	43134498.79825193
1.01969	46680546.690361574
1.0223	47887390.37187268
1.02492	48426954.961852424
1.02754	48081321.35844427
1.03017	51967963.27259895
1.0328	53796690.89480015
1.03544	54265773.74387349
1.03808	59533845.12875735
1.04073	60127558.711208366
1.04339	60483389.10703685
1.04604	60725098.308481716
1.04871	61065306.68846158
1.05138	62220228.09217334
1.05405	64966496.48814226
1.05673	64370841.00382159
1.05941	67910239.25661765
1.0621	67493151.06572235
1.06479	71159142.52503933
1.06749	72517595.84144993
1.07019	76055185.40576601
1.07289	76195691.95757785
1.0756	78802713.88560875
1.07832	81466750.54732595
1.08104	81128338.19341333
1.08376	84731414.98115668
1.08649	80469855.63783206
1.08922	78551990.81208386
1.09195	75019199.03539406
1.09469	71179820.73738839
1.09743	62721867.423279025
1.10018	57479097.23806933
1.10293	49826417.822985806
1.10568	41270714.982524805
1.10844	44522257.19683455
1.1112	38363490.14295302
1.11396	33093494.44765928
1.11673	30293319.91991345
1.1195	38695768.91511159
1.12228	34301632.417862
1.12505	38518509.63308556
1.12783	46206816.3409754
1.13062	40699654.08172583
1.13341	21296097.414078984
1.1362	26866361.933298163
1.13899	33599423.021324955
1.14178	40659538.53705746
1.14458	37450440.81878605
1.14738	40197489.70048569
1.15019	53108029.35918582
1.153	44294386.22101903
1.1558	40071201.55113345
1.15862	48689623.11880381
1.16143	36561077.44406448
1.16425	32672697.589940205
1.16707	30003712.906568076
1.16989	32615583.836761795
1.17271	42562709.17185282
1.17554	34073713.85749365
1.17837	29395114.029890943
1.1812	48690336.093033075
1.18403	51358905.59734971
1.18686	54455468.087971285
1.1897	60051084.52383439
1.19253	63779557.61654742
1.19537	67955884.76868828
1.19822	71093504.35578279
1.20106	74749360.8812496
1.2039	76480353.52632466
1.20675	80558810.49406305
1.2096	84754625.11712955
1.21245	87049762.15701655
1.2153	90344423.1257276
1.21815	90956149.89829822
1.221	95887048.15371856
1.22385	99166653.01440033
1.22671	101086781.9199371
1.22957	103636101.48060398
1.23242	104901015.03472157
1.23528	102824877.48758884
1.23814	100943093.5296932
1.241	89273953.65061451
1.24387	76326454.50249295
1.24673	93806302.81848615
1.24959	81267177.08546196
1.25245	59098910.8847342
1.25532	88291949.50648355
1.25818	105213397.98687829
1.26105	113226035.8046119
1.26392	113210987.76328547
1.26678	118374514.29915537
1.26965	117494165.77415514
1.27252	122281895.52364188
1.27538	123074131.60016659
1.27825	124154250.5507578
1.28112	124076453.37855043
1.28399	114050849.88313492
1.28686	116644550.11828208
1.28973	115633482.3173503
1.2926	115789663.02578051
1.29546	107848432.21639073
1.29833	103679682.63869967
1.3012	110733714.12518805
1.30407	113145672.49137029
1.30694	103574343.93745048
1.30981	108125069.5599523
1.31267	106891215.87495874
1.31554	97637272.27183235
1.31841	92309974.05628063
1.32128	97101450.25141697
1.32414	78085449.65015778
1.32701	61759254.96218606
1.32987	50020223.95329476
1.33274	30048120.704361472
1.3356	22836676.813137814
1.33847	8326849.265452335
1.34133	6566671.635289562
1.34419	8261820.561834131
1.34705	7142174.292354021
1.34991	8050046.100981011
1.35277	9453858.929028777
1.35563	3911817.8779229745
1.35849	4231206.486701333
1.36135	5763767.478375881
1.3642	8994976.671891512
1.36706	9968029.405476524
1.36991	9638261.980278777
1.37277	9891249.708906911
1.37562	9591667.527163697
1.37847	8770412.610482162
1.38132	7181685.525213853
1.38417	4561237.789070759
1.38701	2477333.488190531
1.38986	7180382.290909493
1.39271	7681090.239507214
1.39555	5213596.617989745
1.39839	8213492.478720504
1.40123	10130690.491934244
1.40407	9301643.690098247
1.40691	7572141.8233158775
1.40974	5767078.448256562
1.41258	8240056.075953508
1.41541	9317249.000968184
1.41824	5145000.812977639
1.42107	4468777.501572701
1.4239	4399585.946703001
1.42673	8842706.787142972
1.42955	11411201.630019825
1.43237	8681284.65731162
1.43519	11777473.63227688
1.43801	13226546.726966608
1.44083	12234246.158552205
1.44365	14124346.338487512
1.44646	13043192.518372651
1.44927	16083894.824657928
1.45208	20145129.026411552
1.45489	14931827.280474812
1.45769	21988806.94574447
1.4605	21760799.255715515
1.4633	14108677.414160872
1.4661	21853943.367846273
1.4689	21443832.461234257
1.47169	22848528.763759654
1.47449	22221731.017794542
1.47728	22008751.744466104
1.48007	22590282.417350814
1.48286	23944242.072537903
1.48564	22826364.24491362
1.48842	23604128.679184888
1.4912	26924629.660406623
1.49398	26542609.487441897
1.49676	30434417.271499533
1.49953	32003398.981408503
1.5023	34615627.82874126
1.50507	38865297.79342468
1.50784	35733480.29256186
1.51061	39005653.06836957
1.51337	40742281.51886121
1.51613	37412084.279001124
1.51888	36691660.26331482
1.52164	40439801.5796884
1.52439	44698935.281012766
1.52714	41889433.532445736
1.52989	44044777.73084283
1.53263	48444537.21404406
1.53538	52606081.41815518
1.53812	51968414.82280758
1.54086	49933927.351124726
1.54359	47740144.11318255
1.54632	53628306.37658892
1.54905	54143685.31122636
1.55178	54418208.69631037
1.5545	56183999.77758202
1.55723	56779633.098965704
1.55995	59855224.21322748
1.56266	59475031.808571585
1.56538	61751703.220335975
1.56809	66327642.408380866
1.5708	65714339.585059874
1.57351	65796373.233923875
1.57621	66400645.776385985
1.57891	66408989.53687417
1.58161	67721704.87460688
1.5843	67794622.87447824
1.587	67940587.6027219
1.58969	66594097.0549441
1.59238	64999783.185084864
1.59506	66701858.39264102
1.59774	67446447.65897432
1.60042	65762924.696130596
1.6031	63776839.3760881
1.60577	61015679.87633804
1.60844	59294221.6215109
1.61111	60937072.12474423
1.61378	59341017.30289053
1.61644	56065099.39374365
1.6191	53235778.96707037
1.62176	55964735.805159144
1.62441	54842177.01729566
1.62707	55330739.45848491
1.62971	50678159.98244355
1.63236	54623471.36741054
1.635	56625742.733052246
1.63764	59314932.3104417
1.64028	52526676.89427824
1.64292	54992554.086717576
1.64555	49433821.22921654
1.64818	54886420.89174038
1.65081	59101581.21813634
1.65343	55077478.928054325
1.65605	52351592.97464352
1.65867	54448759.36235767
1.66128	60249324.68303147
1.6639	52692188.909472495
1.66651	25989197.281369917
1.66911	22296625.04126418
1.67172	39139592.103083074
1.67432	49766011.08393691
1.67692	53579729.6185645
1.67951	52507485.44694613
1.68211	46733368.31763144
1.6847	39671869.57466625
1.68728	43189939.47129349
1.68987	43266444.74412085
1.69245	37791913.372810654
1.69503	35958723.42532451
1.6976	36711122.25505457
1.70018	37574589.389941454
1.70275	33355161.54846375
1.70531	31610485.548311446
1.70788	36256687.934386045
1.71044	38763073.965443335
1.713	39846120.16239163
1.71556	41115110.041535184
1.71811	42159436.39183868
1.72066	39125222.82341815
1.72321	31743924.716354687
1.72575	35271249.8728014
1.7283	39299105.36325319
1.73084	37535188.506552674
1.73337	33077681.85803555
1.73591	32761456.892184693
1.73844	33845535.17080831
1.74097	32395065.565140046
1.74349	30744870.25361911
1.74602	30641926.064405885
1.74854	34694676.95061919
1.75105	34331252.38482379
1.75357	27055653.40804934
1.75608	21778357.793914102
1.75859	24099564.253177483
1.7611	24037145.66679528
1.7636	23385489.211281117
1.7661	21317826.02896127
1.7686	18734701.10888246
1.7711	20121473.835243426
1.77359	19168523.64034523
1.77608	14284330.738385322
1.77857	14996136.617334161
1.78105	16783332.859812845
1.78354	13683138.705768038
1.78602	11761899.225188397
1.78849	14183433.187732501
1.79097	13004042.038870806
1.79344	11843984.806128917
1.79591	13618667.333412115
1.79837	16594476.686430873
1.80084	12023379.793886682
1.8033	11554074.46469552
1.80576	12090751.941280365
1.80821	11536758.279574903
1.81067	11666926.739471763
1.81312	13491076.023316752
1.81557	14539180.850917365
1.81801	11262272.393744169
1.82046	10004142.386031257
1.8229	11687404.047822399
1.82533	11129611.599278525
1.82777	9508341.452202635
1.8302	9994099.231688194
1.83263	10272373.726744717
1.83506	10070653.132670483
1.83749	10492517.008126477
1.83991	10928667.507693307
1.84233	11761593.005783487
1.84475	13255377.202002915
1.84716	11719580.827009803
1.84957	12954334.166042434
1.85198	14683484.866723778
1.85439	11334562.329256041
1.8568	8334714.75329707
1.8592	7116931.271855237
1.8616	7194188.65359349
1.864	7181552.094128987
1.86639	6478633.045155934
1.86878	5937052.87380527
1.87118	7899831.531833262
1.87356	9144814.406093214
1.87595	9965297.015049955
1.87833	13792978.219406644
1.88071	16638564.48024799
1.88309	14796242.27770421
1.88547	13670487.218521094
1.88784	15855873.055324052
1.89021	16529921.827134637
1.89258	17859224.549293227
1.89494	19228730.28548407
1.89731	16818752.066615194
1.89967	13851500.639273707
1.90203	14082977.732454201
1.90439	14364051.411934825
1.90674	18133998.563935198
1.90909	20070010.229207586
1.91144	13844552.962779956
1.91379	12111547.157630691
1.91613	16693845.537291477
1.91848	18029864.454812553
1.92082	14596213.27049284
1.92315	12745790.936698597
1.92549	13646611.426001634
1.92782	14241120.199507518
1.93015	12616579.795327676
1.93248	11573980.415495625
1.93481	11037123.431981228
1.93713	8533000.272312952
1.93945	6944570.55546476
1.94177	10652446.765529063
1.94409	13075526.555674644
1.94641	11981730.993256586
1.94872	12330862.338429453
1.95103	15495797.27314744
1.95334	15106894.828740202
1.95564	11409223.124849398
1.95795	10513178.530484807
1.96025	9774901.17053982
1.96255	9423404.36590663
1.96484	12114845.173585616
1.96714	14249784.18890459
1.96943	13940086.250140611
1.97172	14954004.299039556
1.97401	15553902.612231834
1.97629	15620806.673975142
1.97858	16242536.514845908
1.98086	14256524.801145524
1.98314	12867711.33018656
1.98541	15705934.991272751
1.98769	18227182.34833023
1.98996	15904399.435700925
1.99223	14486331.425009435
1.9945	17155462.008602902
1.99677	18420172.81935426
1.99903	17042540.33084919
2.00129	16374796.950086037
2.00355	17778769.139102086
2.00581	20083094.573817693
2.00806	19278237.053998526
2.01031	19208530.691498112
2.01256	23174686.888398793
2.01481	24604486.74610788
2.01706	21857714.988432933
2.0193	21946391.466876432
2.02154	25438898.04031853
2.02378	26416897.267249104
2.02602	23896317.762749184
2.02825	22758794.08936107
2.03049	24227531.106975973
2.03272	27132989.95122173
2.03494	28270934.54212377
2.03717	27825260.687853616
2.03939	28188479.355259433
2.04162	29613316.934838705
2.04384	30736272.01648718
2.04605	30870584.309908167
2.04827	29802041.520503312
2.05048	29617095.105489735
2.05269	29608718.54951085
2.0549	28537124.4028571
2.05711	29907694.304859255
2.05931	31161282.121683814
2.06151	30938927.364832208
2.06371	31344358.40965995
2.06591	31522674.784306154
2.06811	32178393.930648204
2.0703	33305766.480906818
2.07249	33783024.82165093
2.07468	33216165.329932492
2.07686	32743272.563642763
2.07905	33321201.373609908
2.08123	34038125.89456618
2.08341	34346352.86461825
2.08559	34174028.48055183
2.08776	34149217.824386895
2.08994	34394477.91087733
2.09211	34331786.17273912
2.09428	34462414.41964712
2.09645	34775584.23303358
2.09861	34389249.90343167
2.10077	33572480.45011686
2.10293	33354263.84590843
2.10509	33860509.047793135
2.10725	33990073.8743343
2.1094	33011455.809859104
2.11155	31556463.9895078
2.1137	31272613.326968502
2.11585	31711731.297889266
2.11799	32085014.246028718
2.12013	32677311.853405036
2.12227	32936444.406498123
2.12441	33036627.081514023
2.12655	32899282.61849275
2.12868	32286718.44190915
2.13081	32007959.42789712
2.13294	32020293.05469734
2.13507	31321019.447717723
2.13719	30805907.109191194
2.13931	31325147.95285482
2.14143	31660004.470677514
2.14355	31064931.227515843
2.14567	30006631.922124133
2.14778	28736888.294048075
2.14989	27945804.92783092
2.152	27890623.55910514
2.1541	27774865.22819857
2.15621	27572655.1863496
2.15831	27063421.9888696
2.16041	26131484.98653518
2.16251	25990176.620610613
2.1646	26197053.741709992
2.1667	26256470.830498215
2.16879	26748341.92213232
2.17087	27091597.36083877
2.17296	26543180.374120772
2.17504	25944945.461924754
2.17713	25690752.53180652
2.1792	24728260.206024714
2.18128	22425162.832680106
2.18336	20206933.390131384
2.18543	20105673.364602458
2.1875	20695291.401723243
2.18957	20248905.41660021
2.19163	19887686.58950711
2.1937	19779196.808712896
2.19576	18384501.452722188
2.19782	15467348.986846438
2.19987	12298731.099979788
2.20193	10412083.338136448
2.20398	9640876.051813591
2.20603	9326732.54213607
2.20808	9773664.199286519
2.21012	10492253.935124297
2.21217	11017571.566821896
2.21421	12095139.310771182
2.21625	13302804.793919502
2.21828	13878667.050848361
2.22032	14290346.849425036
2.22235	14318268.320572533
2.22438	13474668.208150782
2.22641	11836319.977415645
2.22843	10942609.44703548
2.23046	10833363.000113113
2.23248	10567158.409825288
2.2345	10049513.307235742
2.23651	9200563.151027009
2.23853	8525613.164423043
2.24054	8800833.167779207
2.24255	9893948.670745872
2.24456	10905159.082537599
2.24657	11240734.824827278
2.24857	11087107.952115186
2.25057	10689041.37755165
2.25257	10147831.006566498
2.25457	9330906.307369428
2.25656	8697409.91821735
2.25856	8566124.654066673
2.26055	8452816.911095003
2.26254	7641501.955386956
2.26453	6949118.686439792
2.26651	7039882.466734159
2.2685	7422918.29913887
2.27048	7684840.007007377
2.27246	8132682.09474599
2.27443	8237409.362988445
2.27641	8253610.07646156
2.27838	8514565.287528096
2.28036	8328154.718648853
2.28233	7710355.068625445
2.28429	7210642.216493155
2.28626	6719570.216221648
2.28823	6268159.125334646
2.29019	6082705.754332186
2.29215	6002440.751601336
2.29411	5976141.046603556
2.29607	6105310.950314236
2.29802	6642514.8534739
2.29998	7488750.602453679
2.30193	8463603.05985812
2.30388	9205646.356877225
2.30583	9615347.602946518
2.30778	10146700.884455517
2.30972	10891922.996059053
2.31167	11282276.499484144
2.31361	10106990.252465526
2.31555	7922256.930838824
2.31749	6254460.4102290105
2.31943	5832857.730924742
2.32137	5532053.669582048
2.32331	4931774.965128866
2.32524	4327829.720677148
2.32718	3710052.381613654
2.32911	3396693.563912086
2.33104	3628481.3630368942
2.33297	4124480.212989068
2.3349	4595917.673947941
2.33683	5192247.529880908
2.33876	5809689.744006836
2.34068	6275478.994297596
2.34261	6656874.020660665
2.34453	6997019.283787417
2.34646	7118810.243335068
2.34838	6846475.107278573
2.3503	6325919.904901244
2.35223	6237783.522193584
2.35415	6249181.656475786
2.35607	5894599.2090667095
2.35799	6126850.654676825
2.35991	7027627.977427174
2.36183	7901911.625149772
2.36375	8567044.414824288
2.36566	9233342.484608578
2.36758	8934753.84172353
2.3695	7697812.380603273
2.37142	6607737.24631675
2.37334	6222249.965135743
2.37526	5928574.624896425
2.37718	5576509.076707006
2.3791	5483700.119423613
2.38101	5474667.574301256
2.38293	5378287.200312306
2.38485	5437427.999217018
2.38677	6195446.879836567
2.3887	7239531.6208263645
2.39062	7685528.267841092
2.39254	7662544.068847153
2.39446	7834386.7523351135
2.39639	7968378.582241679
2.39831	7599125.341235354
2.40024	7356816.57066418
2.40216	7522085.173247285
2.40409	8057195.6277815895
2.40602	8122014.856259768
2.40795	7992742.608918288
2.40989	8548590.473761313
2.41182	9600696.502710385
2.41376	9879648.220399858
2.4157	9632266.180099698
2.41764	9216172.35527153
2.41958	9062144.521028796
2.42152	8974486.3684845
2.42347	8942392.517840058
2.42542	8742028.782326572
2.42737	9225712.346888626
