#wavelength	surface flux
0.676892	34403.905778719425
0.678297	36475.759304061015
0.679702	38473.38976513044
0.681109	40412.32615735628
0.682517	42160.414619788324
0.683926	43886.929819870784
0.685337	45483.47217289193
0.686749	46824.06327560406
0.688164	47931.199201700554
0.689581	48729.455019711444
0.691	48947.30513281104
0.692422	48066.43626003751
0.693847	48868.33207908964
0.695274	49097.83843281373
0.696705	49208.56822137593
0.698139	49375.94022258536
0.699576	48627.063757625285
0.701017	47739.75630567914
0.702461	46388.20988366527
0.70391	45778.11308180066
0.705362	44250.67034180083
0.706819	42811.21417955824
0.70828	41455.126180148414
0.709745	39309.46766132516
0.711216	37287.30783055754
0.71269	35447.71204255711
0.71417	33551.88916630589
0.715655	29886.39317917904
0.717145	26510.717963634885
0.71864	23728.942809467666
0.72014	22484.663663515017
0.721647	21326.133138243895
0.723158	21066.134492969308
0.724676	18854.278829579078
0.726199	16760.673184437936
0.727728	14245.65114237657
0.729264	14272.805447961828
0.730805	12658.340138682273
0.732353	12603.258429978205
0.733907	11547.328113796675
0.735468	9726.172315994801
0.737035	9750.857098484767
0.738609	8909.376405527375
0.74019	8172.98878570776
0.741777	7455.218451353183
0.743372	6907.596259554445
0.744973	6294.049913311618
0.746582	5694.197161928676
0.748197	5112.75806024939
0.74982	4705.927419077566
0.751451	4259.318125582253
0.753088	3849.255321699964
0.754734	3462.4289038946345
0.756386	3074.889637840494
0.758047	2679.775279903706
0.759715	2264.3619141174267
0.76139	1818.2583085820424
0.763074	1315.532884098634
0.764765	696.7056368898358
0.766464	205.1174960806521
0.768172	455.54986606257194
0.769887	314.4951496828619
0.77161	1060.158260258429
0.773341	1961.4985255832316
0.775081	2751.214703468013
0.776829	3536.6396367321827
0.778585	4042.47324489387
0.780349	4029.1773153802183
0.782121	6054.134550625685
0.783902	7187.763878840471
0.785691	8371.834414865145
0.787489	9843.742219350765
0.789295	11491.806075523697
0.79111	13290.193396614466
0.792933	14094.597524489616
0.794764	10657.69252977111
0.796604	18660.184069823506
0.798453	23353.379728638294
0.80031	27313.856207025936
0.802176	31366.74036314727
0.804051	36634.57915812105
0.805934	41509.57873369823
0.807826	47472.75535741346
0.809727	53390.552741426094
0.811636	58739.13972026496
0.813554	62488.949873257065
0.81548	73233.48342572161
0.817416	86492.51026692752
0.81936	95825.6621791397
0.821313	111577.79255720529
0.823274	122331.51689780052
0.825244	132819.97568718405
0.827223	157730.53975248482
0.829211	169211.88744025544
0.831208	181211.35508049774
0.833213	213400.6082541159
0.835227	231860.93211109954
0.837249	233011.0524638929
0.83928	276824.0805880857
0.841321	312445.80341798655
0.843369	340814.42268787377
0.845427	367172.8814968052
0.847493	423853.945306443
0.849567	421668.14269227046
0.851651	315016.64934070216
0.853742	489503.0361263553
0.855843	585786.2594504368
0.857952	637475.1043640471
0.86007	692377.0602826949
0.862196	689151.2543092084
0.864331	741721.6376435796
0.866474	824287.6954856378
0.868626	897895.6500660956
0.870786	942258.9007758715
0.872955	1020952.2009240494
0.875132	1048472.0352187036
0.877317	1164184.652362654
0.879511	1214928.433324361
0.881713	1007460.958482768
0.883923	895530.7568649838
0.886142	979812.3029572091
0.888369	873880.6797674317
0.890604	972011.6316328199
0.892847	785235.0201330155
0.895099	659294.6498779685
0.897358	1130054.4232907563
0.899626	1339471.127121592
0.901901	1615002.5079661217
0.904185	2089549.709588993
0.906476	2316590.5660675685
0.908776	1947323.0791123707
0.911083	2273768.0496553225
0.913398	2096281.3533114935
0.915721	2495034.5805294164
0.918051	2413679.4511657655
0.92039	2687075.765519618
0.922736	2569113.8433129136
0.925089	2053653.4093701355
0.927451	1256529.2001166642
0.929819	654479.390492391
0.932195	495031.46826733096
0.934579	478535.03489367175
0.93697	1675736.1984117352
0.939369	2123316.688765623
0.941774	1762528.920581498
0.944187	1459319.3309604425
0.946607	1946801.7040355494
0.949035	2353923.4173921533
0.951469	1148977.7929070801
0.953911	1480288.0822374332
0.956359	1297062.6532041691
0.958814	1865888.997976624
0.961277	1032691.2449454833
0.963746	1458546.296244337
0.966222	1952779.7756734514
0.968705	2385800.8696889984
0.971194	2647360.407652441
0.97369	2358897.7394881053
0.976193	3166491.5465316214
0.978702	2897503.043350897
0.981217	2867320.7957435353
0.983739	2138031.277404904
0.986268	3094737.0862540957
0.988802	3360772.507213153
0.991343	3211536.183398602
0.99389	4109080.1528650597
0.996444	4624906.148150575
0.999003	3455697.069032687
1.00157	4617415.106178318
1.00414	5457633.936303673
1.00672	6432375.873145531
1.0093	6262796.738836572
1.01189	6934331.61012209
1.01448	7669537.865996588
1.01708	8325838.7334085405
1.01969	8997096.21846769
1.0223	9215609.667844847
1.02492	9516272.218300397
1.02754	10339236.99728548
1.03017	11271352.840563763
1.0328	10823915.652369611
1.03544	12019628.434815612
1.03808	13821785.909555374
1.04073	13022124.58364786
1.04339	13836943.182934983
1.04604	13998153.197900817
1.04871	14620969.97752126
1.05138	15169263.012079155
1.05405	16671505.41067811
1.05673	16275218.02357493
1.05941	17709595.434116688
1.0621	17503878.935725376
1.06479	17735967.095952127
1.06749	17904587.920537125
1.07019	19120206.71230881
1.07289	18762725.48043631
1.0756	18603258.48405089
1.07832	17318281.967403606
1.08104	18222568.384389363
1.08376	17618409.708095156
1.08649	15488614.944545833
1.08922	11059309.01285437
1.09195	8544754.48221545
1.09469	6799582.318980072
1.09743	5543400.536511326
1.10018	4280186.6989669725
1.10293	3004746.8495829706
1.10568	2115708.9053446003
1.10844	2531724.8992016218
1.1112	1563974.9596791468
1.11396	1306886.2935844595
1.11673	868309.6764186907
1.1195	1188975.0472707879
1.12228	735179.5004855994
1.12505	1266410.2384502615
1.12783	1701718.6584991403
1.13062	1867378.7485549697
1.13341	457844.8200829874
1.1362	658060.5482327391
1.13899	1464401.7286773738
1.14178	2276529.9679520833
1.14458	1455522.731865365
1.14738	1235812.587840819
1.15019	2266432.235777702
1.153	1448461.9186382126
1.1558	980737.411335521
1.15862	1722408.7389090625
1.16143	754770.5748353908
1.16425	487849.3752351516
1.16707	1160686.3678233705
1.16989	1466643.6721690504
1.17271	2216133.9537866795
1.17554	2532866.9672657037
1.17837	1637201.2185283338
1.1812	4279759.870037075
1.18403	5042020.448214602
1.18686	4128355.6494574463
1.1897	5341213.809429445
1.19253	5983914.203904635
1.19537	7242029.345449544
1.19822	6793997.801065172
1.20106	7571008.272651894
1.2039	9121879.351807775
1.20675	11221912.786081154
1.2096	12095797.215960205
1.21245	12186669.217665564
1.2153	13164999.95853988
1.21815	12278142.402429419
1.221	13862279.444568466
1.22385	15590285.226949528
1.22671	16398967.70586828
1.22957	19390033.21398084
1.23242	19523622.639666464
1.23528	19041187.037211806
1.23814	20256668.880431123
1.241	21632795.827895
1.24387	19781812.18737612
1.24673	23604936.90744522
1.24959	21748294.39465215
1.25245	17119799.411369473
1.25532	25466151.53006536
1.25818	26726707.260793336
1.26105	27575946.521183852
1.26392	20968589.69801259
1.26678	23574857.169896282
1.26965	19495603.781258043
1.27252	23883409.513925035
1.27538	25072100.57183179
1.27825	22245522.615979854
1.28112	22084870.90655018
1.28399	16196942.170608291
1.28686	15575635.485660555
1.28973	14930726.441056836
1.2926	14836899.274606023
1.29546	11995611.449348599
1.29833	10991690.876155866
1.3012	14377696.300490296
1.30407	14686779.490960333
1.30694	11532318.102339435
1.30981	11638422.720349392
1.31267	12192017.852367364
1.31554	8859530.799539639
1.31841	7998941.564983607
1.32128	11022474.0158078
1.32414	6651737.531869212
1.32701	3745976.6000778754
1.32987	1975366.6014887241
1.33274	1839070.1501228404
1.3356	1352153.6558015782
1.33847	252009.4012006584
1.34133	217404.4665457398
1.34419	286910.311408055
1.34705	172072.8419068121
1.34991	269056.73684292816
1.35277	251150.09436950207
1.35563	91271.43236565222
1.35849	70806.34990342104
1.36135	104369.85165334298
1.3642	212634.8265618228
1.36706	145112.16778866074
1.36991	119276.22161265447
1.37277	147804.23051476871
1.37562	116895.55475567344
1.37847	94770.53375625538
1.38132	189299.17526037723
1.38417	60787.53792880827
1.38701	16458.628589879514
1.38986	124606.536469056
1.39271	234617.33124177856
1.39555	90165.31232661707
1.39839	109663.42523280974
1.40123	171484.33040678696
1.40407	147272.0233040887
1.40691	119139.68200674588
1.40974	83677.3484200315
1.41258	202916.2672029302
1.41541	260379.92832248623
1.41824	107920.26363558514
1.42107	36503.96247344973
1.4239	50005.54737192216
1.42673	270038.5765026593
1.42955	437231.3117762027
1.43237	253071.6446471912
1.43519	481871.4328921021
1.43801	493001.0171656956
1.44083	372937.79691523674
1.44365	412964.1285875137
1.44646	368037.5514815035
1.44927	614690.9773409286
1.45208	1168668.8468766678
1.45489	876427.9008180369
1.45769	1310328.1671384606
1.4605	998402.0981205243
1.4633	715859.4518381477
1.4661	1257037.0284884477
1.4689	1110874.1974138508
1.47169	877393.0730507317
1.47449	810851.5270643964
1.47728	889132.6250044877
1.48007	824411.8293243517
1.48286	951773.6641663276
1.48564	1017444.7870277272
1.48842	1251092.3598727884
1.4912	1424283.910060263
1.49398	778255.5210018671
1.49676	1114712.3472480364
1.49953	1500054.493758771
1.5023	2325394.4169252533
1.50507	2741641.941035557
1.50784	2370670.854140256
1.51061	2537668.823797983
1.51337	2598566.547808265
1.51613	1733099.508795049
1.51888	1431734.75260411
1.52164	2274590.722666715
1.52439	3109664.718375559
1.52714	2465166.862164557
1.52989	2833969.205366703
1.53263	3607377.3939265693
1.53538	4465674.262281367
1.53812	4057447.936561672
1.54086	2832356.393572262
1.54359	3142084.787336824
1.54632	4430331.644006997
1.54905	4407369.703711899
1.55178	4115606.844288326
1.5545	4332661.881334286
1.55723	5807432.4367307965
1.55995	6647585.950924312
1.56266	5260907.893413025
1.56538	8521420.540708423
1.56809	10671399.263753602
1.5708	9308945.182127455
1.57351	8695412.486203786
1.57621	8824180.6150364
1.57891	8540384.407207636
1.58161	10442903.879979797
1.5843	9691446.09383511
1.587	9444997.866539791
1.58969	8848753.46240632
1.59238	7581848.632744003
1.59506	9227341.726517424
1.59774	9928180.416610107
1.60042	8208289.199424786
1.6031	6518824.551036598
1.60577	5963491.221930457
1.60844	4829945.203602605
1.61111	4430529.038971863
1.61378	3708072.488918568
1.61644	3686119.465343536
1.6191	3176931.8168468797
1.62176	3819011.4742335896
1.62441	4339604.005153657
1.62707	4836286.902776712
1.62971	5097240.596234253
1.63236	4169238.3188874
1.635	5857658.712822899
1.63764	6721708.4901259765
1.64028	4976957.566183083
1.64292	4156764.8823732417
1.64555	2816864.0875945385
1.64818	2244829.061877032
1.65081	4617743.773682896
1.65343	5635365.729504214
1.65605	3284793.104044817
1.65867	2772620.9898149935
1.66128	4656360.427300965
1.6639	3502986.44666947
1.66651	763068.1455164924
1.66911	180117.51764687026
1.67172	853277.1484831716
1.67432	1838182.807330055
1.67692	2929476.057385192
1.67951	2255927.591483881
1.68211	1469768.7017210156
1.6847	898520.0316991463
1.68728	704801.8915210001
1.68987	690635.0315613388
1.69245	565111.9006502273
1.69503	492808.71764700767
1.6976	495052.18498691363
1.70018	530367.0719902385
1.70275	331349.3453558304
1.70531	418159.72472928825
1.70788	753188.6038047504
1.71044	1440417.8991529066
1.713	2408816.003907916
1.71556	2655687.006875605
1.71811	2536215.764947572
1.72066	1715367.8371188235
1.72321	927983.1480602256
1.72575	1627703.1799257721
1.7283	2203562.366505493
1.73084	2246608.94567072
1.73337	1280713.9377062775
1.73591	945275.7598796145
1.73844	1395772.1982087628
1.74097	1368724.2733514656
1.74349	1491407.0721013856
1.74602	2032785.5005847611
1.74854	2541881.110952448
1.75105	2654400.160307288
1.75357	1983681.916195731
1.75608	957292.8901365023
1.75859	685879.0885252631
1.7611	618342.422239506
1.7636	836468.6778340811
1.7661	1000747.3097396314
1.7686	896914.4473073016
1.7711	1176832.9184258422
1.77359	873452.1816267194
1.77608	536957.4204348539
1.77857	1071393.1436390148
1.78105	1548000.6725060928
1.78354	1013600.4105115324
1.78602	705495.4525998039
1.78849	818401.3985481523
1.79097	706957.3226068713
1.79344	609783.1601456009
1.79591	769697.1898055914
1.79837	1256592.0759062276
1.80084	849743.0540581645
1.8033	634052.7048266471
1.80576	647618.4672568478
1.80821	708685.8330248072
1.81067	733130.8149959053
1.81312	946041.2441154721
1.81557	950727.2702724254
1.81801	469777.5168281898
1.82046	394839.3052873342
1.8229	659648.9176830515
1.82533	550901.7569656632
1.82777	402550.97172552376
1.8302	469199.3398307312
1.83263	440917.71241565334
1.83506	326988.4351142965
1.83749	311772.72740938136
1.83991	428691.6807464245
1.84233	655253.4986097729
1.84475	950455.9029475268
1.84716	667662.3324995836
1.84957	626420.6208486495
1.85198	849658.3096663607
1.85439	658078.3730040345
1.8568	361554.55260967364
1.8592	205299.85453539874
1.8616	281138.46061718825
1.864	333911.3275323562
1.86639	231951.77177205682
1.86878	163889.07577128967
1.87118	293188.0933653248
1.87356	340836.6413093841
1.87595	440999.63033326174
1.87833	1040324.4476888439
1.88071	1321617.3805470504
1.88309	967460.0347048527
1.88547	846458.7134746194
1.88784	1086904.47425018
1.89021	1185841.0611209264
1.89258	1414493.4977868982
1.89494	1968881.205992974
1.89731	1715141.1728550901
1.89967	960581.3154098642
1.90203	863750.8344075797
1.90439	842929.441975171
1.90674	1031041.9683322775
1.90909	978759.7341606985
1.91144	408736.2664325898
1.91379	357463.592341049
1.91613	797369.2337714477
1.91848	958410.0091509807
1.92082	600241.3828679464
1.92315	480644.1563547043
1.92549	571991.7776619932
1.92782	549961.1289457062
1.93015	380542.2288926662
1.93248	219114.44384658505
1.93481	191401.37909989964
1.93713	205391.82589674994
1.93945	245393.40199117633
1.94177	510089.8352570691
1.94409	623638.7256840055
1.94641	572651.1698736926
1.94872	550878.6387026119
1.95103	669232.2799846546
1.95334	696387.4245830026
1.95564	573019.7772305075
1.95795	568621.4794790883
1.96025	440338.0222105251
1.96255	376381.30802682124
1.96484	651351.1149761648
1.96714	895134.0380651505
1.96943	869942.271137847
1.97172	952521.9396470018
1.97401	923912.72086581
1.97629	823646.5179555145
1.97858	888777.5967087211
1.98086	731406.731813458
1.98314	511444.60711341863
1.98541	765780.6224980252
1.98769	1229968.577243687
1.98996	1205198.9002638417
1.99223	1076623.8202651022
1.9945	1378893.3570114372
1.99677	1615245.4352199016
1.99903	1613609.6648963075
2.00129	1546917.7403050766
2.00355	1401159.200600263
2.00581	1479007.3434652528
2.00806	1744778.342526244
2.01031	1869698.4761316085
2.01256	2173487.477268566
2.01481	2334557.30297445
2.01706	2039028.5330265914
2.0193	1898053.4868358546
2.02154	2166843.7477366203
2.02378	2441162.5398821863
2.02602	2319440.891780089
2.02825	2086595.1110289549
2.03049	2166902.233264553
2.03272	2512361.953721964
2.03494	2750680.2266511344
2.03717	2679785.2677013413
2.03939	2667078.2239710744
2.04162	3345309.30226247
2.04384	4013320.748976348
2.04605	4141564.736183453
2.04827	3795381.519539372
2.05048	3688342.587465791
2.05269	3753655.9652045136
2.0549	3373118.652274706
2.05711	3379195.5517831384
2.05931	3518796.4652899564
2.06151	3777549.628028756
2.06371	4081894.4381916593
2.06591	3945233.0591341765
2.06811	3931890.916765238
2.0703	4408458.872236392
2.07249	5008830.127831891
2.07468	5260182.212872623
2.07686	5171719.447276275
2.07905	4988654.0174070615
2.08123	4743882.519647196
2.08341	4673166.727860471
2.08559	4768101.417216375
2.08776	4963002.933214861
2.08994	5101801.008995167
2.09211	4943936.836662748
2.09428	4902894.31976669
2.09645	5060682.98012248
2.09861	4859126.898918978
2.10077	4459852.727095143
2.10293	4415348.012880444
2.10509	4669346.295382248
2.10725	4738822.759976709
2.1094	4243530.175768437
2.11155	3529149.9456570414
2.1137	3384739.7729315385
2.11585	3570016.0496416804
2.11799	3845423.441901216
2.12013	4199577.467554664
2.12227	4232047.257588824
2.12441	4154066.47922179
2.12655	4061416.145926732
2.12868	3879381.3904925776
2.13081	3777053.2211397043
2.13294	3609389.8792935573
2.13507	3187014.6035894174
2.13719	2910674.4550756128
2.13931	3182911.018268433
2.14143	3393282.2117184247
2.14355	3037214.034070847
2.14567	2559520.5099795037
2.14778	2150953.3886983125
2.14989	1945293.99845667
2.152	2056338.862115288
2.1541	2118865.3288073125
2.15621	2023917.0828836386
2.15831	1778367.3333129897
2.16041	1292145.8558387174
2.16251	989424.7399911167
2.1646	1060390.690174151
2.1667	1200399.6251109934
2.16879	1387922.0869943593
2.17087	1654993.2022997385
2.17296	1737121.7996141072
2.17504	1746458.8849891087
2.17713	1830197.0429383738
2.1792	1728600.9524096404
2.18128	1396593.1294767307
2.18336	1041497.9005490423
2.18543	912746.6314773645
2.1875	887851.8378172255
2.18957	758900.1665833936
2.19163	640142.3235785642
2.1937	631581.6719829729
2.19576	562703.2287657838
2.19782	361268.86473489774
2.19987	168993.934844533
2.20193	100783.80494000656
2.20398	111788.45151146514
2.20603	125080.44544323959
2.20808	136217.0498753958
2.21012	141280.48783383175
2.21217	147634.7919190676
2.21421	192465.83874854998
2.21625	234449.97132724023
2.21828	229203.69380023296
2.22032	218630.7357269907
2.22235	234781.48100846808
2.22438	257545.1798709017
2.22641	240579.0447896051
2.22843	217174.19016591983
2.23046	183922.6092368086
2.23248	124923.28713335108
2.2345	79665.04725914024
2.23651	60282.16971157393
2.23853	62778.828951100615
2.24054	90352.56551319505
2.24255	124626.18909814129
2.24456	146733.2957122853
2.24657	149071.29743284264
2.24857	132815.7634565896
2.25057	104823.36251615136
2.25257	72325.01098958058
2.25457	49426.838846947016
2.25656	45055.84656537766
2.25856	51557.62836494959
2.26055	53238.5824144324
2.26254	49907.788412964226
2.26453	56432.54539664947
2.26651	71036.87715092878
2.2685	72561.00912058043
2.27048	65241.982446187234
2.27246	72171.12305037896
2.27443	76977.40989391501
2.27641	77746.32681052187
2.27838	88202.48702624619
2.28036	93654.95806169824
2.28233	83263.37422760205
2.28429	69197.88544479765
2.28626	56640.56447516386
2.28823	43645.53575748791
2.29019	30996.688078702122
2.29215	23199.31747211698
2.29411	25945.46106389861
2.29607	36480.06114441955
2.29802	49855.619687622864
2.29998	69060.39331845273
2.30193	99487.50285575386
2.30388	127850.52802555783
2.30583	140308.23042530078
2.30778	154588.0766184949
2.30972	195249.1003669969
2.31167	247580.8751916481
2.31361	238254.07334680622
2.31555	160237.40090841244
2.31749	70064.72028228089
2.31943	34181.7863372702
2.32137	27749.44531286576
2.32331	26952.76629142329
2.32524	24519.868257247173
2.32718	21460.820807986704
2.32911	18027.35013275117
2.33104	15713.200873608073
2.33297	21065.862323693975
2.3349	39709.53396454759
2.33683	63650.94740873529
2.33876	73030.93380590963
2.34068	68827.78437313315
2.34261	61846.90546829797
2.34453	60171.41820691791
2.34646	69343.4708209864
2.34838	88744.26301993155
2.3503	99329.94145815365
2.35223	101852.64222081128
2.35415	95059.44667853898
2.35607	84764.97304738649
2.35799	93979.40886386494
2.35991	118273.75744864848
2.36183	140321.6165970746
2.36375	150398.34124294473
2.36566	147722.34034605158
2.36758	120250.52914642882
2.3695	92681.49790611908
2.37142	83294.9063594967
2.37334	87585.51250050412
2.37526	81636.87289873773
2.37718	68637.52926528962
2.3791	60668.417001490794
2.38101	60160.98514628812
2.38293	66756.90996179791
2.38485	79992.89685275653
2.38677	105283.43569827058
2.3887	127328.1422321496
2.39062	127830.02094733548
2.39254	121328.3045275339
2.39446	127234.71041857128
2.39639	140262.62916381392
2.39831	152395.31081336996
2.40024	182128.4913971084
2.40216	215446.0756690555
2.40409	245482.6434457619
2.40602	230425.74402652116
2.40795	191054.07090333092
2.40989	180195.78390706083
2.41182	215947.87278726988
2.41376	250658.42655897324
2.4157	288544.55580323265
2.41764	309311.0939234368
2.41958	298865.95933126286
2.42152	261683.6133059803
2.42347	236208.80875982207
2.42542	246665.4561668021
2.42737	303569.3876024539
