#wavelength	surface flux
0.8	20359.97574180693
0.8002000000000001	20635.10167981971
0.8004000500000003	20934.645455929378
0.8006001500125003	21187.33464949997
0.8008003000500035	21478.58320723696
0.8010005001250161	21694.295752460825
0.8012007502500472	22100.487494634293
0.8014010504376099	22341.96904519713
0.8016014007002193	22557.676995497535
0.8018018010503944	22923.604833142745
0.8020022515006572	23123.113836070435
0.8022027520635323	23499.25061191704
0.8024033027515483	23820.446485008375
0.8026039035772362	24009.980967880903
0.8028045545531306	24478.857923243322
0.8030052556917691	24654.52941940598
0.803206007005692	25066.305137146246
0.8034068085074435	25287.28506349586
0.8036076602095705	25742.705249524995
0.8038085621246229	26097.876832593643
0.8040095142651542	26494.025711759867
0.8042105166437206	26654.614284994765
0.8044115692728815	27037.65382312625
0.8046126721651998	27317.129355379235
0.8048138253332411	27826.253520838927
0.8050150287895745	28292.012192731887
0.805216282546772	28603.147200670115
0.8054175866174087	28776.08484741812
0.8056189410140631	29250.608334075878
0.8058203457493168	29547.157795071555
0.8060218008357541	30091.902472404778
0.8062233062859632	30052.33930103869
0.8064248621125346	30707.882994182026
0.806626468328063	31186.321208331152
0.8068281249451449	31481.258832408777
0.8070298319763813	31798.85678925628
0.8072315894343755	32089.688366930128
0.8074333973317341	32709.002687799297
0.8076352556810671	33148.511032171875
0.8078371644949874	33498.95885356493
0.8080391237861113	34127.72983366169
0.8082411335670578	34190.75910955516
0.8084431938504498	34617.243599935224
0.8086453046489125	35000.82282458608
0.8088474659750746	35262.73023537961
0.8090496778415686	35739.44709682767
0.809251940261029	35424.89031264789
0.8094542532460944	36811.6503905527
0.8096566168094059	37136.287867853556
0.8098590309636085	37534.85289791853
0.8100614957213493	36933.814612533846
0.8102640110952797	37975.45933898167
0.8104665770980536	38260.26537725012
0.8106691937423283	39095.13320035665
0.8108718610407639	39078.0599599766
0.8110745790060241	39145.48035937463
0.8112773476507757	40093.75398236677
0.8114801669876885	40336.45059788533
0.8116830370294355	40381.00581863665
0.8118859577886929	42711.394940364706
0.8120889292781401	42080.633898520704
0.8122919515104597	41657.86539040269
0.8124950244983374	41291.95050623769
0.8126981482544621	43644.33111468255
0.8129013227915257	44341.3665214058
0.8131045481222237	44750.95774868708
0.8133078242592543	43912.414529743925
0.8135111512153191	44514.26514518164
0.813714529003123	44295.45713744315
0.8139179576353739	46130.99470021211
0.8141214371247829	46643.784034881544
0.8143249674840641	45174.66682913761
0.814528548725935	48049.21509758611
0.8147321808631167	49298.27144331027
0.8149358639083326	48632.21143892395
0.8151395978743097	46549.86128756642
0.8153433827737784	51183.497812401765
0.8155472186194719	49847.21348057317
0.8157511054241268	50680.83977557253
0.815955043200483	52625.32043084491
0.8161590319612831	53848.217660705464
0.8163630717192736	50247.99857909736
0.8165671624872033	53501.331100316944
0.8167713042778252	54834.04264892072
0.8169754971038948	56763.741135334625
0.8171797409781707	52791.65556767274
0.8173840359134155	58439.6431725535
0.8175883819223938	59407.21199960133
0.8177927790178745	59354.224786078
0.8179972272126291	57638.31710752603
0.8182017265194322	60570.82944972906
0.8184062769510622	58854.14330146046
0.8186108785203001	62603.64380409543
0.8188155312399301	61300.27118932822
0.8190202351227402	63064.03236516838
0.819224990181521	62657.707119956445
0.8194297964290664	62521.84244097561
0.8196346538781738	64192.434097775156
0.8198395625416434	66778.38253250475
0.8200445224322789	65638.51969577263
0.820249533562887	67760.45037252292
0.8204545959462778	69238.79453760278
0.8206597095952644	69981.63472103071
0.8208648745226633	70649.63254410625
0.8210700907412941	71278.72187170398
0.8212753582639793	72183.6710877559
0.8214806771035456	73268.14237916995
0.8216860472728215	74126.6784287285
0.8218914687846397	74517.782910303
0.822096941651836	75303.7457323203
0.822302465887249	76167.41135747847
0.8225080415037209	77011.36711902848
0.8227136685140968	74386.77789877253
0.8229193469312254	68551.14793567848
0.8231250767679583	67431.31288128036
0.8233308580371503	74290.39410500252
0.8235366907516598	77317.28080079335
0.8237425749243477	80135.3213203021
0.8239485105680789	80666.69276050128
0.824154497695721	83049.15273505494
0.824360536320145	82616.0555621756
0.8245666264542252	79645.66204796347
0.8247727681108388	87667.70854709535
0.8249789613028664	88123.15457614903
0.8251852060431922	89103.93304871717
0.825391502344703	90518.57051309879
0.8255978502202894	91369.58832457116
0.8258042496828445	90415.3911410971
0.8260107007452654	92802.9011589866
0.8262172034204517	90642.95457074941
0.8264237577213068	93517.3928299996
0.8266303636607373	94640.3711007622
0.8268370212516525	97296.65746800567
0.8270437305069654	98162.86840785362
0.8272504914395923	98757.29952172961
0.8274573040624523	97444.64033721352
0.8276641683884679	98127.4079034932
0.8278710844305652	99464.97311878533
0.8280780522016729	102299.20068250735
0.8282850717147234	102090.33273272455
0.8284921429826521	103670.04715496552
0.8286992660183978	106004.64084647101
0.8289064408349024	104374.65503328033
0.8291136674451112	103662.04643229212
0.8293209458619727	107915.8129025095
0.8295282760984382	106139.49391981
0.829735658167463	101968.86077837352
0.8299430920820048	110853.71721729658
0.8301505778550254	112199.67372520076
0.8303581154994891	112842.27547448553
0.8305657050283641	114326.46893192583
0.8307733464546212	110149.16761666654
0.8309810397912352	117606.84037668056
0.8311887850511829	119421.86960873156
0.8313965822474458	115651.96162565736
0.8316044313930077	120353.5018188972
0.8318123325008561	120485.79826903487
0.8320202855839813	119740.9128248516
0.8322282906553774	122437.32249967393
0.8324363477280413	120262.72655797174
0.8326444568149735	128219.3439103734
0.8328526179291771	129483.24628496626
0.8330608310836596	127351.92117892411
0.8332690962914304	125074.22592843
0.8334774135655034	127694.76714604504
0.833685782918895	129560.35761415682
0.8338942043646247	134400.56953711828
0.834102677915716	128228.77172816925
0.834311203585195	135636.82567118344
0.8345197813860912	137879.7122607236
0.8347284113314379	140904.57967978675
0.8349370934342709	141541.5329116709
0.8351458277076294	135185.78147964983
0.8353546141645565	142673.37615027808
0.8355634528180977	137262.84068558336
0.8357723436813022	140138.98832630424
0.8359812867672226	136026.96043182258
0.8361902820889144	148721.7236584951
0.8363993296594368	136330.15772747828
0.8366084294918518	148749.4957387774
0.8368175815992247	148738.8152189999
0.8370267859946247	147304.23688218964
0.8372360426911234	154028.49906001467
0.8374453517017962	156230.97970388937
0.8376547130397217	150608.57743431197
0.8378641267179816	149309.24885194947
0.8380735927496613	159332.3563744835
0.8382831111478488	162600.7756821821
0.8384926819256358	163814.76604993106
0.8387023050961173	160758.69389567425
0.8389119806723914	160946.38810006765
0.8391217086675596	169456.90238313118
0.8393314890947265	172306.00528116338
0.8395413219670003	170957.31642143443
0.8397512072974922	171920.89004770367
0.8399611450993165	168008.70110272078
0.8401711353855914	172289.90280305373
0.8403811781694378	176570.15321601823
0.8405912734639802	173338.8749770939
0.8408014212823464	172494.52608654732
0.8410116216376671	178819.92405475178
0.8412218745430766	183487.64361289612
0.8414321800117124	186195.03800420367
0.8416425380567154	182669.50337749504
0.8418529486912297	186076.7417297179
0.8420634119284025	177742.141665268
0.8422739277813847	189126.15155418927
0.8424844962633302	192016.1914424902
0.842695117387396	196260.0653405082
0.8429057911667428	196556.283414793
0.8431165176145345	193044.42272434957
0.8433272967439382	198685.32506303812
0.8435381285681244	198256.28588784023
0.8437490131002665	199752.58162432257
0.8439599503535415	205330.38867499158
0.84417094034113	202412.4488560568
0.8443819830762154	199490.16613560566
0.8445930785719846	208107.9989893236
0.8448042268416277	210561.269016269
0.8450154278983382	210825.49669829497
0.8452266817553128	212767.00999221846
0.8454379884257517	213574.62871789667
0.8456493479228583	209091.42675689474
0.845860760259839	220723.8499135548
0.846072225449904	225201.96192971346
0.8462837435062666	224402.9085358641
0.8464953144421433	217933.8515088243
0.8467069382707537	223999.51530824057
0.8469186150053215	230585.99368923184
0.847130344659073	228692.6347578321
0.8473421272452377	232541.79611194928
0.8475539627770492	233124.63945392042
0.8477658512677435	235035.68977595074
0.8479777927305605	239497.87717705808
0.8481897871787432	241171.72169444704
0.848401834625538	243627.79692284926
0.8486139350841944	244449.78597543197
0.8488260885679657	243069.31817302614
0.8490382950901076	244665.54870776233
0.8492505546638802	250331.74653846436
0.8494628673025462	248179.84635651286
0.8496752330193721	254593.50740640506
0.8498876518276269	251932.03072179857
0.8501001237405839	249569.66812752493
0.8503126487715191	252304.25170917236
0.850525226933712	253010.91539913876
0.8507378582404455	251357.82136481314
0.8509505427050057	245522.02762600512
0.8511632803406821	239867.99813540073
0.8513760711607672	221546.52896625007
0.8515889151785576	192130.56655713235
0.8518018124073523	131371.63422456136
0.8520147628604541	48229.76180120916
0.8522277665511693	53939.789825963744
0.8524408234928071	140381.282649179
0.8526539336986805	202193.0790478416
0.8528670971821053	236239.8159437686
0.8530803139564007	256207.53464371912
0.8532935840348901	267502.5813955278
0.8535069074308987	279465.65936143196
0.8537202841577566	285735.5476731967
0.8539337142287962	288696.0182367742
0.8541471976573534	292424.78747237445
0.8543607344567677	299796.1607382706
0.8545743246403821	304030.0114017531
0.8547879682215422	305233.6782096201
0.8550016652135977	308605.91372240003
0.8552154156299011	310224.8849054343
0.8554292194838088	312319.6160258734
0.8556430767886797	314500.12798102706
0.855856987557877	320434.66225730936
0.8560709518047664	324398.7187747734
0.8562849695427177	326934.51921859744
0.8564990407851035	326032.24151113303
0.8567131655452999	330893.6556830437
0.8569273438366862	335560.50941695715
0.8571415756726455	337502.53687734535
0.8573558610665638	338958.81151962146
0.8575702000318304	337269.07783918903
0.8577845925818384	342941.2144763503
0.857999038729984	348301.3643692883
0.8582135384896665	349980.14495628746
0.858428091874289	350596.05216418894
0.8586426988972576	354437.26922778215
0.8588573595719821	355796.7429637964
0.8590720739118751	358916.3189055027
0.8592868419303532	361827.67527948064
0.8595016636408359	365829.5161846167
0.8597165390567462	368559.7425350774
0.8599314681915105	368414.95271570294
0.8601464510585584	370512.1890433278
0.860361487671323	374283.8871218033
0.8605765780432408	376624.4924814795
0.8607917221877518	378450.69848524017
0.8610069201182988	380634.9914530002
0.8612221718483286	377561.59012304735
0.8614374773912907	369597.96142816177
0.8616528367606385	375410.17311764386
0.8618682499698288	373665.0033552309
0.8620837170323213	372033.1366301201
0.8622992379615795	380167.6556492025
0.8625148127710699	380281.2328422978
0.8627304414742627	381907.69635127886
0.8629461240846313	395225.1779866562
0.8631618606156526	389257.6571519296
0.8633776510808066	388950.66351251386
0.8635934954935769	393428.1051405087
0.8638093938674504	397591.3249189931
0.8640253462159173	401315.5575456774
0.8642413525524714	401478.5401338149
0.8644574128906095	409299.304252764
0.8646735272438323	412625.94723841455
0.8648896956256433	407803.3039192216
0.8651059180495498	417674.61331785185
0.8653221945290621	417217.15103395755
0.8655385250776946	432872.19276693993
0.8657549097089641	426600.485455503
0.8659713484363913	431108.8331694345
0.8661878412735006	438221.82572831534
0.866404388233819	440394.0815986613
0.8666209893308775	439417.8155008044
0.8668376445782103	452293.89981478767
0.8670543539893549	446822.4915179263
0.8672711175778525	451398.0696421554
0.8674879353572469	452402.81980916846
0.8677048073410862	461478.564619578
0.8679217335429217	467276.528666139
0.8681387139763074	464409.9956626606
0.8683557486548015	462250.2680221748
0.8685728375919655	465716.1848363786
0.8687899808013633	478248.83743612806
0.8690071782965637	485344.5096234359
0.869224430091138	489558.65700957715
0.8694417361986609	488291.6138955892
0.8696590966327107	477672.1826378702
0.869876511406869	487188.81204693543
0.8700939805347206	497153.4991220018
0.8703115040298544	500385.0915250516
0.870529081905862	498380.08024989284
0.8707467141763385	504922.37539957487
0.8709644008548827	500084.3345598438
0.8711821419550964	502011.9971699246
0.8713999374905854	506965.01791384554
0.871617787474958	519160.3593437202
0.8718356919218269	521684.53627054277
0.8720536508448075	515700.26980014064
0.8722716642575187	520173.2652019101
0.8724897321735832	522044.3786993736
0.8727078546066265	534290.217649764
0.8729260315702784	531467.778938445
0.873144263078171	534858.0061168999
0.8733625491439405	542612.6494466328
0.8735808897812266	534151.2645130745
0.8737992850036719	543408.3872952847
0.874017734824923	543459.4664482714
0.8742362392586293	556108.8648867932
0.874454798318444	558276.5022191976
0.8746734120180236	564993.8678212487
0.8748920803710283	568172.5587506797
0.875110803391121	561030.9859967977
0.8753295810919689	560675.4866226013
0.875548413487242	574979.5776729066
0.8757673005906139	573812.157156297
0.8759862424157616	582093.9254470416
0.8762052389763657	583595.2736815189
0.8764242902861098	580186.7478251301
0.8766433963586814	594007.336225133
0.8768625572077712	583311.5423222601
0.8770817728470732	579135.3748242281
0.8773010432902849	596492.1196951702
0.8775203685511077	595009.7128029581
0.8777397486432454	615590.3825605797
0.8779591835804065	606285.0435951988
0.8781786733763015	588994.6090411289
0.8783982180446457	607554.8482185368
0.878617817599157	616018.1816206862
0.8788374720535569	605812.0196987418
0.8790571814215703	615872.472678789
0.8792769457169257	626420.0391756728
0.879496764953355	622330.6990623865
0.8797166391445934	633103.0857135623
0.8799365683043796	633317.9310025306
0.8801565524464557	620402.0836832469
0.8803765915845676	618190.6941837153
0.8805966857324639	627567.8002613949
0.880816834903897	607065.0223922565
0.881037039112623	617721.8004517707
0.8812572983724012	621402.9383641961
0.8814776126969944	615668.3641945937
0.8816979821001687	613388.2020716402
0.8819184065956938	610851.9646556887
0.8821388861973429	591971.9782758056
0.8823594209188923	579013.5993045972
0.882580010774122	580409.2252183979
0.8828006557768155	579578.4147311442
0.8830213559407598	569023.4644643976
0.8832421112797452	579523.3662669447
0.8834629218075651	568932.1431260542
0.8836837875380171	571633.3752598898
0.8839047084849018	584846.28969881
0.884125684662023	601930.1098623788
0.8843467160831886	616140.6028057084
0.8845678027622095	628173.9680249515
0.8847889447129001	609870.4043344617
0.8850101419490785	624656.6218841177
0.8852313944845657	629372.739961637
0.885452702333187	644881.7327169992
0.8856740655087704	639443.4622993589
0.8858954840251476	624140.7948795564
0.8861169578961539	615556.1983383878
0.886338487135628	628973.6027386928
0.886560071757412	619287.6545149803
0.8867817117753515	595410.52588566
0.8870034072032955	570472.3748024326
0.8872251580550963	543863.4256054255
0.8874469643446101	550029.7979208841
0.8876688260856963	559257.5821492091
0.8878907432922178	585849.8309144112
0.8881127159780409	599744.4887683361
0.8883347441570356	608045.0923629659
0.8885568278430749	591588.4962841105
0.8887789670500358	628798.9168713471
0.8890011617917983	629634.134286782
0.8892234120822464	660191.2886926325
0.8894457179352669	662813.0488369757
0.8896680793647509	646431.8656524402
0.8898904963845921	623098.5682159389
0.8901129690086883	649812.7440564807
0.8903354972509405	655547.7560533461
0.8905580811252535	658257.1887202597
0.8907807206455347	644172.2640518788
0.8910034158256963	621279.2021385774
0.8912261666796527	607873.6962023063
0.8914489732213227	622043.1770495939
0.8916718354646282	630728.8903796611
0.8918947534234944	605649.9568207508
0.8921177271118502	586353.1304899408
0.8923407565436284	612965.5504963524
0.8925638417327644	567777.0945994282
0.8927869826931977	592995.8164951041
0.8930101794388711	566438.1774447941
0.8932334319837308	544958.5881328066
0.8934567403417267	543883.353793575
0.8936801045268123	438461.65565630846
0.8939035245529441	388523.06588974356
0.8941270004340824	215225.83921880435
0.894350532184191	64964.47787128242
0.8945741198172371	221057.60468420316
0.8947977633471915	384044.855850863
0.8950214627880284	477892.0618540847
0.8952452181537254	560550.0082358072
0.8954690294582639	551468.901018
0.8956928967156286	525409.6040383269
0.8959168199398075	628619.282881079
0.8961407991447926	678861.5963931904
0.8963648343445789	654440.0602471875
0.896588925553165	569858.268773481
0.8968130727845534	628085.5664398504
0.8970372760527496	721006.4108858608
0.8972615353717629	671408.3148750556
0.8974858507556059	635899.5417512915
0.8977102222182949	729447.1997109585
0.8979346497738496	798680.8915611927
0.8981591334362931	776225.0887135621
0.8983836732196523	702000.1477575708
0.8986082691379572	803808.5326303182
0.8988329212052417	721009.8864522141
0.8990576294355432	647319.4936045763
0.8992823938429022	656384.5848353548
0.8995072144413631	742127.8233329788
0.8997320912449734	856416.1544367204
0.8999570242677847	863831.8830773222
0.9001820135238516	759966.4846582345
0.9004070590272328	837525.2198998691
0.9006321607919896	859525.5214881826
0.9008573188321878	839758.3746797831
0.9010825331618959	793766.64408292
0.9013078037951865	899006.9395569137
0.9015331307461353	916024.6510949007
0.9017585140288219	894425.06473058
0.9019839536573292	862924.655237392
0.9022094496457435	998122.9739024332
0.9024350020081551	923989.2942704174
0.9026606107586572	954454.8137755895
0.902886275911347	916533.7316322338
0.9031119974803249	984233.9876554491
0.9033377754796951	995245.5604214323
0.903563609923565	1033295.5784575712
0.903789500826046	1051737.8758124819
0.9040154482012526	1074570.1723769207
0.904241452063303	1035877.1318494898
0.9044675124263188	1016147.7587830643
0.9046936293044254	1063863.4832016625
0.9049198027117517	1060755.538509066
0.9051460326624297	1090988.295390632
0.9053723191705955	1093647.5939076978
0.9055986622503881	1073017.1182665473
0.9058250619159507	1114112.961284616
0.9060515181814298	1108859.8087399362
0.9062780310609752	1090282.246439898
0.9065046005687405	1086108.2688554071
0.906731226718883	1113385.8620411488
0.9069579095255627	1149863.821251386
0.907184649002944	1034627.8537306826
0.907411445165195	1032532.2139432498
0.9076382980264862	1102882.94599794
0.907865207600993	1163657.9379215993
0.9080921739028933	1088220.274225357
0.9083191969463691	1033995.4745179551
0.9085462767456058	1190254.8574776065
0.9087734133147922	1128599.8197681538
0.9090006066681211	1042873.8680017743
0.909227856819788	1158512.2348147484
0.9094551637839932	1169664.8459790263
0.9096825275749393	1151898.2678886245
0.9099099482068329	1187052.4714060447
0.9101374256938848	1133297.7215842148
0.9103649600503083	1161590.4597075775
0.9105925512903209	1218014.9202461021
0.9108201994281437	913228.6004675787
0.9110479044780008	996758.722824
0.9112756664541204	1222991.1058362906
0.911503485370734	1242930.0601438028
0.9117313612420768	1245950.759686715
0.9119592940823873	1170670.60643917
0.912187283905908	1159393.062194139
0.9124153307268845	1260134.2963558903
0.9126434345595664	1272331.91742886
0.9128715954182063	1192830.8907755543
0.9130998133170609	904653.0248259822
0.9133280882703902	1052760.1451192447
0.913556420292458	1209843.5540296477
0.9137848093975312	1073748.6627859995
0.9140132555998806	1136206.6180234884
0.9142417589137806	1284485.973136818
0.9144703193535092	1206414.2806121956
0.9146989369333476	1201375.50001005
0.9149276116675811	1269377.1681846983
