#wavelength	surface flux
0.676892	7095.483080483274
0.678297	7451.047092551034
0.679702	7789.621849492757
0.681109	8112.827458480844
0.682517	8403.0734424229
0.683926	8681.682379346588
0.685337	8931.239859578753
0.686749	9139.617217815063
0.688164	9306.246417786646
0.689581	9407.815948421387
0.691	9411.362423142344
0.692422	9214.401756590125
0.693847	9347.080537552676
0.695274	9343.79070680005
0.696705	9352.144233940306
0.698139	9327.885655654807
0.699576	9165.864287960965
0.701017	8994.588707515604
0.702461	8743.561222612161
0.70391	8622.057495694953
0.705362	8366.164986713704
0.706819	8116.842253095442
0.70828	7866.331252589508
0.709745	7509.207939907716
0.711216	7180.719736922309
0.71269	6850.949447275895
0.71417	6537.3029408647635
0.715655	5992.550530521284
0.717145	5391.084569012931
0.71864	4955.293736837156
0.72014	4782.631726311953
0.721647	4601.170723736456
0.723158	4488.852368647045
0.724676	4144.383963284228
0.726199	3787.685750273736
0.727728	3345.7028348550275
0.729264	3393.7176180995625
0.730805	3124.5996432512834
0.732353	3178.771201104814
0.733907	3031.7526337649656
0.735468	2739.861707715196
0.737035	2767.039023065933
0.738609	2638.2045505834967
0.74019	2536.745262317841
0.741777	2436.3210049725058
0.743372	2363.9295493550712
0.744973	2271.5104259235186
0.746582	2170.8272829758353
0.748197	2065.1294094950617
0.74982	1987.4646757491685
0.751451	1888.3141627787015
0.753088	1784.4808115332967
0.754734	1675.2720951701397
0.756386	1556.3008254210893
0.758047	1421.8627525634456
0.759715	1261.18398095631
0.76139	1062.129058767494
0.763074	818.8424233383279
0.764765	482.9709576110924
0.766464	164.57392359441906
0.768172	341.3725200928124
0.769887	242.22359077994557
0.77161	702.2810838555826
0.773341	1182.4620897010427
0.775081	1573.4602757381065
0.776829	1929.2865432200288
0.778585	2122.0402096423804
0.780349	2061.4783085184054
0.782121	2913.567738596442
0.783902	3328.741242397194
0.785691	3722.2706497185927
0.787489	4171.022046280282
0.789295	4640.158996487762
0.79111	5132.942320512919
0.792933	5347.022468692058
0.794764	4336.169715636335
0.796604	6490.638130248525
0.798453	7589.628661680905
0.80031	8461.924962554494
0.802176	9365.616953279126
0.804051	10478.916871685386
0.805934	11534.267764125267
0.807826	12792.02891269625
0.809727	14038.770931741084
0.811636	15154.076570873103
0.813554	15775.929730550495
0.81548	18223.505199548283
0.817416	21012.9979005482
0.81936	23451.478661397567
0.821313	26371.595741641475
0.823274	28145.569915956825
0.825244	31107.72809680098
0.827223	35927.500467999314
0.829211	38741.39089226586
0.831208	40944.537931417726
0.833213	47184.14171562767
0.835227	51144.47687857609
0.837249	53398.76845776584
0.83928	61514.118303429306
0.841321	67945.23389240676
0.843369	74461.87037990167
0.845427	80217.50131061203
0.847493	90604.33932055802
0.849567	93618.49371265664
0.851651	72536.32365612984
0.853742	105683.56208649675
0.855843	124772.678351635
0.857952	134961.38787475516
0.86007	145818.21001373968
0.862196	152435.75978851106
0.864331	163321.1992498158
0.866474	178161.24835479163
0.868626	193620.95679714932
0.870786	207629.99978432682
0.872955	222921.07156932328
0.875132	233867.3968031716
0.877317	245875.75106217302
0.879511	256497.02513577955
0.881713	227767.79811717826
0.883923	210242.92098054517
0.886142	221821.54828828332
0.888369	207129.94476953545
0.890604	222938.0527839076
0.892847	186209.1056378639
0.895099	160622.89449015073
0.897358	243513.82778542824
0.899626	283795.3899568119
0.901901	340811.87464900216
0.904185	422478.35169749503
0.906476	465797.3398002642
0.908776	393399.9122961264
0.911083	451426.5542297526
0.913398	416832.78210605565
0.915721	484363.88506296487
0.918051	461524.5977505968
0.92039	517367.9915504345
0.922736	511852.73766199197
0.925089	420107.044667011
0.927451	257922.53336200546
0.929819	140393.00123111316
0.932195	119346.02456146183
0.934579	126160.6559516147
0.93697	324303.95109632687
0.939369	414937.0515594764
0.941774	377072.98169792123
0.944187	298794.29724518064
0.946607	363519.6325520919
0.949035	421676.0004889986
0.951469	251347.30321509347
0.953911	298863.60522882
0.956359	242803.03820513227
0.958814	359447.5079640912
0.961277	210545.9655134043
0.963746	296414.59509779897
0.966222	391459.0019694469
0.968705	499963.1154089124
0.971194	552451.3334207773
0.97369	485425.5948679853
0.976193	634014.3504396687
0.978702	604162.8319824454
0.981217	613487.8125992321
0.983739	525611.9380414727
0.986268	674112.9366673356
0.988802	704753.5820440593
0.991343	733131.3118943585
0.99389	845421.6440024861
0.996444	943738.7706493397
0.999003	903570.66909287
1.00157	1106700.7655666305
1.00414	1233297.2941213045
1.00672	1367811.182227083
1.0093	1348205.1533779108
1.01189	1427269.7898554867
1.01448	1473022.1287152064
1.01708	1540422.0090068656
1.01969	1551118.1972473962
1.0223	1609907.906358364
1.02492	1675109.4823868407
1.02754	1742528.8710906687
1.03017	1767786.5417609294
1.0328	1719579.9984632782
1.03544	1907932.4607955709
1.03808	2014112.9198532605
1.04073	1987037.8292577367
1.04339	2079222.8127974505
1.04604	2176011.391031397
1.04871	2216801.842938982
1.05138	2279674.565162487
1.05405	2426600.719439028
1.05673	2460639.075926793
1.05941	2518008.5292313793
1.0621	2566956.399648429
1.06479	2528404.0540886284
1.06749	2541276.645698873
1.07019	2592323.98508764
1.07289	2584558.4382352442
1.0756	2563830.8268561326
1.07832	2439734.3370953435
1.08104	2551431.973529633
1.08376	2567511.871046612
1.08649	2355252.056849952
1.08922	1967851.3829458307
1.09195	1743647.2895726291
1.09469	1509808.4811098971
1.09743	1262795.2326913108
1.10018	1006912.9421462364
1.10293	718234.575577886
1.10568	502429.08207469265
1.10844	587929.3344820609
1.1112	397610.00022608053
1.11396	324164.34676102793
1.11673	244291.2623790396
1.1195	324418.2654522638
1.12228	216882.67130816574
1.12505	361733.64944186574
1.12783	417820.0331810756
1.13062	457443.8353194518
1.13341	155696.7199042724
1.1362	199762.3762361581
1.13899	477415.777567975
1.14178	652651.0741884917
1.14458	389880.6127984837
1.14738	329068.11077606794
1.15019	577330.3067634164
1.153	389198.8543440787
1.1558	302117.9784764138
1.15862	471642.5786644662
1.16143	250646.66143120916
1.16425	194712.28715844546
1.16707	331060.9716015594
1.16989	476375.5978532446
1.17271	690092.0607625095
1.17554	781927.8478188238
1.17837	616775.0123664212
1.1812	1208579.4782967602
1.18403	1256719.31012971
1.18686	1151800.122900385
1.1897	1447354.9718126345
1.19253	1578003.1270120873
1.19537	1770859.3476888805
1.19822	1838197.1565529306
1.20106	2002897.799317621
1.2039	2219839.4441311606
1.20675	2529308.190467503
1.2096	2473268.7440624484
1.21245	2522566.1504121637
1.2153	2746619.6414739992
1.21815	2546426.8446160275
1.221	2856671.9148675413
1.22385	3084958.402657852
1.22671	3218418.492320295
1.22957	3653376.877966016
1.23242	3651602.272955037
1.23528	3696152.4519422636
1.23814	3724449.4567916836
1.241	3918550.7230536058
1.24387	3895474.839437062
1.24673	4159078.0461256243
1.24959	4036506.648390901
1.25245	3811584.4687516345
1.25532	4415133.421703412
1.25818	4533674.744776767
1.26105	4639093.760096109
1.26392	4219359.520190853
1.26678	4383768.444720414
1.26965	4083410.1836047685
1.27252	4409093.548228722
1.27538	4451150.654746988
1.27825	4187161.0238448298
1.28112	4055866.1862019137
1.28399	3174750.537552028
1.28686	3123327.568413494
1.28973	3082466.4706160934
1.2926	2950372.8288537534
1.29546	2483269.389748066
1.29833	2385798.281038307
1.3012	2867377.785544682
1.30407	2832234.4434067374
1.30694	2478303.749714796
1.30981	2683508.104108671
1.31267	2430068.924938199
1.31554	2025475.3823761952
1.31841	1883199.0296968806
1.32128	2633354.232737574
1.32414	1862529.1599968139
1.32701	1283301.7011185877
1.32987	702177.4726829696
1.33274	636999.5413957771
1.3356	557516.7832649909
1.33847	125228.07000637183
1.34133	99585.74601268684
1.34419	134896.80963526905
1.34705	80255.62354894588
1.34991	99331.04752312969
1.35277	98979.26423833914
1.35563	37747.019719342345
1.35849	28699.192437219932
1.36135	40147.62658763162
1.3642	82586.60852580686
1.36706	63591.376939879134
1.36991	60655.55890858326
1.37277	67172.17650883527
1.37562	80557.69385678765
1.37847	64843.39921992781
1.38132	64934.38270260449
1.38417	23804.668084747846
1.38701	10457.870458900758
1.38986	62789.93174752873
1.39271	98848.24529163145
1.39555	38850.419015273874
1.39839	49810.28116021322
1.40123	72170.83991574771
1.40407	71233.43741898205
1.40691	61717.049776484055
1.40974	43540.50125058596
1.41258	93367.57981420532
1.41541	118127.7847150029
1.41824	52151.46164539848
1.42107	24537.535900951065
1.4239	28472.154107818675
1.42673	128603.83449426536
1.42955	196931.15953773074
1.43237	122457.67216957545
1.43519	228569.7514534749
1.43801	234651.56653011913
1.44083	202382.13227882158
1.44365	229848.69713145
1.44646	197059.5922781094
1.44927	321863.7243579957
1.45208	508807.07334704394
1.45489	376943.21455620724
1.45769	564198.5897843086
1.4605	467709.1300681221
1.4633	354111.00448180747
1.4661	582989.8006511168
1.4689	529211.3631219965
1.47169	438013.48650915496
1.47449	352558.45937722817
1.47728	322163.2836356012
1.48007	320178.88276253955
1.48286	437875.2225710433
1.48564	423886.73818925547
1.48842	460759.1130748164
1.4912	493974.6089271234
1.49398	335596.1024073888
1.49676	448795.13564985845
1.49953	640412.0321106045
1.5023	793346.9556407224
1.50507	937677.1654179747
1.50784	886309.6433188625
1.51061	834255.26633123
1.51337	765319.2746656996
1.51613	632968.9836104569
1.51888	602517.9098361644
1.52164	823101.1747294065
1.52439	1050714.5376210322
1.52714	951682.0550762061
1.52989	1157047.5518278673
1.53263	1292465.1950319565
1.53538	1533134.003565337
1.53812	1655597.1796342558
1.54086	1168752.2139295817
1.54359	1400782.9198891432
1.54632	1619359.9459115271
1.54905	1535714.179410832
1.55178	1483185.4321342814
1.5545	1762174.902603598
1.55723	2135042.4590079724
1.55995	2392694.5116404165
1.56266	2125402.5275858534
1.56538	3113094.1493965057
1.56809	3651482.0596667216
1.5708	3447955.274695304
1.57351	3218166.2575353896
1.57621	3478120.978284905
1.57891	3343465.2248725286
1.58161	3766950.902814855
1.5843	3676238.3917509485
1.587	3660297.0660452233
1.58969	3413150.4665577975
1.59238	3019549.6452727695
1.59506	3477873.135842076
1.59774	3699484.069928731
1.60042	3265000.255924055
1.6031	2779062.3844853006
1.60577	2544806.4007393946
1.60844	2188353.8143663337
1.61111	2047755.9605950064
1.61378	1757090.7531487008
1.61644	1576127.7944377626
1.6191	1400426.9375459838
1.62176	1629273.7511958114
1.62441	1715300.796430972
1.62707	1697994.4644858036
1.62971	1694015.5973300063
1.63236	1484623.448593866
1.635	1923428.947611363
1.63764	2287585.0520997536
1.64028	1931429.3320793554
1.64292	1736108.762633539
1.64555	1263526.3099750304
1.64818	1071370.9584591868
1.65081	1730767.8005468505
1.65343	1966835.0386648248
1.65605	1340410.2573853175
1.65867	1368704.2712229958
1.66128	1989046.9855557056
1.6639	1489382.7856878552
1.66651	340009.3976671877
1.66911	144616.34562069905
1.67172	606514.2410309238
1.67432	1081671.1247613232
1.67692	1430594.9135899935
1.67951	1154736.7462510765
1.68211	809187.9695299993
1.6847	550531.2856893473
1.68728	494971.1327151121
1.68987	483570.4704706217
1.69245	358219.48258931044
1.69503	360211.7070988924
1.6976	334910.20995520835
1.70018	334344.60317857855
1.70275	237848.58602050802
1.70531	258756.91709633736
1.70788	448530.41348145454
1.71044	753758.1490318347
1.713	1153247.7035277064
1.71556	1276563.1281754684
1.71811	1274052.3775021508
1.72066	975804.3644146327
1.72321	563012.5727397001
1.72575	889725.3423825417
1.7283	1091163.1120757908
1.73084	1105657.0843630491
1.73337	792517.4339957136
1.73591	698660.6023762089
1.73844	939633.5318998712
1.74097	952912.7966820439
1.74349	1001940.8700128014
1.74602	1217676.32851849
1.74854	1454802.5617621571
1.75105	1489497.8736860864
1.75357	1106208.8506418902
1.75608	592492.8747279117
1.75859	508128.1801946354
1.7611	481585.7313132927
1.7636	539130.5827501247
1.7661	593837.0159489536
1.7686	557278.8216118213
1.7711	686067.5991224054
1.77359	556088.1030399642
1.77608	367494.2765239489
1.77857	551408.8331126776
1.78105	745522.5144350842
1.78354	516980.6736468727
1.78602	382964.5104244294
1.78849	463752.2967616365
1.79097	392788.22738816956
1.79344	333428.05803889624
1.79591	426111.1974758054
1.79837	640543.9849190881
1.80084	416223.7506767981
1.8033	306818.64009798085
1.80576	322518.5661286343
1.80821	340296.69543196465
1.81067	345921.4970509252
1.81312	440525.9995680982
1.81557	457353.3855428249
1.81801	279511.84855454846
1.82046	218373.69583823122
1.8229	320263.0073827986
1.82533	283423.6423352136
1.82777	187835.8658871224
1.8302	200891.41633662014
1.83263	208668.28539958628
1.83506	170930.2719779552
1.83749	152278.54603924372
1.83991	194765.695740999
1.84233	308730.70494386833
1.84475	476474.75718357344
1.84716	338015.62962938246
1.84957	345419.8219641469
1.85198	497642.01640049147
1.85439	368564.9937981888
1.8568	191779.67800423072
1.8592	108910.96886347105
1.8616	145548.52141682577
1.864	173053.91654614668
1.86639	126267.99156952534
1.86878	79554.51596328968
1.87118	124383.27279568452
1.87356	156135.24637131332
1.87595	228153.84430539733
1.87833	527093.9872967621
1.88071	662999.4620319344
1.88309	506516.25424905086
1.88547	444364.706328448
1.88784	556211.5246271525
1.89021	593077.0725803255
1.89258	678810.8523595915
1.89494	894042.6837565833
1.89731	765216.9834873405
1.89967	449838.30484788364
1.90203	425667.97832212865
1.90439	386816.93075294216
1.90674	437659.1803522823
1.90909	407455.92012890097
1.91144	167799.66545221236
1.91379	147096.50783868867
1.91613	321583.2686148013
1.91848	376024.2727434664
1.92082	240481.0785437964
1.92315	202406.87567005688
1.92549	236366.17708003096
1.92782	232207.5493960152
1.93015	170397.60551634748
1.93248	112840.35504969215
1.93481	113696.02815221252
1.93713	119101.24033591275
1.93945	125691.48452384496
1.94177	235258.4751106148
1.94409	268524.84138817445
1.94641	220386.2609539955
1.94872	188152.6834582137
1.95103	228836.70986981608
1.95334	260117.73870581418
1.95564	238941.3761371435
1.95795	257875.72281806899
1.96025	217198.88922456055
1.96255	190553.36410665727
1.96484	318258.04938440607
1.96714	441629.92769375397
1.96943	418152.0057668816
1.97172	415486.5597724355
1.97401	401348.4570608263
1.97629	392659.05875279295
1.97858	433015.4101261704
1.98086	350397.83116346865
1.98314	245398.6611865992
1.98541	373143.1965392563
1.98769	578522.4083039582
1.98996	540765.6261303034
1.99223	474211.4882692782
1.9945	627785.9349516432
1.99677	782656.3049312831
1.99903	819313.7833466023
2.00129	779088.3521125857
2.00355	683429.8664911765
2.00581	705530.7074912549
2.00806	831091.0998242502
2.01031	868992.3989904149
2.01256	950862.6342590763
2.01481	976729.2462815008
2.01706	849030.9429003235
2.0193	801917.823242432
2.02154	934334.0919003356
2.02378	1092080.3978249552
2.02602	1056177.7028753948
2.02825	898779.8243499539
2.03049	912506.8312681454
2.03272	1086236.2093257892
2.03494	1193765.4071725134
2.03717	1148267.3654284049
2.03939	1127430.930440028
2.04162	1400229.8413047343
2.04384	1677853.9878571327
2.04605	1759557.567910301
2.04827	1655424.9814575538
2.05048	1619505.7727077364
2.05269	1678613.1298111086
2.0549	1598526.7854385125
2.05711	1584574.9021948322
2.05931	1624559.9046596282
2.06151	1792953.1585347403
2.06371	1985352.5366679
2.06591	1973372.060013697
2.06811	1915391.2829173899
2.0703	2047470.683665114
2.07249	2280863.6584502626
2.07468	2402295.7144426485
2.07686	2437198.6222333326
2.07905	2398348.914060015
2.08123	2273412.9313794384
2.08341	2247289.1426483113
2.08559	2321997.4836340984
2.08776	2392140.617405721
2.08994	2426934.694974319
2.09211	2355614.0678810235
2.09428	2290874.631328247
2.09645	2323962.3134228056
2.09861	2297486.920287004
2.10077	2198468.975010209
2.10293	2215828.346419028
2.10509	2343296.78220967
2.10725	2386238.978989833
2.1094	2228546.877964016
2.11155	1988802.3632241199
2.1137	1930755.3220229559
2.11585	1997635.605371529
2.11799	2083697.6602776216
2.12013	2183043.6424285206
2.12227	2176154.810828232
2.12441	2139165.1419284544
2.12655	2112133.88921145
2.12868	2057889.1792984596
2.13081	2014215.9224749873
2.13294	1944597.8073469833
2.13507	1785256.152926897
2.13719	1697764.400941892
2.13931	1825654.7588848388
2.14143	1901838.2914000396
2.14355	1745549.8430866427
2.14567	1527624.474759734
2.14778	1331462.5766005174
2.14989	1239722.4744457554
2.152	1273586.5929593532
2.1541	1260309.1746428648
2.15621	1185062.296962549
2.15831	1068626.793038667
2.16041	830222.0310137375
2.16251	655044.6421281607
2.1646	698164.75482007
2.1667	815696.9932197914
2.16879	922446.7835864812
2.17087	1032835.7739544896
2.17296	1065631.0043498613
2.17504	1076085.8754472947
2.17713	1115220.9262207248
2.1792	1033839.1248362174
2.18128	825627.310981222
2.18336	665512.5022934522
2.18543	672767.9655534556
2.1875	691153.0373578925
2.18957	593179.266618981
2.19163	492808.5883317449
2.1937	454421.07688553125
2.19576	391265.321860557
2.19782	260534.5913158704
2.19987	127907.74001398658
2.20193	76470.57298634935
2.20398	88138.8697371031
2.20603	106788.55281621353
2.20808	116482.99234671253
2.21012	110411.33405962065
2.21217	106309.71622501733
2.21421	142430.56457077977
2.21625	181996.56868585877
2.21828	180271.30381082636
2.22032	163491.67659125122
2.22235	171950.0425524796
2.22438	193319.98988998687
2.22641	170169.28876557903
2.22843	122826.87676493783
2.23046	87088.47464170474
2.23248	65940.69507161011
2.2345	57521.84792924926
2.23651	50126.07460068032
2.23853	50024.69447785956
2.24054	68490.25293820824
2.24255	89898.2774461036
2.24456	98218.63394022432
2.24657	89912.7286167182
2.24857	73172.24131478062
2.25057	57222.57835474956
2.25257	41605.42790049609
2.25457	29859.323247576915
2.25656	28984.44118306112
2.25856	38734.71583458485
2.26055	45629.7212211713
2.26254	44362.04060734321
2.26453	44694.572417290925
2.26651	50622.90820820765
2.2685	50869.208552430624
2.27048	47840.09172333517
2.27246	57818.74198874946
2.27443	65087.660810594956
2.27641	65295.6339604119
2.27838	70916.08571950959
2.28036	72413.8230846906
2.28233	60644.38687375642
2.28429	49426.79108607867
2.28626	41406.87826051523
2.28823	33415.3476353959
2.29019	25565.366340797846
2.29215	20843.163301100205
2.29411	22842.030538039555
2.29607	29678.399240471947
2.29802	37500.91875920451
2.29998	47675.39553519982
2.30193	66722.09588950327
2.30388	87749.38955970337
2.30583	100472.70317332605
2.30778	117439.66077224918
2.30972	159875.48658298014
2.31167	208227.39045822606
2.31361	197973.2535992482
2.31555	128519.68714771661
2.31749	52606.19807721757
2.31943	23737.560315644536
2.32137	20528.06207561876
2.32331	21693.115222664146
2.32524	19499.413728665582
2.32718	15696.456348553553
2.32911	12253.45014306643
2.33104	10571.324862182231
2.33297	15540.82515501517
2.3349	30469.86553225367
2.33683	47680.90881147491
2.33876	53148.186799898634
2.34068	48790.81512913333
2.34261	43050.64366113465
2.34453	41116.10770855564
2.34646	47029.618844164215
2.34838	60854.856867424525
2.3503	68360.7903513442
2.35223	70184.52111220066
2.35415	66287.23371292731
2.35607	63833.97867730075
2.35799	81013.86994093758
2.35991	105676.57910040916
2.36183	118842.65233100219
2.36375	118888.52105469344
2.36566	114551.34703261408
2.36758	91728.45502455381
2.3695	65346.33733175374
2.37142	52156.04908897255
2.37334	54392.29143037417
2.37526	55310.43169480798
2.37718	51737.018766227084
2.3791	50608.16047090461
2.38101	53342.740901459336
2.38293	58803.85321892847
2.38485	64892.856940064616
2.38677	79612.437713132
2.3887	98047.14926790522
2.39062	106716.69538071554
2.39254	108760.67339864555
2.39446	112893.2053809285
2.39639	117680.55033247021
2.39831	121912.02058690847
2.40024	146387.3168233491
2.40216	173720.28184199223
2.40409	190430.88081773746
2.40602	169138.89197986727
2.40795	138718.01600241536
2.40989	140974.84524615938
2.41182	180132.67668249074
2.41376	206913.85496194818
2.4157	219883.59977512044
2.41764	224295.8192079844
2.41958	223258.42713263273
2.42152	211776.08834949738
2.42347	198343.40219435154
