#wavelength	surface flux
0.8	1664986.716041092
0.8002000000000001	1679620.7547230513
0.8004000500000003	1712280.4175004433
0.8006001500125003	1746602.536915663
0.8008003000500035	1773837.0490892716
0.8010005001250161	1801532.319808115
0.8012007502500472	1841094.6201474178
0.8014010504376099	1857400.4116530444
0.8016014007002193	1881174.3202810395
0.8018018010503944	1922140.214361169
0.8020022515006572	1948664.9195670607
0.8022027520635323	1971264.1672826807
0.8024033027515483	2012860.4585174564
0.8026039035772362	2036352.0143600353
0.8028045545531306	2055958.0233528921
0.8030052556917691	2088043.0719097399
0.803206007005692	2116652.918990128
0.8034068085074435	2149627.5912177074
0.8036076602095705	2195603.265209409
0.8038085621246229	2234108.273432346
0.8040095142651542	2254062.6733144037
0.8042105166437206	2271745.367758856
0.8044115692728815	2321636.753189637
0.8046126721651998	2350257.2512508943
0.8048138253332411	2389336.4700256786
0.8050150287895745	2421432.340728019
0.805216282546772	2455826.3174890205
0.8054175866174087	2471317.5770370434
0.8056189410140631	2509829.5140375714
0.8058203457493168	2547800.244247953
0.8060218008357541	2597299.3210107926
0.8062233062859632	2596997.4552221834
0.8064248621125346	2635280.739303757
0.806626468328063	2701597.707009847
0.8068281249451449	2738835.9604574717
0.8070298319763813	2763653.783883467
0.8072315894343755	2769332.8215735066
0.8074333973317341	2835947.136157128
0.8076352556810671	2882472.80702199
0.8078371644949874	2902606.2849624474
0.8080391237861113	2970436.7332558613
0.8082411335670578	2995265.707046636
0.8084431938504498	3002805.193607958
0.8086453046489125	3052309.9591369573
0.8088474659750746	3084370.7338563404
0.8090496778415686	3100906.5782778943
0.809251940261029	3113725.689655167
0.8094542532460944	3205887.18387213
0.8096566168094059	3270222.689860507
0.8098590309636085	3304206.380411325
0.8100614957213493	3237887.1573318504
0.8102640110952797	3334545.677937578
0.8104665770980536	3369884.858688307
0.8106691937423283	3442278.4397443263
0.8108718610407639	3435568.979756036
0.8110745790060241	3491729.070629591
0.8112773476507757	3588264.303593354
0.8114801669876885	3545298.1522700414
0.8116830370294355	3586115.012772346
0.8118859577886929	3728883.5070964806
0.8120889292781401	3728645.8666291824
0.8122919515104597	3720380.293177582
0.8124950244983374	3656113.4855657695
0.8126981482544621	3869815.7613720247
0.8129013227915257	3964111.8335145186
0.8131045481222237	4001196.0968945986
0.8133078242592543	3975701.0804804917
0.8135111512153191	4034462.897298307
0.813714529003123	4068724.9655748224
0.8139179576353739	4163892.2442448544
0.8141214371247829	4172766.390456594
0.8143249674840641	4121389.7753354437
0.814528548725935	4276881.662743474
0.8147321808631167	4388634.025301837
0.8149358639083326	4318122.222148684
0.8151395978743097	4271705.438594724
0.8153433827737784	4519714.570733426
0.8155472186194719	4507760.248271439
0.8157511054241268	4569329.177909782
0.815955043200483	4692575.955951515
0.8161590319612831	4734789.310772028
0.8163630717192736	4559350.801657546
0.8165671624872033	4805721.008873478
0.8167713042778252	4869173.869176799
0.8169754971038948	4964443.976587526
0.8171797409781707	4829284.2681566775
0.8173840359134155	5085794.461818378
0.8175883819223938	5043780.506634153
0.8177927790178745	5127519.65997436
0.8179972272126291	4990391.491321921
0.8182017265194322	4222264.520991818
0.8184062769510622	3769656.3593166894
0.8186108785203001	5070742.938548552
0.8188155312399301	5148035.616891494
0.8190202351227402	5137539.954512898
0.819224990181521	4563925.756806437
0.8194297964290664	2816279.220634025
0.8196346538781738	3899826.130335113
0.8198395625416434	5166383.67671544
0.8200445224322789	5482246.883590005
0.820249533562887	5722560.049677106
0.8204545959462778	5765582.59127125
0.8206597095952644	5860035.6172376815
0.8208648745226633	5990520.310997344
0.8210700907412941	6050968.1262753
0.8212753582639793	6142299.718504756
0.8214806771035456	6193030.848550371
0.8216860472728215	6253929.075653486
0.8218914687846397	6310919.618335512
0.822096941651836	6379787.941903327
0.822302465887249	6515283.912381938
0.8225080415037209	6598544.20268245
0.8227136685140968	6465870.1282975795
0.8229193469312254	6235239.350208825
0.8231250767679583	6346172.737191981
0.8233308580371503	6737272.072528476
0.8235366907516598	6644875.330687971
0.8237425749243477	6889700.026950516
0.8239485105680789	6960659.239276708
0.824154497695721	7052595.190756808
0.824360536320145	7011466.527204511
0.8245666264542252	6824313.082982608
0.8247727681108388	7288690.273537995
0.8249789613028664	7402305.441505635
0.8251852060431922	7486153.962612012
0.825391502344703	7591130.113714719
0.8255978502202894	7666711.204021096
0.8258042496828445	7684559.953387698
0.8260107007452654	7814040.800572589
0.8262172034204517	7616958.554880958
0.8264237577213068	7847521.867273156
0.8266303636607373	8043482.462249072
0.8268370212516525	8106355.176877663
0.8270437305069654	8168476.209542919
0.8272504914395923	8178979.8944790065
0.8274573040624523	8143525.541434389
0.8276641683884679	8379490.494585701
0.8278710844305652	8379800.412878056
0.8280780522016729	8535860.903887304
0.8282850717147234	8480726.178229615
0.8284921429826521	8716207.763943335
0.8286992660183978	8760219.369172346
0.8289064408349024	8707073.438666215
0.8291136674451112	8610575.773101643
0.8293209458619727	8798665.536366515
0.8295282760984382	8731454.832396196
0.829735658167463	8524197.81442384
0.8299430920820048	9060830.750718191
0.8301505778550254	9276140.568331331
0.8303581154994891	9266866.059457004
0.8305657050283641	9418164.090726713
0.8307733464546212	9267587.54548662
0.8309810397912352	9559041.211961083
0.8311887850511829	9728014.02567414
0.8313965822474458	9604704.938821642
0.8316044313930077	9858670.924891196
0.8318123325008561	10010142.276089681
0.8320202855839813	9989522.150687197
0.8322282906553774	10113687.889324846
0.8324363477280413	10211193.10224799
0.8326444568149735	10385828.92101296
0.8328526179291771	10525363.697593436
0.8330608310836596	10403796.279105803
0.8332690962914304	10385383.903183613
0.8334774135655034	10574626.46435387
0.833685782918895	10556043.199121015
0.8338942043646247	10875930.586129742
0.834102677915716	10796839.361072203
0.834311203585195	11000267.849390918
0.8345197813860912	11081071.057961393
0.8347284113314379	11187602.421683285
0.8349370934342709	11377255.2545568
0.8351458277076294	10970627.232083479
0.8353546141645565	11394638.861450596
0.8355634528180977	11200756.46825329
0.8357723436813022	11216840.180203626
0.8359812867672226	11129059.941542264
0.8361902820889144	11837427.793936182
0.8363993296594368	11150088.580576643
0.8366084294918518	11980676.321851822
0.8368175815992247	11798689.502388516
0.8370267859946247	11885733.692966122
0.8372360426911234	12443040.879917366
0.8374453517017962	12533243.963461496
0.8376547130397217	12173715.913961694
0.8378641267179816	12120595.415981239
0.8380735927496613	12763363.142777154
0.8382831111478488	12903916.328978177
0.8384926819256358	13052217.843888594
0.8387023050961173	12841927.181173457
0.8389119806723914	12739184.042683296
0.8391217086675596	13281266.353210876
0.8393314890947265	13419140.612787386
0.8395413219670003	13507780.1609294
0.8397512072974922	13702099.361270748
0.8399611450993165	13574537.96646324
0.8401711353855914	13725214.973434227
0.8403811781694378	13945522.436825423
0.8405912734639802	13760469.977707436
0.8408014212823464	13878895.424950294
0.8410116216376671	14239964.762304692
0.8412218745430766	14466838.42793973
0.8414321800117124	14571142.669067936
0.8416425380567154	14621067.908207724
0.8418529486912297	14632513.253215251
0.8420634119284025	13992339.291332014
0.8422739277813847	14447549.201915843
0.8424844962633302	14691558.081752619
0.842695117387396	15242568.233492436
0.8429057911667428	15385096.298763923
0.8431165176145345	15061000.76148712
0.8433272967439382	15454507.595031202
0.8435381285681244	14750870.131330349
0.8437490131002665	14458603.558868492
0.8439599503535415	15097245.752214527
0.84417094034113	15139876.458146477
0.8443819830762154	15014382.57078974
0.8445930785719846	14773799.683529735
0.8448042268416277	15001938.400161337
0.8450154278983382	15311632.615389237
0.8452266817553128	15248702.222870387
0.8454379884257517	14952745.282250308
0.8456493479228583	14416408.975190142
0.845860760259839	15296677.819897123
0.846072225449904	15752200.82539562
0.8462837435062666	15823318.007816717
0.8464953144421433	15175435.388399664
0.8467069382707537	15435453.489444347
0.8469186150053215	15974365.893040657
0.847130344659073	15831568.34092686
0.8473421272452377	16079751.723344473
0.8475539627770492	15954297.232174268
0.8477658512677435	16194978.996976689
0.8479777927305605	16533345.886757769
0.8481897871787432	16507325.091299113
0.848401834625538	16674281.411263363
0.8486139350841944	16925200.26341961
0.8488260885679657	16887089.955114078
0.8490382950901076	16810365.224282704
0.8492505546638802	17174419.646604177
0.8494628673025462	16883857.9196006
0.8496752330193721	17389567.46602994
0.8498876518276269	17312485.003882673
0.8501001237405839	16795857.940430608
0.8503126487715191	16931451.45569459
0.850525226933712	16957356.54518936
0.8507378582404455	16376639.108254153
0.8509505427050057	15651188.310872482
0.8511632803406821	15110292.347612865
0.8513760711607672	13340446.443811215
0.8515889151785576	10749948.204339106
0.8518018124073523	6276429.923360698
0.8520147628604541	1532096.6660828446
0.8522277665511693	1802885.0275872897
0.8524408234928071	6754781.696680503
0.8526539336986805	11295823.823134014
0.8528670971821053	14065471.277304476
0.8530803139564007	15799525.458235601
0.8532935840348901	16903800.935073167
0.8535069074308987	18032316.773384985
0.8537202841577566	18713264.76154885
0.8539337142287962	19097953.441999238
0.8541471976573534	19298519.168730702
0.8543607344567677	19194719.143600788
0.8545743246403821	19943230.990907244
0.8547879682215422	19968692.722603325
0.8550016652135977	20362229.273746084
0.8552154156299011	20350765.45923871
0.8554292194838088	20500599.526565943
0.8556430767886797	20485302.8812054
0.855856987557877	21120857.47324356
0.8560709518047664	21286576.87409078
0.8562849695427177	21706919.810850233
0.8564990407851035	21888366.998324968
0.8567131655452999	22090729.300158344
0.8569273438366862	22268909.813342374
0.8571415756726455	22323766.48835445
0.8573558610665638	21475257.01518169
0.8575702000318304	21462242.513853513
0.8577845925818384	22228977.313780136
0.857999038729984	22952222.063046295
0.8582135384896665	23216265.582932428
0.858428091874289	22731714.73077717
0.8586426988972576	23161388.11255458
0.8588573595719821	22832150.37843936
0.8590720739118751	22818091.279174633
0.8592868419303532	23319697.276384927
0.8595016636408359	23316415.927129675
0.8597165390567462	23443935.150348775
0.8599314681915105	23520001.629222777
0.8601464510585584	23252472.838410217
0.860361487671323	24236223.722269718
0.8605765780432408	24040513.411053926
0.8607917221877518	24187394.816470463
0.8610069201182988	23493781.369101122
0.8612221718483286	20881306.970806915
0.8614374773912907	12041064.775008308
0.8616528367606385	15172182.299403615
0.8618682499698288	11235982.3416028
0.8620837170323213	11293539.96393251
0.8622992379615795	13669615.98086487
0.8625148127710699	13965499.925493615
0.8627304414742627	10882419.858348124
0.8629461240846313	18205391.121970918
0.8631618606156526	11789912.791287424
0.8633776510808066	10167788.245322775
0.8635934954935769	11259537.943896897
0.8638093938674504	12274570.643964035
0.8640253462159173	13893662.131137019
0.8642413525524714	12172720.592481313
0.8644574128906095	14946104.499680478
0.8646735272438323	15813649.92680518
0.8648896956256433	11010530.831771377
0.8651059180495498	15823456.940061891
0.8653221945290621	14488219.698718425
0.8655385250776946	21085453.201460585
0.8657549097089641	16896168.026551735
0.8659713484363913	16667181.716726791
0.8661878412735006	17770258.35285559
0.866404388233819	18154487.71496387
0.8666209893308775	15287692.724227475
0.8668376445782103	23051189.15776356
0.8670543539893549	18629658.725403912
0.8672711175778525	17122292.461700298
0.8674879353572469	17544144.49475407
0.8677048073410862	19530354.526948914
0.8679217335429217	21213082.779707793
0.8681387139763074	20001017.88877095
0.8683557486548015	15398113.345735148
0.8685728375919655	14506454.495498758
0.8687899808013633	20259855.920631066
0.8690071782965637	22168736.412463777
0.869224430091138	23357910.418208815
0.8694417361986609	20702644.8970748
0.8696590966327107	14964990.854785874
0.869876511406869	16520447.75565899
0.8700939805347206	19345380.264060155
0.8703115040298544	19923914.932607777
0.870529081905862	16598310.974689629
0.8707467141763385	20363600.802096087
0.8709644008548827	16466637.921476735
0.8711821419550964	14140140.841396283
0.8713999374905854	14470531.065581813
0.871617787474958	18841892.04946967
0.8718356919218269	18252913.545260623
0.8720536508448075	13870000.427094514
0.8722716642575187	17616039.520043235
0.8724897321735832	15485552.730801353
0.8727078546066265	20621545.08819669
0.8729260315702784	15959312.204874145
0.873144263078171	18669276.39838482
0.8733625491439405	19965138.814891696
0.8735808897812266	13369957.80118538
0.8737992850036719	17348798.311054107
0.874017734824923	18670322.333959933
0.8742362392586293	19531369.070760723
0.874454798318444	20928186.493771244
0.8746734120180236	21723098.66913266
0.8748920803710283	22662793.339943275
0.875110803391121	18601752.47973325
0.8753295810919689	17837549.468768954
0.875548413487242	24370320.498057272
0.8757673005906139	22847385.306567464
0.8759862424157616	23724627.67826459
0.8762052389763657	24414368.4267218
0.8764242902861098	21697815.442145947
0.8766433963586814	22754033.364974026
0.8768625572077712	18408433.15311238
0.8770817728470732	15970321.571907202
0.8773010432902849	23897700.588762112
0.8775203685511077	22060935.686513748
0.8777397486432454	28072624.380797826
0.8779591835804065	26489973.978361666
0.8781786733763015	19704516.27276049
0.8783982180446457	22222945.554216713
0.878617817599157	25162645.36153623
0.8788374720535569	18941156.225993596
0.8790571814215703	21437857.37736932
0.8792769457169257	21523847.15280487
0.879496764953355	23054752.45694543
0.8797166391445934	31267605.72499686
0.8799365683043796	29758321.66462691
0.8801565524464557	23644761.141991645
0.8803765915845676	19143708.239569403
0.8805966857324639	23458086.27059082
0.880816834903897	20418186.67567341
0.881037039112623	26343221.63889958
0.8812572983724012	25737590.78859776
0.8814776126969944	23848086.303275142
0.8816979821001687	27817332.347254362
0.8819184065956938	33715933.46453264
0.8821388861973429	29153098.557333015
0.8823594209188923	24610984.841547936
0.882580010774122	24564399.434116986
0.8828006557768155	26060936.339328066
0.8830213559407598	21831803.99062582
0.8832421112797452	34699564.36387593
0.8834629218075651	25442637.159991674
0.8836837875380171	24333825.088928454
0.8839047084849018	31049761.283748157
0.884125684662023	36317140.73066499
0.8843467160831886	35892755.60536052
0.8845678027622095	32681715.578649428
0.8847889447129001	19679314.097648647
0.8850101419490785	24586470.743682824
0.8852313944845657	28291867.9452249
0.885452702333187	39665998.49331116
0.8856740655087704	32183004.181478098
0.8858954840251476	23564843.383839138
0.8861169578961539	24703999.174583
0.886338487135628	36645292.14125898
0.886560071757412	34345667.98707426
0.8867817117753515	34502279.42675697
0.8870034072032955	28769272.441399146
0.8872251580550963	20173299.38341309
0.8874469643446101	23937688.926889267
0.8876688260856963	25180137.101139605
0.8878907432922178	34586399.44483178
0.8881127159780409	37939342.48328266
0.8883347441570356	33349955.18219292
0.8885568278430749	19920328.248948064
0.8887789670500358	30790888.95304802
0.8890011617917983	34178548.93802375
0.8892234120822464	39367175.32019981
0.8894457179352669	36236559.686969295
0.8896680793647509	25028826.838352405
0.8898904963845921	20628678.39396225
0.8901129690086883	31367863.103446916
0.8903354972509405	40660084.150936104
0.8905580811252535	39122639.069310345
0.8907807206455347	34901702.03750651
0.8910034158256963	30748544.166863397
0.8912261666796527	24837352.093988936
0.8914489732213227	33860817.482664354
0.8916718354646282	40776220.78308266
0.8918947534234944	30111863.471844427
0.8921177271118502	25757764.36577125
0.8923407565436284	34604112.4246903
0.8925638417327644	23008513.72471033
0.8927869826931977	31679479.50563089
0.8930101794388711	30768903.03769302
0.8932334319837308	31747300.80769059
0.8934567403417267	34566018.414073475
0.8936801045268123	26530981.681859244
0.8939035245529441	16275557.703792775
0.8941270004340824	7258934.972049011
0.894350532184191	1676933.6581836143
0.8945741198172371	8852417.297575334
0.8947977633471915	18169400.388993833
0.8950214627880284	28216547.806456037
0.8952452181537254	29427100.54102178
0.8954690294582639	22282510.000507172
0.8956928967156286	32481624.33592725
0.8959168199398075	39132105.17714553
0.8961407991447926	43017284.20509967
0.8963648343445789	42716838.373135425
0.896588925553165	31525376.377582796
0.8968130727845534	27858191.40776475
0.8970372760527496	30480014.21992246
0.8972615353717629	36213624.18788575
0.8974858507556059	36168980.401125126
0.8977102222182949	39935637.08581251
0.8979346497738496	44498548.62287893
0.8981591334362931	39805132.11806288
0.8983836732196523	30322294.085273407
0.8986082691379572	41557744.99766796
0.8988329212052417	45228208.390828356
0.8990576294355432	42942641.25194887
0.8992823938429022	44702466.28773064
0.8995072144413631	46941047.440199085
0.8997320912449734	38136066.91424679
0.8999570242677847	38001960.68560207
0.9001820135238516	32709791.961716138
0.9004070590272328	44175134.75273745
0.9006321607919896	49078574.72162399
0.9008573188321878	49524213.67693377
0.9010825331618959	45625408.13152433
0.9013078037951865	40232002.240629844
0.9015331307461353	42088449.2102026
0.9017585140288219	41578392.79050474
0.9019839536573292	50652797.84888421
0.9022094496457435	52860858.132060036
0.9024350020081551	51007911.31143312
0.9026606107586572	51827499.97366916
0.902886275911347	34118115.412720166
0.9031119974803249	37085709.420757025
0.9033377754796951	44834142.34738949
0.903563609923565	51796481.232536234
0.903789500826046	60048175.600478716
0.9040154482012526	60893008.17282762
0.904241452063303	50617736.22988473
0.9044675124263188	44293878.65232348
0.9046936293044254	48207040.87507018
0.9049198027117517	49752278.63567543
0.9051460326624297	58017938.69659667
0.9053723191705955	58297079.99543663
0.9055986622503881	51587098.60535702
0.9058250619159507	53940681.42566425
0.9060515181814298	44561354.34439473
0.9062780310609752	50859431.34419309
0.9065046005687405	54332659.4899085
0.906731226718883	53129754.306767054
0.9069579095255627	61294220.436110854
0.907184649002944	51628650.63504396
0.907411445165195	55383305.646659456
0.9076382980264862	53268740.67453431
0.907865207600993	52877900.86551769
0.9080921739028933	55808065.71472834
0.9083191969463691	48004633.90188474
0.9085462767456058	56385769.60638341
0.9087734133147922	61004257.112116806
0.9090006066681211	56280352.93319384
0.909227856819788	58039678.92860957
0.9094551637839932	57443848.53934159
0.9096825275749393	60697704.117695615
0.9099099482068329	57594162.75042229
0.9101374256938848	59816566.4702435
0.9103649600503083	59423420.00017886
0.9105925512903209	71902866.26745366
0.9108201994281437	53856634.25992118
0.9110479044780008	52407802.4069322
0.9112756664541204	63069229.6769219
0.911503485370734	63932415.91463965
0.9117313612420768	70487962.46773621
0.9119592940823873	55252075.251410194
0.912187283905908	69069117.23838729
0.9124153307268845	67690953.69605312
0.9126434345595664	68745638.37770282
0.9128715954182063	61689325.06992688
0.9130998133170609	57955200.65048053
0.9133280882703902	61337585.122250445
0.913556420292458	71234519.30314444
0.9137848093975312	65806057.59780526
0.9140132555998806	62621345.06508651
0.9142417589137806	67707919.6700505
