#wavelength	surface flux
0.8	632854.610474679
0.8002000000000001	643690.0758364138
0.8004000500000003	655210.7041469242
0.8006001500125003	666467.6703406358
0.8008003000500035	678025.7130086089
0.8010005001250161	689431.2302170865
0.8012007502500472	701804.2821477348
0.8014010504376099	712677.266771346
0.8016014007002193	723965.5409994366
0.8018018010503944	736422.7532345041
0.8020022515006572	747429.7104518587
0.8022027520635323	760226.6423171122
0.8024033027515483	772821.3096523616
0.8026039035772362	784102.3880227592
0.8028045545531306	797257.1678585872
0.8030052556917691	808935.7898597902
0.803206007005692	822391.3703871497
0.8034068085074435	834282.6775835318
0.8036076602095705	849026.8192658415
0.8038085621246229	862478.305024074
0.8040095142651542	876214.8085969638
0.8042105166437206	886690.3558607544
0.8044115692728815	901000.7985869925
0.8046126721651998	914101.2300162453
0.8048138253332411	929562.8927015588
0.8050150287895745	944951.7279193492
0.805216282546772	957807.8988949494
0.8054175866174087	969002.6386071831
0.8056189410140631	984972.485518096
0.8058203457493168	998278.1973364081
0.8060218008357541	1015291.4528038993
0.8062233062859632	1023994.5931213992
0.8064248621125346	1041934.8568496738
0.806626468328063	1059178.3398979153
0.8068281249451449	1072557.6685721092
0.8070298319763813	1085976.8796545565
0.8072315894343755	1099095.2726866116
0.8074333973317341	1117743.9211138862
0.8076352556810671	1135281.1675612824
0.8078371644949874	1149138.2188416102
0.8080391237861113	1169014.8028487167
0.8082411335670578	1179032.4056478578
0.8084431938504498	1193914.9329678204
0.8086453046489125	1210899.9929298167
0.8088474659750746	1224720.608762078
0.8090496778415686	1240600.6486487177
0.809251940261029	1246138.067210744
0.8094542532460944	1277312.3120653133
0.8096566168094059	1294258.2982430242
0.8098590309636085	1310839.3754354212
0.8100614957213493	1311369.782045099
0.8102640110952797	1337001.7732204131
0.8104665770980536	1352169.6055742034
0.8106691937423283	1373368.5780241215
0.8108718610407639	1385789.246774498
0.8110745790060241	1399844.1168855142
0.8112773476507757	1423254.034570119
0.8114801669876885	1435464.3924713433
0.8116830370294355	1449385.0652280177
0.8118859577886929	1493705.1290266765
0.8120889292781401	1498596.9592555708
0.8122919515104597	1505262.793887937
0.8124950244983374	1514881.2947809775
0.8126981482544621	1556968.3617373644
0.8129013227915257	1578609.3473404371
0.8131045481222237	1593693.7699342377
0.8133078242592543	1596201.3327730894
0.8135111512153191	1616406.2591805102
0.813714529003123	1630410.2312303504
0.8139179576353739	1666247.0877145494
0.8141214371247829	1684453.4413000995
0.8143249674840641	1682120.150219278
0.814528548725935	1728316.1739182489
0.8147321808631167	1760199.4388194482
0.8149358639083326	1766724.6276875534
0.8151395978743097	1757334.1584444381
0.8153433827737784	1825504.4496058035
0.8155472186194719	1827990.4884719613
0.8157511054241268	1848718.375100289
0.815955043200483	1885121.0989983259
0.8161590319612831	1913254.3755731424
0.8163630717192736	1884170.1986865648
0.8165671624872033	1941568.3411415713
0.8167713042778252	1970668.848539986
0.8169754971038948	2006555.0671862855
0.8171797409781707	1977774.9446477278
0.8173840359134155	2053814.1324392615
0.8175883819223938	2071180.2398929822
0.8177927790178745	2083768.7321168622
0.8179972272126291	2063333.0821362985
0.8182017265194322	1989421.3347584058
0.8184062769510622	1940025.9935470298
0.8186108785203001	2136146.504829005
0.8188155312399301	2162991.006004098
0.8190202351227402	2164802.570896554
0.819224990181521	2054178.4987591405
0.8194297964290664	1722557.9875857597
0.8196346538781738	1942756.9870045986
0.8198395625416434	2224876.300182147
0.8200445224322789	2300182.885630964
0.820249533562887	2362224.0002577086
0.8204545959462778	2403575.423954662
0.8206597095952644	2433354.1019749832
0.8208648745226633	2466087.3856910393
0.8210700907412941	2492889.084617758
0.8212753582639793	2523570.0531218275
0.8214806771035456	2554686.332328403
0.8216860472728215	2583117.0015970496
0.8218914687846397	2605298.026680303
0.822096941651836	2635926.580763232
0.822302465887249	2665706.608656042
0.8225080415037209	2694215.0324116326
0.8227136685140968	2673528.0116637424
0.8229193469312254	2621484.757742505
0.8231250767679583	2628790.5718234815
0.8233308580371503	2737055.610529596
0.8235366907516598	2778522.349989997
0.8237425749243477	2833283.207256394
0.8239485105680789	2858964.8031028328
0.824154497695721	2905619.813707544
0.824360536320145	2918725.327788042
0.8245666264542252	2919679.53773329
0.8247727681108388	3015463.4514675597
0.8249789613028664	3043614.778405543
0.8251852060431922	3077751.8621888706
0.825391502344703	3119098.625824951
0.8255978502202894	3148206.688537482
0.8258042496828445	3161176.435853606
0.8260107007452654	3206856.8464183183
0.8262172034204517	3197892.23113853
0.8264237577213068	3248998.3274637866
0.8266303636607373	3285490.8401654446
0.8268370212516525	3336264.839324131
0.8270437305069654	3366541.400087313
0.8272504914395923	3393219.8921697238
0.8274573040624523	3406051.184755673
0.8276641683884679	3440372.1896374235
0.8278710844305652	3471689.599759322
0.8280780522016729	3528659.0143765183
0.8282850717147234	3540130.3143336903
0.8284921429826521	3585611.6292458824
0.8286992660183978	3626865.543161478
0.8289064408349024	3627741.932009768
0.8291136674451112	3644745.603067045
0.8293209458619727	3707978.9995648377
0.8295282760984382	3708039.178897397
0.829735658167463	3682083.601139574
0.8299430920820048	3807938.882408572
0.8301505778550254	3854406.932109769
0.8303581154994891	3882364.7034564274
0.8305657050283641	3928495.3075408856
0.8307733464546212	3904628.816223528
0.8309810397912352	4002927.76064251
0.8311887850511829	4053145.107453709
0.8313965822474458	4036593.803445478
0.8316044313930077	4115164.494304387
0.8318123325008561	4140854.848995288
0.8320202855839813	4153401.9603291103
0.8322282906553774	4208083.055418315
0.8324363477280413	4209163.803116908
0.8326444568149735	4317830.719746239
0.8328526179291771	4361929.795039696
0.8330608310836596	4361984.807962601
0.8332690962914304	4362793.346728709
0.8334774135655034	4417417.9745752355
0.833685782918895	4458038.967493084
0.8338942043646247	4539508.388108672
0.834102677915716	4500776.402728291
0.834311203585195	4603267.519708624
0.8345197813860912	4657570.0262664445
0.8347284113314379	4715266.159404047
0.8349370934342709	4749206.754818357
0.8351458277076294	4693236.800469347
0.8353546141645565	4808626.930674201
0.8355634528180977	4771282.480697591
0.8357723436813022	4822849.437883464
0.8359812867672226	4799919.51442837
0.8361902820889144	4975929.843283357
0.8363993296594368	4852905.940928915
0.8366084294918518	5033583.545509176
0.8368175815992247	5062382.041742343
0.8370267859946247	5068649.071529411
0.8372360426911234	5175306.229771707
0.8374453517017962	5232834.775095961
0.8376547130397217	5189257.774484231
0.8378641267179816	5202218.944319984
0.8380735927496613	5349678.249742711
0.8382831111478488	5410186.711289612
0.8384926819256358	5453388.039831083
0.8387023050961173	5439292.488177815
0.8389119806723914	5463233.747333393
0.8391217086675596	5604410.526544191
0.8393314890947265	5668522.6089748405
0.8395413219670003	5680054.562975388
0.8397512072974922	5720342.810926062
0.8399611450993165	5700086.939915756
0.8401711353855914	5772684.021024624
0.8403811781694378	5857074.01556004
0.8405912734639802	5837030.594026175
0.8408014212823464	5858845.567888663
0.8410116216376671	5967929.626010293
0.8412218745430766	6054471.266374013
0.8414321800117124	6116658.317546285
0.8416425380567154	6100986.874285893
0.8418529486912297	6167924.783514754
0.8420634119284025	6084550.895952135
0.8422739277813847	6255775.735641955
0.8424844962633302	6318269.654360884
0.842695117387396	6413749.357673731
0.8429057911667428	6443263.171220402
0.8431165176145345	6414558.314621036
0.8433272967439382	6526100.531894087
0.8435381285681244	6534863.124535083
0.8437490131002665	6574862.784690261
0.8439599503535415	6687987.435038871
0.84417094034113	6674562.543068002
0.8443819830762154	6658646.2233469235
0.8445930785719846	6791721.2288298
0.8448042268416277	6857470.488502782
0.8450154278983382	6888182.571385509
0.8452266817553128	6932880.956210017
0.8454379884257517	6963140.925518444
0.8456493479228583	6917944.512693505
0.845860760259839	7112373.990222484
0.846072225449904	7199657.575032002
0.8462837435062666	7219209.698424701
0.8464953144421433	7150899.593781133
0.8467069382707537	7253419.91762653
0.8469186150053215	7371585.940096112
0.847130344659073	7367091.0110413935
0.8473421272452377	7448234.612186221
0.8475539627770492	7476262.753818362
0.8477658512677435	7534095.209916228
0.8479777927305605	7616768.134432231
0.8481897871787432	7660679.262248729
0.848401834625538	7716494.40460444
0.8486139350841944	7741095.492828873
0.8488260885679657	7744762.73957939
0.8490382950901076	7781825.885445748
0.8492505546638802	7871043.7907132935
0.8494628673025462	7840966.520656945
0.8496752330193721	7936301.117482418
0.8498876518276269	7892256.482371237
0.8501001237405839	7830429.381218904
0.8503126487715191	7833204.5456591835
0.850525226933712	7784926.52274463
0.8507378582404455	7647113.78530551
0.8509505427050057	7384481.074638053
0.8511632803406821	7037408.134556781
0.8513760711607672	6317953.15026681
0.8515889151785576	5141216.981826866
0.8518018124073523	3150560.4719245406
0.8520147628604541	840521.8521421265
0.8522277665511693	980461.6792989114
0.8524408234928071	3378482.705544704
0.8526539336986805	5395030.2933669295
0.8528670971821053	6664553.58517148
0.8530803139564007	7456683.643166767
0.8532935840348901	7950534.537541611
0.8535069074308987	8362952.456493972
0.8537202841577566	8622681.997098465
0.8539337142287962	8797499.220705772
0.8541471976573534	8938287.854990957
0.8543607344567677	9101209.58647076
0.8545743246403821	9264450.750496518
0.8547879682215422	9344703.05101047
0.8550016652135977	9459991.497514863
0.8552154156299011	9531091.941270532
0.8554292194838088	9619227.72767222
0.8556430767886797	9684458.051815663
0.855856987557877	9822439.21711222
0.8560709518047664	9919587.606714463
0.8562849695427177	10004480.135026334
0.8564990407851035	10028830.680696052
0.8567131655452999	10150477.577969551
0.8569273438366862	10254783.258127233
0.8571415756726455	10313472.155842299
0.8573558610665638	10314137.777652696
0.8575702000318304	10346800.636749549
0.8577845925818384	10483718.897807399
0.857999038729984	10613548.424259327
0.8582135384896665	10680047.340308731
0.858428091874289	10724170.47396642
0.8586426988972576	10810557.486091051
0.8588573595719821	10839510.963254793
0.8590720739118751	10909304.770513723
0.8592868419303532	10989779.27748727
0.8595016636408359	11078596.409184277
0.8597165390567462	11157285.23898244
0.8599314681915105	11177723.76614789
0.8601464510585584	11211360.795171848
0.860361487671323	11318761.033340788
0.8605765780432408	11375774.203546911
0.8607917221877518	11401112.05212305
0.8610069201182988	11325288.097678982
0.8612221718483286	10316980.628743457
0.8614374773912907	7591120.501850678
0.8616528367606385	8633198.21558174
0.8618682499698288	7542912.912163801
0.8620837170323213	7439070.971376671
0.8622992379615795	8371010.369603152
0.8625148127710699	8232614.265005109
0.8627304414742627	7323880.288918786
0.8629461240846313	9714619.20459318
0.8631618606156526	7636768.408298741
0.8633776510808066	7525414.838743635
0.8635934954935769	7809907.585619754
0.8638093938674504	8272409.548171513
0.8640253462159173	8606821.939415203
0.8642413525524714	8122596.799085274
0.8644574128906095	9140019.30889528
0.8646735272438323	9256872.81089337
0.8648896956256433	7804930.350219311
0.8651059180495498	9788408.656191353
0.8653221945290621	8836728.82126535
0.8655385250776946	11179238.561709322
0.8657549097089641	9903657.34403895
0.8659713484363913	9832349.439565979
0.8661878412735006	10210875.581375526
0.866404388233819	10425173.916660024
0.8666209893308775	9616454.745733114
0.8668376445782103	11938172.408591429
0.8670543539893549	10421927.120481214
0.8672711175778525	10354838.228861606
0.8674879353572469	10303680.059741786
0.8677048073410862	11195125.615676923
0.8679217335429217	11600347.509918626
0.8681387139763074	11317065.11695096
0.8683557486548015	10138698.185496429
0.8685728375919655	9665818.574331569
0.8687899808013633	11646573.665524615
0.8690071782965637	12094737.131510682
0.869224430091138	12650308.21446808
0.8694417361986609	12072259.620860094
0.8696590966327107	9807403.458332853
0.869876511406869	10526267.184607895
0.8700939805347206	11525285.996583914
0.8703115040298544	11909325.591797821
0.870529081905862	10864931.452335507
0.8707467141763385	11714468.971581262
0.8709644008548827	10510995.24126544
0.8711821419550964	10442714.281814842
0.8713999374905854	10607422.983402576
0.871617787474958	12321905.899223207
0.8718356919218269	11852785.62055561
0.8720536508448075	10629816.035743253
0.8722716642575187	11160278.364530947
0.8724897321735832	10695975.746071674
0.8727078546066265	12468481.503503067
0.8729260315702784	11104463.10214076
0.873144263078171	12132992.815806253
0.8733625491439405	12510627.447830524
0.8735808897812266	10456640.667532366
0.8737992850036719	11694937.870404279
0.874017734824923	11993842.425759435
0.8742362392586293	13131410.620214552
0.874454798318444	13066084.071023872
0.8746734120180236	13009966.718751265
0.8748920803710283	13552651.415114209
0.875110803391121	12491800.083027828
0.8753295810919689	11665300.401277406
0.875548413487242	13750961.390546074
0.8757673005906139	13522834.971719071
0.8759862424157616	14236751.989639025
0.8762052389763657	14237264.36425682
0.8764242902861098	13221482.493841669
0.8766433963586814	14312714.168011267
0.8768625572077712	12324218.134957487
0.8770817728470732	11563487.082115643
0.8773010432902849	14311324.202186186
0.8775203685511077	13678202.28319563
0.8777397486432454	16150078.284958135
0.8779591835804065	15460636.492526554
0.8781786733763015	13388250.248699171
0.8783982180446457	14132411.040658139
0.878617817599157	14756991.667156162
0.8788374720535569	12472961.670663131
0.8790571814215703	13791013.158234708
0.8792769457169257	14535635.572111716
0.879496764953355	14240702.011244131
0.8797166391445934	16972183.46493812
0.8799365683043796	16728469.516042488
0.8801565524464557	14523519.1620693
0.8803765915845676	13535181.914309993
0.8805966857324639	14837281.928238189
0.880816834903897	13294636.108326953
0.881037039112623	15246585.713266224
0.8812572983724012	15052118.533222156
0.8814776126969944	14794691.987539312
0.8816979821001687	15913069.975726873
0.8819184065956938	17823426.680815786
0.8821388861973429	16922901.31761149
0.8823594209188923	14599557.764621025
0.882580010774122	14566412.505268965
0.8828006557768155	14926478.734754851
0.8830213559407598	14351524.271836374
0.8832421112797452	17827095.75358403
0.8834629218075651	14870668.603508446
0.8836837875380171	14508774.209134767
0.8839047084849018	16643882.777557252
0.884125684662023	18515921.941363033
0.8843467160831886	18651765.482285894
0.8845678027622095	18073046.726191513
0.8847889447129001	13476720.458813094
0.8850101419490785	15153703.633205054
0.8852313944845657	16017169.737826725
0.885452702333187	19763828.592001516
0.8856740655087704	18522760.419535086
0.8858954840251476	14961624.681725983
0.8861169578961539	15125170.348751063
0.886338487135628	19607727.380211566
0.886560071757412	19532301.83945771
0.8867817117753515	18942724.384734396
0.8870034072032955	17456531.484073274
0.8872251580550963	13792132.739166446
0.8874469643446101	15204928.588163039
0.8876688260856963	16548437.468755143
0.8878907432922178	19585868.48547569
0.8881127159780409	20474716.054242887
0.8883347441570356	19154308.434662767
0.8885568278430749	13838009.683826208
0.8887789670500358	18225975.340524375
0.8890011617917983	19640323.55533923
0.8892234120822464	21267168.968252447
0.8894457179352669	20275005.799938712
0.8896680793647509	16861757.29958095
0.8898904963845921	14508620.527175024
0.8901129690086883	18252471.05585605
0.8903354972509405	21493728.48612742
0.8905580811252535	21259972.24685218
0.8907807206455347	19962349.77417019
0.8910034158256963	18676361.570077267
0.8912261666796527	15250903.262725562
0.8914489732213227	19721295.443759393
0.8916718354646282	21215483.460233733
0.8918947534234944	18812164.26889654
0.8921177271118502	17119468.82456619
0.8923407565436284	18944972.07767189
0.8925638417327644	14668355.996597324
0.8927869826931977	17854138.999835003
0.8930101794388711	17890889.730251044
0.8932334319837308	17373484.650259987
0.8934567403417267	17290781.410481375
0.8936801045268123	14002725.659873025
0.8939035245529441	9640453.996985031
0.8941270004340824	4575483.342143343
0.894350532184191	1103755.243205053
0.8945741198172371	5072042.332535864
0.8947977633471915	10349746.068840414
0.8950214627880284	14629104.836958567
0.8952452181537254	16149745.054986842
0.8954690294582639	14126497.547652176
0.8956928967156286	18353787.38882183
0.8959168199398075	21267972.64596794
0.8961407991447926	22665390.58827909
0.8963648343445789	22524975.93786448
0.896588925553165	19784023.696376875
0.8968130727845534	17475640.42862316
0.8970372760527496	18828330.71983815
0.8972615353717629	21802193.366711047
0.8974858507556059	21183201.31806221
0.8977102222182949	22794855.66387737
0.8979346497738496	24857960.702471346
0.8981591334362931	22264520.89581296
0.8983836732196523	18848591.655798506
0.8986082691379572	22776378.585696064
0.8988329212052417	25034333.072387982
0.8990576294355432	23582363.787651792
0.8992823938429022	24418025.16326567
0.8995072144413631	25279525.363632545
0.8997320912449734	22492360.571884405
0.8999570242677847	22214597.830667406
0.9001820135238516	20357314.132792443
0.9004070590272328	25013321.182274412
0.9006321607919896	26843085.754842535
0.9008573188321878	27401779.2062404
0.9010825331618959	26126448.334325444
0.9013078037951865	23041901.08952141
0.9015331307461353	24046612.90266248
0.9017585140288219	24037526.82194749
0.9019839536573292	28079031.45294983
0.9022094496457435	29295705.168630794
0.9024350020081551	28466512.510045704
0.9026606107586572	28467142.043810144
0.902886275911347	22986482.58896245
0.9031119974803249	23346219.688527852
0.9033377754796951	25624918.76681911
0.903563609923565	28225298.833450664
0.903789500826046	31435620.765159257
0.9040154482012526	31809900.52483442
0.904241452063303	28405647.636792134
0.9044675124263188	25723675.45972998
0.9046936293044254	27303838.55314412
0.9049198027117517	27252680.559044488
0.9051460326624297	30304227.88761556
0.9053723191705955	31865888.338172246
0.9055986622503881	29695122.257383745
0.9058250619159507	30656469.885275688
0.9060515181814298	26591831.563052252
0.9062780310609752	28612936.897134475
0.9065046005687405	28916877.152040474
0.906731226718883	29153551.63512485
0.9069579095255627	31638711.620597508
0.907184649002944	30180422.529813003
0.907411445165195	30799859.375445303
0.9076382980264862	29222179.83401807
0.907865207600993	30071040.431264646
0.9080921739028933	30357559.40256198
0.9083191969463691	27609480.174972102
0.9085462767456058	31677049.254967634
0.9087734133147922	33813561.671188384
0.9090006066681211	31383485.754953403
0.909227856819788	31664532.808041885
0.9094551637839932	30717887.48894559
0.9096825275749393	32974141.661185168
0.9099099482068329	30771463.92294875
0.9101374256938848	31564868.08717369
0.9103649600503083	31248915.43513386
0.9105925512903209	36196816.75363787
0.9108201994281437	30634618.744174153
0.9110479044780008	30165865.461753424
0.9112756664541204	33358374.4230997
0.911503485370734	32682335.448463243
0.9117313612420768	34840795.68379859
0.9119592940823873	31278727.321281336
0.912187283905908	35371627.941252224
0.9124153307268845	36398556.08702644
0.9126434345595664	36642862.080328874
0.9128715954182063	32587123.33508582
0.9130998133170609	31332455.466365382
0.9133280882703902	31554215.607018847
0.913556420292458	36069861.206553444
0.9137848093975312	34367060.528110415
0.9140132555998806	32825466.190001387
0.9142417589137806	36136830.24863766
