#wavelength	surface flux
0.676892	8216.635284291777
0.678297	8539.490860132872
0.679702	8843.778056546664
0.681109	9133.359728189287
0.682517	9390.915176290024
0.683926	9638.419886871103
0.685337	9856.915979873804
0.686749	10042.604634681982
0.688164	10194.411895790136
0.689581	10307.134814763893
0.691	10333.162421003899
0.692422	10146.825606694376
0.693847	10263.736334260037
0.695274	10306.02339986508
0.696705	10377.634301316275
0.698139	10381.348837664025
0.699576	10253.273914168512
0.701017	10140.927207594345
0.702461	9945.967028091083
0.70391	9883.899493785146
0.705362	9696.324346187996
0.706819	9521.041119014106
0.70828	9344.576535349857
0.709745	9063.135673601286
0.711216	8821.4695328849
0.71269	8546.986262566134
0.71417	8319.516374624412
0.715655	7832.050498689227
0.717145	7151.14656643123
0.71864	6749.151047038164
0.72014	6664.294989649766
0.721647	6529.797089448743
0.723158	6380.921511875613
0.724676	6015.4441416681975
0.726199	5650.3298254313295
0.727728	5192.828217679948
0.729264	5204.4733890424
0.730805	4865.744379593127
0.732353	5008.379513951601
0.733907	4869.585327226754
0.735468	4515.204293552334
0.737035	4480.703955129394
0.738609	4280.000518597849
0.74019	4125.774456530683
0.741777	3960.095809922072
0.743372	3814.5992279516995
0.744973	3636.9266299928395
0.746582	3436.876088600962
0.748197	3233.8950745706506
0.74982	3064.336249443129
0.751451	2869.402744220245
0.753088	2665.559940997319
0.754734	2451.2499434680635
0.756386	2222.3638467249416
0.758047	1971.2433493767771
0.759715	1706.4951833667712
0.76139	1433.1032683667036
0.763074	1111.9990054569535
0.764765	631.080318434154
0.766464	206.3568504034682
0.768172	429.0514596873083
0.769887	305.5032449939847
0.77161	934.7535554368169
0.773341	1600.2291162744675
0.775081	2109.7135492368334
0.776829	2612.0511713523274
0.778585	2842.1151476748305
0.780349	2662.542823643752
0.782121	4167.5143652898705
0.783902	4905.47664902623
0.785691	5571.968125954813
0.787489	6310.585605740629
0.789295	7085.850702109296
0.79111	7899.440530160301
0.792933	8159.430317130697
0.794764	6194.121726673116
0.796604	10059.153354036935
0.798453	11935.624370556947
0.80031	13295.833783541142
0.802176	14668.006342284614
0.804051	16263.49801391105
0.805934	17760.07642046883
0.807826	19485.800079779165
0.809727	21023.119258883748
0.811636	22282.381122415343
0.813554	22740.42700472933
0.81548	26050.596223693534
0.817416	29466.704815896876
0.81936	32554.235736607203
0.821313	36086.50815273007
0.823274	37099.887285100944
0.825244	41325.07928756805
0.827223	46526.02820434965
0.829211	49692.6701727559
0.831208	52233.69527553774
0.833213	58441.19054185055
0.835227	62857.887818821735
0.837249	66751.64518360098
0.83928	74643.2261631684
0.841321	80651.85075935368
0.843369	87764.4593661091
0.845427	93976.00240721903
0.847493	103843.14297622118
0.849567	109123.4864216349
0.851651	89567.48324756227
0.853742	120662.75279360205
0.855843	139231.78273143416
0.857952	149366.58458400672
0.86007	160268.82997941418
0.862196	168995.93593343557
0.864331	180192.90282277743
0.866474	194045.57786213368
0.868626	209396.0167011371
0.870786	224327.41376452582
0.872955	240437.48218273505
0.875132	254438.83268334225
0.877317	266087.398812671
0.879511	279307.2569988048
0.881713	261577.95844875748
0.883923	252745.654956922
0.886142	267011.0057651306
0.888369	258216.17857579904
0.890604	276089.50487088494
0.892847	234621.94155242658
0.895099	205430.18623094875
0.897358	295287.4370620956
0.899626	341008.1613237047
0.901901	413699.2027387703
0.904185	505928.0664585831
0.906476	550075.2298566536
0.908776	480749.5407998921
0.911083	544189.2137131132
0.913398	518511.0022301687
0.915721	587614.2016550702
0.918051	575455.0384387372
0.92039	653905.126623692
0.922736	678465.3913623054
0.925089	579085.9460824083
0.927451	327326.4349952377
0.929819	164944.47840110605
0.932195	153500.54751122338
0.934579	184103.90941370366
0.93697	398369.97990775167
0.939369	552293.7266058148
0.941774	534210.7064653921
0.944187	397915.6901819541
0.946607	438738.0260385634
0.949035	484468.38949302403
0.951469	363237.2801140509
0.953911	391026.6116793773
0.956359	298340.59666102845
0.958814	463314.4639839151
0.961277	278176.1953212908
0.963746	411825.7231149883
0.966222	551438.0578824154
0.968705	761632.82574835
0.971194	857752.1667722857
0.97369	751982.0912945704
0.976193	950680.33685195
0.978702	972628.8300452766
0.981217	1000802.5141911547
0.983739	922008.9709248663
0.986268	1150442.2014397366
0.988802	1174086.8867793814
0.991343	1313749.4178154403
0.99389	1467885.1378932477
0.996444	1620603.5665606032
0.999003	1670721.1029092825
1.00157	1953599.7398879118
1.00414	2159944.9837849676
1.00672	2337556.3450859985
1.0093	2352024.8186476077
1.01189	2449907.415652653
1.01448	2509681.328137472
1.01708	2566340.952957949
1.01969	2562468.918893271
1.0223	2736511.7219406134
1.02492	2888343.3811385124
1.02754	3011950.2251052894
1.03017	3053193.924552214
1.0328	2933264.96284607
1.03544	3227122.897393393
1.03808	3376761.085677122
1.04073	3432202.080614869
1.04339	3563441.446473355
1.04604	3735171.2251509745
1.04871	3771351.827911976
1.05138	3863956.7728435337
1.05405	4028511.767224949
1.05673	4161365.1045789896
1.05941	4204671.020258085
1.0621	4298256.9476786535
1.06479	4249984.784997589
1.06749	4268266.208748937
1.07019	4267438.454787798
1.07289	4301105.541118252
1.0756	4291181.816445137
1.07832	4159080.2827058844
1.08104	4214416.192465327
1.08376	4269847.930891171
1.08649	3884474.4438455817
1.08922	3359308.72989976
1.09195	2905925.609699375
1.09469	2388931.5967327985
1.09743	1966864.2198195674
1.10018	1405822.4927754505
1.10293	950787.2455473498
1.10568	650364.1331248293
1.10844	659257.2548819069
1.1112	389192.31801650586
1.11396	309404.54782925796
1.11673	243889.04312372673
1.1195	317810.5088416432
1.12228	229692.45179457217
1.12505	433310.4488362468
1.12783	436297.4522979539
1.13062	503466.7664217196
1.13341	184586.60380863218
1.1362	255844.8033370293
1.13899	697378.3573458401
1.14178	818304.4975739886
1.14458	424268.58828085125
1.14738	392939.12035550905
1.15019	643895.1399150908
1.153	420546.7441719284
1.1558	342722.491673482
1.15862	518514.1967424909
1.16143	298834.6536107812
1.16425	299225.556825108
1.16707	413774.5434177901
1.16989	662291.5159186292
1.17271	927267.7509404544
1.17554	1040361.3443583118
1.17837	984366.1328771971
1.1812	1641978.881960184
1.18403	1727387.3760909035
1.18686	1707360.7598710558
1.1897	2045139.3367915493
1.19253	2323905.4492247207
1.19537	2635050.9255022984
1.19822	2765837.1384211695
1.20106	3017289.1582948714
1.2039	3347253.8525833143
1.20675	3770234.2675617537
1.2096	3581045.778063218
1.21245	3675074.020561707
1.2153	4022900.7994131674
1.21815	3873567.441646716
1.221	4328136.346932267
1.22385	4568371.525270288
1.22671	4874673.894013583
1.22957	5547019.562882258
1.23242	5590596.362651258
1.23528	5809936.914462042
1.23814	5856259.65852082
1.241	6121299.872511653
1.24387	6092905.644056509
1.24673	6621564.320099427
1.24959	6433623.406452499
1.25245	6073690.546363543
1.25532	7004868.640479231
1.25818	7380643.4027867755
1.26105	7694217.275250497
1.26392	7475773.7933786735
1.26678	7558053.27805697
1.26965	7286969.746041772
1.27252	7242946.720660063
1.27538	7125198.837984286
1.27825	6770025.037569508
1.28112	6298402.064944103
1.28399	5155767.094536096
1.28686	4790653.598903671
1.28973	4695064.581083901
1.2926	4367919.67374112
1.29546	3856380.6256360617
1.29833	3925828.9914193684
1.3012	4093397.6300140936
1.30407	4168856.882491964
1.30694	3719129.15959587
1.30981	3931240.026396385
1.31267	3498484.5608409974
1.31554	2966181.2448420282
1.31841	2656511.792939565
1.32128	3604656.539009479
1.32414	2555651.0322833597
1.32701	1923950.4650807336
1.32987	969137.6881285879
1.33274	690397.8057702361
1.3356	672006.7957116752
1.33847	122895.71883303237
1.34133	65376.85085370745
1.34419	85426.39087109918
1.34705	45164.72528539974
1.34991	46647.524344458965
1.35277	39180.91327280096
1.35563	16002.086317988666
1.35849	10651.669696835665
1.36135	16684.880479137722
1.3642	39314.2139321947
1.36706	27865.370348987013
1.36991	29857.641003909175
1.37277	32139.911073041025
1.37562	69201.87077596021
1.37847	65167.20979184288
1.38132	29255.36258328839
1.38417	11093.364180482438
1.38701	7365.694091317476
1.38986	33364.57063893666
1.39271	53816.237428972956
1.39555	20200.891191587463
1.39839	23683.81155137615
1.40123	37494.91332187856
1.40407	48998.705924812835
1.40691	43296.33238976476
1.40974	27058.71979914464
1.41258	46509.28610552937
1.41541	72080.50248182038
1.41824	36235.22163566537
1.42107	16482.985142666726
1.4239	20389.54259373332
1.42673	81549.67740509882
1.42955	148480.90375926378
1.43237	97717.91594269338
1.43519	168600.12526179245
1.43801	168783.66185025356
1.44083	149813.79492541112
1.44365	199794.3890056331
1.44646	156951.7119219574
1.44927	282805.5291576655
1.45208	462888.7723751406
1.45489	320535.30423892074
1.45769	533960.355399354
1.4605	518517.894841216
1.4633	345030.16800873936
1.4661	521458.2464008971
1.4689	448727.68425751565
1.47169	375173.56034338684
1.47449	289046.22615369246
1.47728	242748.55726302386
1.48007	253243.0597360953
1.48286	403252.0437567133
1.48564	369333.1298911529
1.48842	312283.8735055123
1.4912	389296.69351964147
1.49398	328570.68250425457
1.49676	408958.00875658536
1.49953	629511.8720573592
1.5023	660189.4282599632
1.50507	756924.9861311002
1.50784	737954.1734582247
1.51061	617848.0200199706
1.51337	482270.43394531537
1.51613	486179.5166953124
1.51888	554481.9401990952
1.52164	723381.4824677604
1.52439	837348.9223953827
1.52714	834353.3425765389
1.52989	1110553.9476914757
1.53263	1233265.806448376
1.53538	1376214.1988610157
1.53812	1558559.8013642451
1.54086	1173244.1471860677
1.54359	1464007.6653779598
1.54632	1547132.4103247032
1.54905	1520850.0903313637
1.55178	1457017.5684977977
1.5545	1845083.6615935706
1.55723	2279671.347088433
1.55995	2580666.551697561
1.56266	2496224.618673539
1.56538	3406121.8265127856
1.56809	3867642.2599727423
1.5708	3909924.135215617
1.57351	3730031.7626339924
1.57621	4143405.0947622713
1.57891	4042748.446933021
1.58161	4347493.391272698
1.5843	4343821.178425548
1.587	4397601.259473081
1.58969	4161065.6971361316
1.59238	3792912.1485051857
1.59506	4150092.825828074
1.59774	4309517.408683413
1.60042	3933821.4990716525
1.6031	3505427.536439408
1.60577	3186949.963162776
1.60844	2826337.9298307486
1.61111	2622027.958356745
1.61378	2267277.5360773015
1.61644	1917324.012205249
1.6191	1642371.8809551687
1.62176	1754942.471052601
1.62441	1760011.6497657867
1.62707	1657638.8363623826
1.62971	1581751.1511396924
1.63236	1415744.681669849
1.635	1769422.4103603177
1.63764	2090123.0116439234
1.64028	1995593.4233512776
1.64292	1861978.0719436281
1.64555	1461669.1860402327
1.64818	1271201.2908100348
1.65081	1781703.8271148656
1.65343	1933985.061850448
1.65605	1396441.4687731946
1.65867	1654449.1433888124
1.66128	2291652.1566399345
1.6639	1601288.1197090864
1.66651	343430.9196138535
1.66911	184775.8602198137
1.67172	791667.9240308129
1.67432	1323995.4032807418
1.67692	1531361.032419431
1.67951	1296600.5318257972
1.68211	917515.7094107579
1.6847	669615.5000100362
1.68728	658867.4308501007
1.68987	652406.2555853357
1.69245	444930.4176028071
1.69503	458873.7220100447
1.6976	390921.96339987905
1.70018	352456.2399809819
1.70275	284650.60357400693
1.70531	311342.1403374786
1.70788	538611.1785243892
1.71044	829181.6591148427
1.713	1162447.4215115204
1.71556	1292957.3954479925
1.71811	1316384.8565313886
1.72066	1101786.2376148303
1.72321	728377.7551217093
1.72575	1030160.4031344057
1.7283	1156529.7101723666
1.73084	1144729.9821884145
1.73337	931660.4590800769
1.73591	870159.1046909349
1.73844	1108446.161855069
1.74097	1185088.7358869857
1.74349	1212011.865423461
1.74602	1326335.775191422
1.74854	1570107.8761593688
1.75105	1560671.588859142
1.75357	1098933.4768807245
1.75608	574293.4716164726
1.75859	575597.4782679661
1.7611	565728.1381332108
1.7636	558590.5640307169
1.7661	565034.4771051856
1.7686	485560.267470499
1.7711	570353.4101625811
1.77359	514023.3404867607
1.77608	341365.03130181803
1.77857	421084.8385360825
1.78105	533121.7750899518
1.78354	362509.1385388209
1.78602	243292.3697120184
1.78849	318743.3519902809
1.79097	275008.39220018237
1.79344	213268.7095910687
1.79591	281475.60474867886
1.79837	422962.06715751195
1.80084	244988.13966334568
1.8033	143562.28853263642
1.80576	159081.24615845352
1.80821	170461.3303030839
1.81067	170546.51025065075
1.81312	218695.4155461428
1.81557	227385.7070354676
1.81801	153736.92897042623
1.82046	120341.98445638458
1.8229	186638.36135466374
1.82533	173474.10234170646
1.82777	85982.55203302487
1.8302	77551.33882591072
1.83263	95377.44416956935
1.83506	81718.03295831449
1.83749	63574.75410885643
1.83991	81211.21942648762
1.84233	150129.28018056668
1.84475	264894.1447503936
1.84716	182625.21389033162
1.84957	183271.62049495746
1.85198	279609.92298214743
1.85439	192822.1475800444
1.8568	93545.33674639805
1.8592	51533.811115863704
1.8616	67966.9662154926
1.864	83451.66505442807
1.86639	64401.00955668893
1.86878	35372.76332869798
1.87118	45995.76132180673
1.87356	66853.40264348306
1.87595	122398.17267613474
1.87833	303188.79565932485
1.88071	393050.7048878529
1.88309	309061.87009433267
1.88547	247466.81000026874
1.88784	295146.7431757013
1.89021	299943.9391841446
1.89258	347705.61210666585
1.89494	502049.04593815486
1.89731	428301.2470475276
1.89967	227744.14943251258
1.90203	206023.93906965374
1.90439	170486.62377393065
1.90674	187100.87176830784
1.90909	189393.7550727752
1.91144	81804.5297930499
1.91379	66665.56169602466
1.91613	143474.37895236167
1.91848	165122.0575004255
1.92082	104277.66398609334
1.92315	85642.92003253385
1.92549	94232.16848860924
1.92782	91555.73644946565
1.93015	69959.00277161517
1.93248	52378.159694505506
1.93481	54666.99151267585
1.93713	53597.14515567843
1.93945	56305.958148134276
1.94177	99511.26247146315
1.94409	109365.14293168823
1.94641	85556.4850809684
1.94872	66177.7293892769
1.95103	81673.25694774465
1.95334	102041.29332037785
1.95564	108797.0916515779
1.95795	129317.52110239094
1.96025	114487.19370191198
1.96255	97704.02862870062
1.96484	157677.1672357762
1.96714	223744.59173667582
1.96943	211507.80010937125
1.97172	191113.7525552998
1.97401	187887.5962757553
1.97629	215300.18628069398
1.97858	241634.6736390813
1.98086	188342.1133973705
1.98314	142086.16117720658
1.98541	217692.38996976247
1.98769	314666.4518999393
1.98996	275001.6979193175
1.99223	231867.83802249434
1.9945	322643.87862865627
1.99677	421233.7912096335
1.99903	450750.02099233656
2.00129	439767.14663959446
2.00355	409213.5633081113
2.00581	422511.853439025
2.00806	473772.949567358
2.01031	474177.4589133468
2.01256	503957.66768013494
2.01481	510991.6308360816
2.01706	435502.37163968274
2.0193	409246.790318761
2.02154	494273.21349871735
2.02378	588175.0883443818
2.02602	553747.5946459034
2.02825	445296.74945952755
2.03049	469416.1438008144
2.03272	617005.9868161354
2.03494	704586.498079803
2.03717	676517.2764605666
2.03939	664904.1791868206
2.04162	804852.3945410231
2.04384	949851.3715913221
2.04605	1004662.3611958807
2.04827	969847.1022114017
2.05048	973717.3070128673
2.05269	1034464.184538734
2.0549	1043787.5403979756
2.05711	1032028.7410826598
2.05931	1036534.3002216679
2.06151	1146179.6563586332
2.06371	1259864.3017741577
2.06591	1259368.871934415
2.06811	1228296.6665855208
2.0703	1296301.4589806213
2.07249	1412895.0578508824
2.07468	1473075.9550081263
2.07686	1508575.0867523907
2.07905	1507053.0352040534
2.08123	1459821.9485442033
2.08341	1460006.9015987804
2.08559	1489943.6562180328
2.08776	1514594.6120253506
2.08994	1541541.3294274176
2.09211	1511962.1444871158
2.09428	1467746.110192493
2.09645	1476513.3361779025
2.09861	1479207.6396546708
2.10077	1446950.060792638
2.10293	1458836.5808052612
2.10509	1517865.7491618325
2.10725	1536666.222931384
2.1094	1474527.4181474745
2.11155	1380665.0238527833
2.1137	1359003.5480358335
2.11585	1385033.9671104068
2.11799	1402992.4167858046
2.12013	1420630.808116697
2.12227	1403196.8342208518
2.12441	1386593.5027925929
2.12655	1377429.1525887914
2.12868	1341382.5167386362
2.13081	1302912.235449656
2.13294	1266070.5792534752
2.13507	1195388.388920911
2.13719	1156533.7025131816
2.13931	1212625.0019024406
2.14143	1233966.98832578
2.14355	1148048.6082858923
2.14567	1028073.8979341085
2.14778	914150.4913347291
2.14989	855402.9801824464
2.152	849773.4453217528
2.1541	816383.8605543216
2.15621	767731.5196114741
2.15831	715705.30517201
2.16041	586313.289423068
2.16251	473892.2905410245
2.1646	489003.5383828603
2.1667	551911.8148304592
2.16879	604436.1350911623
2.17087	652968.6920726862
2.17296	655794.6062420519
2.17504	639793.228910767
2.17713	630558.6387027783
2.1792	559624.3960148735
2.18128	443853.1780997233
2.18336	386334.09372592403
2.18543	430646.2709109573
2.1875	458497.50862272154
2.18957	393032.08943172335
2.19163	319744.0268567224
2.1937	282782.1670759503
2.19576	240699.29231954625
2.19782	166641.88959000717
2.19987	89334.35810512681
2.20193	57251.00283769018
2.20398	64696.66931699684
2.20603	79740.99030640585
2.20808	84607.83622897878
2.21012	75560.94191230666
2.21217	70762.7727327838
2.21421	94865.71319447356
2.21625	122403.57641360734
2.21828	123094.28102114593
2.22032	107844.84173822806
2.22235	106433.11482577656
2.22438	116983.32171618068
2.22641	99624.17814745536
2.22843	63650.44883794685
2.23046	42895.70262808346
2.23248	42425.31763632644
2.2345	46322.78482608274
2.23651	41320.911962417886
2.23853	37699.88572748272
2.24054	45169.66502744066
2.24255	54270.14480201256
2.24456	55631.549899322774
2.24657	46907.01348320243
2.24857	36325.41986539192
2.25057	30543.7378571694
2.25257	24963.33146830419
2.25457	18425.20573487683
2.25656	16675.46537130756
2.25856	24934.084506904634
2.26055	34259.555578646614
2.26254	34743.77048235064
2.26453	29431.137969497526
2.26651	27749.985137595308
2.2685	29930.435924247977
2.27048	33974.80402643706
2.27246	44256.85603153532
2.27443	49449.01757192121
2.27641	47376.64306823751
2.27838	48190.111314767615
2.28036	48142.40112443022
2.28233	39732.29173746286
2.28429	31750.743770768277
2.28626	26815.35521700007
2.28823	23170.208604251155
2.29019	20103.80546482234
2.29215	18060.99487339663
2.29411	18932.159162920863
2.29607	22181.485551612834
2.29802	25443.707154434283
2.29998	28513.58190032468
2.30193	37074.58561458651
2.30388	49652.12004792467
2.30583	63139.860055984216
2.30778	84681.39449544347
2.30972	122311.07528556162
2.31167	152916.78594982752
2.31361	137583.08723308286
2.31555	85056.7668335829
2.31749	33948.65139043781
2.31943	15153.638546550723
2.32137	14305.161543673017
2.32331	16420.34859340465
2.32524	15150.887167120469
2.32718	11921.949137418967
2.32911	9679.046722430918
2.33104	9477.563565335831
2.33297	13222.642845210627
2.3349	20804.170073362005
2.33683	28015.730444123852
2.33876	29703.1957750664
2.34068	27522.728826395698
2.34261	25202.079721467813
2.34453	24499.3808558674
2.34646	27734.259378593044
2.34838	35229.65521436128
2.3503	39173.412438556785
2.35223	40556.66722848494
2.35415	39162.320273379795
2.35607	39827.05236033558
2.35799	54698.842522996616
2.35991	73418.07290533218
2.36183	81803.32255861016
2.36375	81562.13404104274
2.36566	80539.40213849572
2.36758	65637.3330568531
2.3695	44099.81596166007
2.37142	30175.3524025425
2.37334	29768.594565713625
2.37526	33811.226515267605
2.37718	36322.23703132281
2.3791	39562.2267254947
2.38101	43615.198152207886
2.38293	46710.77584322581
2.38485	46674.45355902678
2.38677	52296.48764928313
2.3887	65377.19897392644
2.39062	77608.11677216626
2.39254	83700.22032587955
2.39446	86030.72920390587
2.39639	87055.43904483427
2.39831	89006.96224860463
2.40024	106843.57212262282
2.40216	124949.15695767164
2.40409	129999.91068424538
2.40602	109240.76063260665
2.40795	91560.46211255266
2.40989	105170.66627691647
2.41182	142871.54003968017
2.41376	160621.84245373143
2.4157	153645.4292487598
2.41764	144326.32182708415
2.41958	147233.28224383082
2.42152	151110.66549241694
2.42347	145423.5112530886
2.42542	134582.31850188735
2.42737	137076.72371599326
