#wavelength	surface flux
0.676892	5407.2804423262205
0.678297	5639.998431741921
0.679702	5861.259350661483
0.681109	6072.1052978750095
0.682517	6263.603922777085
0.683926	6446.106591549861
0.685337	6609.952533011893
0.686749	6751.26301360779
0.688164	6867.552700980266
0.689581	6898.781649387803
0.691	6859.866899594384
0.692422	6774.748910625058
0.693847	6849.746305036113
0.695274	6871.916115570677
0.696705	6897.345582970528
0.698139	6888.220892452293
0.699576	6807.093648279911
0.701017	6722.8361989597215
0.702461	6593.521367710563
0.70391	6528.976695402302
0.705362	6402.058690166589
0.706819	6264.817820241286
0.70828	6120.1678384811685
0.709745	5920.493020265641
0.711216	5734.984955329639
0.71269	5534.790613852164
0.71417	5351.231620912697
0.715655	5042.417850606527
0.717145	4654.581631173221
0.71864	4393.159400409117
0.72014	4287.4884332526335
0.721647	4159.166285982245
0.723158	4038.2911249362573
0.724676	3797.3269651191326
0.726199	3551.83569052032
0.727728	3267.3755336091585
0.729264	3258.9992163558186
0.730805	3066.530008349235
0.732353	3088.9593435689208
0.733907	2983.113162437558
0.735468	2787.624041977484
0.737035	2762.8949928669513
0.738609	2653.6908306451255
0.74019	2567.830042752313
0.741777	2479.956237990098
0.743372	2405.8461263971894
0.744973	2317.4537028584227
0.746582	2219.8930211522147
0.748197	2121.3563165834025
0.74982	2035.7048842269842
0.751451	1934.830305901675
0.753088	1825.5785470101587
0.754734	1706.5820330931188
0.756386	1574.0331759920998
0.758047	1420.747954020509
0.759715	1246.3992583312452
0.76139	1060.293802939052
0.763074	861.0198523788343
0.764765	545.3195860969539
0.766464	202.2801231374689
0.768172	403.8271017500657
0.769887	291.16837646616335
0.77161	768.7664955747587
0.773341	1204.738491405739
0.775081	1550.438077699326
0.776829	1902.8356382396016
0.778585	2090.5995911637538
0.780349	2013.920116048535
0.782121	2933.414166145362
0.783902	3377.231047131832
0.785691	3771.163679975163
0.787489	4202.42631833819
0.789295	4652.3092396044885
0.79111	5121.37186480878
0.792933	5308.103619133152
0.794764	4248.4711799372235
0.796604	6393.681523459759
0.798453	7425.356689806078
0.80031	8208.019986337722
0.802176	9027.060038928204
0.804051	9977.246979330654
0.805934	10915.448082790357
0.807826	11988.82595184328
0.809727	13043.189909233755
0.811636	14020.285410621522
0.813554	14639.671692185433
0.81548	16611.68715598075
0.817416	18715.676436057314
0.81936	20665.13920645981
0.821313	22897.016141329987
0.823274	24161.355152091273
0.825244	26626.02476779964
0.827223	29721.401692715852
0.829211	31866.518094841384
0.831208	33621.443534258135
0.833213	37544.438616841784
0.835227	40358.58943333658
0.837249	42817.54549353691
0.83928	47569.83756832782
0.841321	51383.48945726517
0.843369	55650.71746921867
0.845427	59616.089758599286
0.847493	65656.29763245411
0.849567	68965.9895503743
0.851651	55582.57002224188
0.853742	76013.72951593588
0.855843	88109.87869452547
0.857952	94667.69989349511
0.86007	101567.13700390428
0.862196	107158.30587600959
0.864331	114076.89616873488
0.866474	122373.05222948446
0.868626	131228.12968383078
0.870786	139082.37266238977
0.872955	147453.24101390343
0.875132	154554.76313323603
0.877317	161140.31893345196
0.879511	167892.87954985007
0.881713	158994.43869038185
0.883923	154052.44094113435
0.886142	158326.13751858147
0.888369	153786.04206101358
0.890604	162820.98235088098
0.892847	142007.58749051462
0.895099	126299.9898375788
0.897358	173997.25787169512
0.899626	198293.25549396916
0.901901	231920.52299290794
0.904185	272876.4907485753
0.906476	294193.9484683851
0.908776	259811.12699192576
0.911083	292286.0773748357
0.913398	278769.53596272785
0.915721	310119.617522222
0.918051	301304.759111905
0.92039	333498.60285458324
0.922736	339776.1456963665
0.925089	298244.3193972495
0.927451	196501.11014755035
0.929819	118403.09173897372
0.932195	102804.46648229106
0.934579	118506.51491856838
0.93697	232044.74897677862
0.939369	288873.5828623195
0.941774	281099.383564449
0.944187	221226.63956825132
0.946607	255816.50938888214
0.949035	275883.7067080865
0.951469	206135.7655161685
0.953911	224440.87702553213
0.956359	181321.61874147286
0.958814	266299.6800735551
0.961277	174077.83469376795
0.963746	218349.7827387032
0.966222	291081.2472783563
0.968705	368227.4170836928
0.971194	401931.55853999784
0.97369	356752.69450744335
0.976193	441537.1981043501
0.978702	441817.20109377283
0.981217	451812.10858426476
0.983739	422555.2577602932
0.986268	499396.819293603
0.988802	516186.5624212931
0.991343	555013.9830281826
0.99389	606955.6603167126
0.996444	658145.9230586422
0.999003	668947.2676993873
1.00157	759482.1913119358
1.00414	821773.4381130851
1.00672	874334.7508694797
1.0093	871647.9833410708
1.01189	899389.3389573622
1.01448	914810.9418275491
1.01708	933268.5572262855
1.01969	930678.479793074
1.0223	968455.9378049296
1.02492	1003743.7001749226
1.02754	1015149.2782427995
1.03017	1016995.1970473118
1.0328	997763.076236072
1.03544	1083416.9747525211
1.03808	1128146.0346994884
1.04073	1142970.481274477
1.04339	1185821.8759581437
1.04604	1236709.568801252
1.04871	1257242.2256254796
1.05138	1295459.4341555939
1.05405	1360039.1690395866
1.05673	1390256.320570862
1.05941	1405963.306876091
1.0621	1431018.8476169175
1.06479	1418820.3190109045
1.06749	1427166.041407459
1.07019	1429973.1431666003
1.07289	1421070.2398627712
1.0756	1416063.2014620823
1.07832	1379714.914128913
1.08104	1403600.9783131378
1.08376	1418783.8675424622
1.08649	1331891.617998866
1.08922	1207195.3862415003
1.09195	1129479.292177418
1.09469	1024802.5498683479
1.09743	894881.5284164917
1.10018	745327.1349413841
1.10293	572412.6630196455
1.10568	418624.09581469133
1.10844	447508.5677513218
1.1112	326054.27460107737
1.11396	261100.64842268705
1.11673	212445.64288902827
1.1195	282887.7474642212
1.12228	209811.58127762613
1.12505	316984.79728269693
1.12783	330710.8579047923
1.13062	370190.08603905665
1.13341	152410.55584850672
1.1362	201328.99291112262
1.13899	453657.21283398074
1.14178	542158.3203484222
1.14458	326443.1671826271
1.14738	290627.028652881
1.15019	467523.1644751055
1.153	342932.83481314837
1.1558	286645.05033624836
1.15862	411055.2834102041
1.16143	259070.55763299915
1.16425	243705.43655800304
1.16707	322238.0617419007
1.16989	470397.433615341
1.17271	627169.2682830375
1.17554	683025.1224907282
1.17837	632785.7032153755
1.1812	970901.8861235321
1.18403	976322.5360801644
1.18686	951395.870773726
1.1897	1105172.991781998
1.19253	1198034.9428056297
1.19537	1297379.478197242
1.19822	1331146.9287506682
1.20106	1408055.6003754288
1.2039	1511928.7047678584
1.20675	1645975.9334372343
1.2096	1589939.2702687825
1.21245	1623165.9224469934
1.2153	1731930.2389794884
1.21815	1670595.1318754507
1.221	1820733.2964376125
1.22385	1912699.6699371524
1.22671	1994991.1170126023
1.22957	2196001.609145186
1.23242	2202770.5755964154
1.23528	2248511.420698617
1.23814	2249132.222381851
1.241	2331746.556417298
1.24387	2335165.1476404597
1.24673	2448329.441839548
1.24959	2404783.728020402
1.25245	2335289.5832067714
1.25532	2537712.7921266644
1.25818	2603217.594389335
1.26105	2667282.344141204
1.26392	2594143.9993869895
1.26678	2638530.752039864
1.26965	2589145.0942506413
1.27252	2651155.5236489857
1.27538	2654579.896279098
1.27825	2583351.726843237
1.28112	2505398.213163383
1.28399	2161784.1313222824
1.28686	2111035.003176275
1.28973	2090118.0907094814
1.2926	1980179.159331715
1.29546	1789135.057087443
1.29833	1778996.851373099
1.3012	1946389.2959169277
1.30407	1929704.3644349922
1.30694	1762268.0348330052
1.30981	1894719.5306335692
1.31267	1714282.8758202624
1.31554	1544324.8551132136
1.31841	1422074.8407263542
1.32128	1828358.1431604535
1.32414	1470273.0255759095
1.32701	1157851.4486385514
1.32987	697480.821466357
1.33274	573067.8168639563
1.3356	568853.6055305045
1.33847	143361.21189074352
1.34133	95283.9257004652
1.34419	121594.36067562914
1.34705	76458.25580262637
1.34991	82286.56052555516
1.35277	80768.25030816518
1.35563	32227.330127236328
1.35849	24260.536154829653
1.36135	33727.372336146815
1.3642	72118.21666420535
1.36706	60793.48208351557
1.36991	63351.06475271467
1.37277	67788.08247795678
1.37562	102403.96942715862
1.37847	92298.67398736351
1.38132	55145.411297022765
1.38417	24339.098807964663
1.38701	14704.76570065545
1.38986	63430.37348519181
1.39271	85650.26457178163
1.39555	35683.523418673445
1.39839	50729.42340553097
1.40123	69992.14380335114
1.40407	78532.42482406557
1.40691	69797.47042626355
1.40974	49610.79701763323
1.41258	86829.55140175055
1.41541	111884.78687649553
1.41824	56516.12515570245
1.42107	33590.92615047322
1.4239	35327.8641285066
1.42673	124399.95393314153
1.42955	186877.27860764734
1.43237	124767.4917857669
1.43519	224255.6582597423
1.43801	233548.40311336782
1.44083	215781.97862225972
1.44365	252186.56444136042
1.44646	210340.7471326246
1.44927	334587.33678799757
1.45208	494794.31229379645
1.45489	368066.70262061455
1.45769	563450.7924680763
1.4605	528948.7123644756
1.4633	377346.0449549725
1.4661	574292.5836848728
1.4689	516510.8085889057
1.47169	462298.66066961555
1.47449	374251.0073433119
1.47728	318217.2573442978
1.48007	327867.88158093276
1.48286	453504.59201088594
1.48564	424301.18275156914
1.48842	405774.61816037446
1.4912	452807.03517337446
1.49398	386143.42999256146
1.49676	460609.8235446692
1.49953	671614.0721047571
1.5023	716868.6621865322
1.50507	821057.8863105909
1.50784	790045.5380404408
1.51061	730475.0693924136
1.51337	631993.8455155548
1.51613	610572.6419874891
1.51888	633875.7446168832
1.52164	774963.364731546
1.52439	890884.974323505
1.52714	889685.9345070218
1.52989	1081011.9662237752
1.53263	1160254.6203549532
1.53538	1291666.3391393004
1.53812	1421331.4699052242
1.54086	1079306.3570708535
1.54359	1308114.6581233225
1.54632	1399729.8688034397
1.54905	1359648.545317639
1.55178	1317131.9054216556
1.5545	1579853.5562659444
1.55723	1819938.338421328
1.55995	1978319.6540801504
1.56266	1914633.8623908788
1.56538	2468565.7316516945
1.56809	2726270.742014743
1.5708	2716830.3731198213
1.57351	2615731.166364092
1.57621	2823652.782287608
1.57891	2761635.297339151
1.58161	2944922.6158813466
1.5843	2942216.624578709
1.587	2967947.979652637
1.58969	2834331.34858169
1.59238	2631162.050153228
1.59506	2854350.5765072564
1.59774	2968537.509406966
1.60042	2755019.6258972147
1.6031	2515290.6262765164
1.60577	2335877.199107514
1.60844	2121832.537319534
1.61111	2044618.6923780788
1.61378	1840471.711500479
1.61644	1609521.9796742343
1.6191	1428987.1880658842
1.62176	1550109.9814906467
1.62441	1541503.836108475
1.62707	1481870.2313493926
1.62971	1390200.2944187934
1.63236	1323008.700956835
1.635	1581380.8060116372
1.63764	1840687.508082716
1.64028	1693421.6688697005
1.64292	1648270.538475305
1.64555	1313470.8019301996
1.64818	1212662.6673410856
1.65081	1589337.3056122381
1.65343	1656016.181972368
1.65605	1305104.15313271
1.65867	1490604.362275393
1.66128	1948649.902233031
1.6639	1441540.4405062033
1.66651	360110.2654081925
1.66911	230710.01362397987
1.67172	819428.4421838707
1.67432	1290115.8374920269
1.67692	1484218.028337316
1.67951	1300205.2813806036
1.68211	981525.7760561308
1.6847	733088.8354535075
1.68728	729418.9565467419
1.68987	730443.7962012559
1.69245	537677.5179070754
1.69503	538054.9346754443
1.6976	492852.7614853212
1.70018	476886.09897344664
1.70275	375051.6199115149
1.70531	381662.5368691741
1.70788	601301.7985542095
1.71044	854813.0400802084
1.713	1152692.5340595779
1.71556	1277556.0316889097
1.71811	1314166.5505807875
1.72066	1116760.8736266384
1.72321	765670.2882471863
1.72575	1048562.4793630223
1.7283	1181982.0701088475
1.73084	1181640.1038145272
1.73337	995831.329846265
1.73591	946947.0003621974
1.73844	1149528.7637196453
1.74097	1196149.9967657442
1.74349	1222301.323830968
1.74602	1335467.2820917596
1.74854	1532288.351294308
1.75105	1539713.7740720187
1.75357	1136389.3607574676
1.75608	690919.3252945681
1.75859	702220.5506952744
1.7611	688679.9083466195
1.7636	688890.5296097548
1.7661	690408.6987093001
1.7686	627383.5560173901
1.7711	720267.3811153518
1.77359	641438.7335416337
1.77608	446991.0075018912
1.77857	536981.0729896727
1.78105	663839.4501711414
1.78354	478044.6610524894
1.78602	362642.9336935794
1.78849	454893.4410903763
1.79097	386807.5258563705
1.79344	325449.69649243186
1.79591	410089.16585559025
1.79837	570710.1036748431
1.80084	353963.12847139285
1.8033	256851.51986929515
1.80576	281263.4329026129
1.80821	289866.15509774146
1.81067	287637.67953390523
1.81312	358551.8604105463
1.81557	376644.810617961
1.81801	263574.18288635253
1.82046	207335.49619206722
1.8229	293906.01063473354
1.82533	275958.83373278653
1.82777	162815.30713247487
1.8302	158008.2206772748
1.83263	183914.1147597689
1.83506	161612.15682276382
1.83749	135300.8551361911
1.83991	162778.57033065625
1.84233	255145.19511705547
1.84475	406612.2905197166
1.84716	295808.9522183685
1.84957	312890.3341765957
1.85198	453103.4575847906
1.85439	328628.87452438724
1.8568	173465.27044511813
1.8592	103514.03132528835
1.8616	132730.85434464153
1.864	155640.90523277665
1.86639	118940.51891111625
1.86878	71847.25544206914
1.87118	98852.15994189036
1.87356	134705.07785051104
1.87595	212485.56704962402
1.87833	468692.7463209998
1.88071	593781.3325878246
1.88309	476067.35289429553
1.88547	405038.47075535345
1.88784	484382.8865415742
1.89021	498909.73770861357
1.89258	563531.1002953605
1.89494	735708.3332419607
1.89731	624866.5923800288
1.89967	372592.2737670835
1.90203	360447.1247157898
1.90439	315175.6807799223
1.90674	347957.760461679
1.90909	341935.0547096088
1.91144	155134.5247109848
1.91379	133440.5144504683
1.91613	270348.3699142898
1.91848	310310.3221991661
1.92082	206224.04238310724
1.92315	175225.79933755693
1.92549	197758.47979998693
1.92782	195995.16225467235
1.93015	149921.0936701161
1.93248	111195.23459561546
1.93481	115235.8056264995
1.93713	112145.12824839393
1.93945	113002.65169034814
1.94177	198943.00463958152
1.94409	223116.39895128302
1.94641	177232.43147170005
1.94872	145286.8488409006
1.95103	180635.0006338719
1.95334	211135.96590357562
1.95564	200847.88299982666
1.95795	225238.90771629784
1.96025	202760.6106566578
1.96255	180982.18506857657
1.96484	287806.671250708
1.96714	396653.76271366084
1.96943	373684.8454307369
1.97172	348243.17392042326
1.97401	341386.0138466978
1.97629	370912.2488466925
1.97858	410238.66880001954
1.98086	329002.0432306024
1.98314	247594.5138671265
1.98541	365340.6493068816
1.98769	527014.0067223761
1.98996	473051.8439925043
1.99223	406012.18487793306
1.9945	535548.4071944294
1.99677	677201.0300389965
1.99903	714543.7821783414
2.00129	692789.0153752777
2.00355	631200.5663563667
2.00581	639063.8336518917
2.00806	717529.0160467945
2.01031	747813.0264894787
2.01256	816726.0865488922
2.01481	827503.596131412
2.01706	718540.9634058706
2.0193	687662.8596124139
2.02154	804056.318300002
2.02378	928142.6411627934
2.02602	883647.2298065387
2.02825	733935.2625187009
2.03049	745844.4062866374
2.03272	917229.9201347776
2.03494	1031889.5254287572
2.03717	1010917.1425250076
2.03939	996040.273632314
2.04162	1179362.2344781433
2.04384	1363892.1974222215
2.04605	1423765.2098922955
2.04827	1371924.1382166767
2.05048	1364570.9424900552
2.05269	1426535.6673523993
2.0549	1424012.5738320271
2.05711	1418918.4413267514
2.05931	1434540.08361227
2.06151	1553447.317140049
2.06371	1681315.7317521344
2.06591	1681166.278351342
2.06811	1641507.32136832
2.0703	1714320.1477516508
2.07249	1849033.7204575276
2.07468	1919362.3579331888
2.07686	1955770.490741917
2.07905	1952313.8342262881
2.08123	1895516.3213020642
2.08341	1891527.8367040423
2.08559	1930083.5511045877
2.08776	1961726.781404978
2.08994	1987730.868036092
2.09211	1953900.0337534363
2.09428	1909688.1160550504
2.09645	1922830.2028130249
2.09861	1921922.5284554032
2.10077	1880316.866077852
2.10293	1892900.5739539065
2.10509	1962906.3353510113
2.10725	1986934.9299760412
2.1094	1912108.0457867777
2.11155	1795312.4224714492
2.1137	1767208.9525484752
2.11585	1802326.0865676964
2.11799	1833525.811355719
2.12013	1864471.341748898
2.12227	1848776.0020641955
2.12441	1830174.2142371933
2.12655	1820276.058075071
2.12868	1783413.3510623614
2.13081	1745832.7643837624
2.13294	1702235.487579038
2.13507	1607748.163500011
2.13719	1559161.9140634951
2.13931	1638999.7669310737
2.14143	1679247.4862028349
2.14355	1583073.899655317
2.14567	1439510.1104923224
2.14778	1296165.6258871828
2.14989	1223755.8673390523
2.152	1225702.9613645906
2.1541	1188112.9886904433
2.15621	1127992.0969828267
2.15831	1058832.4117950262
2.16041	882749.51221911
2.16251	737535.7195903617
2.1646	772448.9512841757
2.1667	872796.9257740409
2.16879	950428.0799967484
2.17087	1016941.964152817
2.17296	1024260.3887084374
2.17504	1011259.6143246264
2.17713	1013072.1592666938
2.1792	926187.9094027142
2.18128	756908.0426891452
2.18336	655635.6198442848
2.18543	705260.4043458216
2.1875	741468.8055172827
2.18957	651895.0924431587
2.19163	551389.3869184768
2.1937	496509.2812877586
2.19576	427705.1098825245
2.19782	303713.2807366942
2.19987	170140.03835663473
2.20193	112445.37048421691
2.20398	123220.64414361914
2.20603	147251.50380881553
2.20808	156548.23085890888
2.21012	143618.45953245752
2.21217	134071.29083370385
2.21421	172693.77664398664
2.21625	221869.68427191328
2.21828	227709.71831509878
2.22032	206743.63232653012
2.22235	209056.13844760874
2.22438	228199.1949977411
2.22641	195522.63530091042
2.22843	131701.39368302454
2.23046	92695.90088790689
2.23248	86292.33440636437
2.2345	89146.95383061962
2.23651	80182.9356018649
2.23853	76552.25713696494
2.24054	93240.278547628
2.24255	112070.84382374867
2.24456	116486.83660270479
2.24657	101730.51239455133
2.24857	81136.18377170364
2.25057	67708.02334813462
2.25257	54971.50451717078
2.25457	41488.173747139794
2.25656	38484.187503855224
2.25856	53728.38285984712
2.26055	69352.18948252792
2.26254	69115.68081561392
2.26453	60993.818121035365
2.26651	60724.282865597575
2.2685	64432.43314498187
2.27048	68665.88171295957
2.27246	84975.56671100718
2.27443	94034.2216185962
2.27641	91927.2804522044
2.27838	95475.03233875358
2.28036	95389.18377462022
2.28233	79205.77652266987
2.28429	64252.68360370907
2.28626	54762.70426667423
2.28823	47314.15188310414
2.29019	41083.11009976439
2.29215	36893.69608270414
2.29411	38528.822995359784
2.29607	45124.222055293496
2.29802	52791.91517882695
2.29998	61486.52588412163
2.30193	80626.95399994736
2.30388	105083.79737712337
2.30583	125745.36240125677
2.30778	154927.99942975372
2.30972	211076.7670470117
2.31167	261035.68061636665
2.31361	237266.79173468583
2.31555	149402.066881384
2.31749	62593.58789105354
2.31943	31356.918026112115
2.32137	30436.21609770941
2.32331	33546.989200614866
2.32524	30423.294491870485
2.32718	23963.21110030575
2.32911	19437.182208412305
2.33104	18874.861551746868
2.33297	25979.40879376165
2.3349	41132.320887646754
2.33683	56829.15808095968
2.33876	61946.85768004891
2.34068	58686.21423150751
2.34261	54501.505883102735
2.34453	53429.19369675084
2.34646	59451.14879535128
2.34838	72345.04336541044
2.3503	78307.72136315958
2.35223	80308.57257518724
2.35415	77598.6702320616
2.35607	76943.28730994271
2.35799	100532.46518638468
2.35991	132161.11057334565
2.36183	147855.31049500895
2.36375	149761.1161619384
2.36566	150126.9906118728
2.36758	124723.57827916736
2.3695	86726.45529115222
2.37142	62419.53349241442
2.37334	61766.1433339233
2.37526	66950.94246402654
2.37718	68782.73681135189
2.3791	72775.66725493672
2.38101	79047.87776579079
2.38293	84690.50015294088
2.38485	86780.86476999265
2.38677	99770.06705044513
2.3887	123873.92978392915
2.39062	142957.30278602912
2.39254	151028.41608015733
2.39446	155298.39561826087
2.39639	158039.97035628377
2.39831	159949.03693131253
2.40024	186212.68009088354
2.40216	214393.4693785279
2.40409	224444.2416759265
2.40602	192344.67672593257
2.40795	162727.589742866
2.40989	182789.9152528432
2.41182	242807.15197920028
2.41376	271888.5719048056
2.4157	264704.2861125226
2.41764	253089.79211533544
2.41958	257994.52613584592
2.42152	262445.56841913273
2.42347	253278.68434273414
