#wavelength	surface flux
0.676892	1968213.2501040841
0.678297	2069207.2547184932
0.679702	2167934.612069305
0.681109	2269930.6697438476
0.682517	2348696.366081465
0.683926	2448155.459887064
0.685337	2514563.2968894118
0.686749	2582142.2626320655
0.688164	2649721.6858982625
0.689581	2711126.30836245
0.691	2729613.3269715416
0.692422	2749558.2871301905
0.693847	2726365.854902915
0.695274	2812937.5158529314
0.696705	2838315.0650676265
0.698139	2829163.836819576
0.699576	2816987.269849193
0.701017	2793605.754544382
0.702461	2768163.1237116605
0.70391	2727197.717961619
0.705362	2638146.356408285
0.706819	2544941.2431406705
0.70828	2497893.7356952205
0.709745	2415143.9343899745
0.711216	2348387.0644286526
0.71269	2266931.253006737
0.71417	2181244.3636030573
0.715655	2097848.0345441033
0.717145	1996873.2677112846
0.71864	1908889.4044485807
0.72014	1823691.9069568391
0.721647	1731324.947321613
0.723158	1642167.642845925
0.724676	1538677.0310777226
0.726199	1433792.258143444
0.727728	1325447.100132921
0.729264	1235626.6571609494
0.730805	1136690.4624538675
0.732353	1052188.415033793
0.733907	960074.4309683671
0.735468	864953.4359557012
0.737035	786950.3783079163
0.738609	705286.3754576317
0.74019	628103.726985246
0.741777	554071.6472179606
0.743372	484235.6030508474
0.744973	417944.2330284632
0.746582	355565.29299260856
0.748197	297808.5425979149
0.74982	245390.66645931118
0.751451	197503.6821899218
0.753088	154861.29474584383
0.754734	117616.85641216597
0.756386	85928.47378135989
0.758047	59817.95938098988
0.759715	39260.71205995144
0.76139	23976.023396310447
0.763074	13403.118186084315
0.764765	6309.610939826685
0.766464	2168.2492770799295
0.768172	4243.312530596278
0.769887	3096.1840807460185
0.77161	9663.96480616454
0.773341	21806.20227730584
0.775081	39931.846651889384
0.776829	65606.85033205074
0.778585	86673.0221607073
0.780349	93427.3346500632
0.782121	194676.58180861888
0.783902	270363.65322150534
0.785691	353056.3224223927
0.787489	448258.10798982385
0.789295	555606.870684546
0.79111	671314.7324749448
0.792933	719208.1945814814
0.794764	476972.7975469158
0.796604	1009820.7345210898
0.798453	1303117.8932403699
0.80031	1523846.8402293252
0.802176	1751967.6563519656
0.804051	2002094.1033745774
0.805934	2268015.1774145216
0.807826	2553936.12384203
0.809727	2854299.5751478146
0.811636	3175181.2239782303
0.813554	3504503.914763919
0.81548	3902241.1336446307
0.817416	4177309.8953883946
0.81936	4073692.306091922
0.821313	5128755.740036587
0.823274	5685284.132115185
0.825244	6193150.355511313
0.827223	6767937.045380131
0.829211	7304390.461979549
0.831208	7867681.8014154555
0.833213	8560627.64806942
0.835227	9185751.434987187
0.837249	9801437.809078224
0.83928	10597429.879553497
0.841321	11370090.15449881
0.843369	12096212.203476975
0.845427	12708901.315451011
0.847493	13513850.068353677
0.849567	13850480.121620646
0.851651	9312792.567493452
0.853742	14150671.528090978
0.855843	17190476.43248124
0.857952	18323769.544001017
0.86007	18598068.778001744
0.862196	12637683.64843121
0.864331	14108868.03093491
0.866474	15984633.283323323
0.868626	16848324.466310926
0.870786	16069340.039046707
0.872955	16563457.555880088
0.875132	15712713.843310528
0.877317	22232706.870957445
0.879511	23617152.42522266
0.881713	22881890.458650865
0.883923	25666862.534599267
0.886142	27067470.030576196
0.888369	25742026.56201777
0.890604	30103359.355297916
0.892847	24978053.653398834
0.895099	21904421.748616185
0.897358	32101151.088506185
0.899626	36929245.55458259
0.901901	41022874.852567054
0.904185	45176291.07774704
0.906476	42244193.2620081
0.908776	43528553.29949306
0.911083	45168509.7045334
0.913398	48349737.27616911
0.915721	53470305.08084465
0.918051	55549260.296088934
0.92039	62807557.94148369
0.922736	63019477.14485397
0.925089	62014833.84069338
0.927451	56067320.50078062
0.929819	48181170.90778644
0.932195	48032542.51297642
0.934579	49895084.969751045
0.93697	67204046.14575239
0.939369	71045268.9269902
0.941774	71289454.53594129
0.944187	65099537.24865395
0.946607	77210171.65348881
0.949035	78125519.90593845
0.951469	72176927.65037024
0.953911	74331795.42175525
0.956359	68540217.23953581
0.958814	80318531.01731008
0.961277	69835306.50393067
0.963746	66620958.01899635
0.966222	82856619.94468872
0.968705	89087485.89809972
0.971194	97420308.42739432
0.97369	94609388.89150421
0.976193	106413528.62072572
0.978702	106698865.97852945
0.981217	113571484.82867916
0.983739	111623051.51240194
0.986268	123132139.29322217
0.988802	118270107.08301924
0.991343	81997789.9649472
0.99389	92339405.82300547
0.996444	92177607.86368904
0.999003	64386164.044231005
1.00157	61097143.91189466
1.00414	69617484.27776195
1.00672	69464351.92069073
1.0093	75475395.02926345
1.01189	77889055.40718652
1.01448	89823442.31975251
1.01708	91006015.46752067
1.01969	103181824.12706207
1.0223	105649449.7681937
1.02492	105913803.46011533
1.02754	102902699.87210056
1.03017	116307901.56214428
1.0328	122773245.83349086
1.03544	123487806.21580537
1.03808	139431507.0678917
1.04073	141831701.23592767
1.04339	139928001.52156258
1.04604	138752838.71725386
1.04871	137012663.59270868
1.05138	137567837.28238282
1.05405	145674192.24236125
1.05673	141726015.13227293
1.05941	152838235.06992024
1.0621	150685223.19982857
1.06479	163546593.55033356
1.06749	167404799.35218024
1.07019	181587415.15026417
1.07289	180839232.60436964
1.0756	190918246.07040012
1.07832	202007090.67120966
1.08104	197159702.6399366
1.08376	212175466.1764994
1.08649	197957240.34011266
1.08922	199259399.66179278
1.09195	191584311.68885848
1.09469	189265624.90683946
1.09743	164426851.06976455
1.10018	153789382.1509252
1.10293	134215259.62475938
1.10568	115539406.31909502
1.10844	125517449.08166377
1.1112	110769947.26383552
1.11396	98122063.14921173
1.11673	90673566.47086896
1.1195	114151339.31803924
1.12228	102772328.96204911
1.12505	112433058.6078493
1.12783	135781291.4291554
1.13062	118241960.46488209
1.13341	64116951.34273896
1.1362	74121651.50627391
1.13899	75242106.1588088
1.14178	97608475.58462633
1.14458	105711123.08741578
1.14738	119161597.10504547
1.15019	153321576.9019927
1.153	130178018.61206809
1.1558	119097858.81615376
1.15862	141026895.51776585
1.16143	107020210.60383393
1.16425	92283557.20845033
1.16707	73938636.02695416
1.16989	72751142.51644999
1.17271	99543000.5182339
1.17554	70757302.50816649
1.17837	58770868.367701344
1.1812	106453630.55083202
1.18403	117211807.94542877
1.18686	130432180.04891178
1.1897	144551588.99295527
1.19253	154635899.42428985
1.19537	162867929.41716674
1.19822	170280709.2926104
1.20106	180360491.3469289
1.2039	184039224.74386784
1.20675	191628014.6136421
1.2096	204023987.13585988
1.21245	212262286.81285036
1.2153	220229758.92824164
1.21815	219042427.20438716
1.221	234077638.9706114
1.22385	244505334.97015205
1.22671	249517822.6832329
1.22957	252969571.5845793
1.23242	257574062.3189624
1.23528	248772609.3553
1.23814	242124470.68402323
1.241	202164396.8201338
1.24387	161614461.46319082
1.24673	218331925.19062132
1.24959	179386916.1011247
1.25245	114751892.27485849
1.25532	198800575.28069893
1.25818	250736028.8930593
1.26105	275479370.0588542
1.26392	274391552.7384505
1.26678	290737234.0061323
1.26965	288439573.1966172
1.27252	301563388.82602584
1.27538	301371086.4497131
1.27825	304475626.7534561
1.28112	307614611.5304631
1.28399	285610848.32243127
1.28686	291667708.4887525
1.28973	286948769.94959944
1.2926	290812466.4014787
1.29546	274010898.7746841
1.29833	265833025.3522135
1.3012	283706465.2720851
1.30407	290933995.0369409
1.30694	266714085.32883674
1.30981	278612182.450118
1.31267	279230106.3524921
1.31554	258558112.8042591
1.31841	245583267.8360923
1.32128	252901315.49965295
1.32414	205174042.41918087
1.32701	162934591.5380842
1.32987	134942317.82725927
1.33274	74198591.85465162
1.3356	51431594.81050857
1.33847	19124375.119694956
1.34133	15304137.9938535
1.34419	19309145.77590032
1.34705	17120057.33746284
1.34991	19247944.770843666
1.35277	22806956.37385164
1.35563	9584475.470054576
1.35849	10673868.027120892
1.36135	14655391.12756202
1.3642	22152673.337152116
1.36706	24533661.019457933
1.36991	23571597.097040277
1.37277	24249908.729135767
1.37562	22729248.908708602
1.37847	21022584.71212735
1.38132	17983733.813727904
1.38417	11587072.097739005
1.38701	6221629.032164089
1.38986	17354174.018738143
1.39271	18053342.987550233
1.39555	12911893.518936573
1.39839	20284208.20305971
1.40123	25106168.629665613
1.40407	22778546.310236126
1.40691	18307703.90720571
1.40974	13626406.953837195
1.41258	19221954.127062317
1.41541	21501862.374679163
1.41824	11807735.570045965
1.42107	10451843.292812157
1.4239	10291308.478254834
1.42673	19739399.03005609
1.42955	25288846.378609393
1.43237	19599856.46481686
1.43519	25635689.400668725
1.43801	28868974.729916807
1.44083	26397363.839728307
1.44365	30705887.763031576
1.44646	28496929.291951947
1.44927	34455535.74994317
1.45208	42347135.71888413
1.45489	31519142.69769279
1.45769	46244158.19357456
1.4605	45648282.24172983
1.4633	28768391.66794905
1.4661	44230470.92086241
1.4689	43568706.227191254
1.47169	47077112.71419689
1.47449	46404339.77074507
1.47728	46892027.65752571
1.48007	48089688.582583874
1.48286	49791196.7200161
1.48564	47123968.62122591
1.48842	48556809.83257581
1.4912	56137415.90707187
1.49398	54460985.70648487
1.49676	62848392.177407
1.49953	66164903.87406602
1.5023	71838929.64773326
1.50507	80626752.0983703
1.50784	73485718.52224532
1.51061	79603750.24420269
1.51337	84521215.46052042
1.51613	76199681.04900962
1.51888	74359802.07463163
1.52164	82330882.12359391
1.52439	91157974.10351174
1.52714	84657677.66921142
1.52989	89297529.25669786
1.53263	99092709.99242058
1.53538	108066470.85979946
1.53812	106593890.26862088
1.54086	102244466.95281236
1.54359	97271061.14936933
1.54632	111253117.41802718
1.54905	112277445.20213476
1.55178	113801586.03077805
1.5545	117013505.7293389
1.55723	116756720.5039577
1.55995	123045596.22171383
1.56266	123424103.76909694
1.56538	127014048.70069836
1.56809	137355094.03007898
1.5708	136749377.4449731
1.57351	137695988.79889745
1.57621	138554615.41159558
1.57891	137981282.04862067
1.58161	140946465.108317
1.5843	141695137.5088954
1.587	142974389.63544995
1.58969	140643049.1895091
1.59238	137604655.6467854
1.59506	141781404.9391389
1.59774	143172253.95509243
1.60042	140881539.25511774
1.6031	138149939.38691932
1.60577	133355800.54903916
1.60844	130743593.59594686
1.61111	134859301.35400212
1.61378	132590144.19271877
1.61644	127033721.24654523
1.6191	121948618.39782241
1.62176	127213790.8058912
1.62441	125533760.25901577
1.62707	126544097.71679214
1.62971	116581546.14074115
1.63236	124652453.70840278
1.635	128598968.42347957
1.63764	132397563.67880507
1.64028	117448641.87116607
1.64292	121085405.5381939
1.64555	110082548.85292119
1.64818	122540633.91295151
1.65081	129487368.14176877
1.65343	121555344.25767565
1.65605	117717365.38824412
1.65867	120198240.00714663
1.66128	129122576.05572806
1.6639	116364950.42389855
1.66651	66906413.93492042
1.66911	59515960.46597886
1.67172	91115608.11058766
1.67432	109914614.29415593
1.67692	116643666.17285448
1.67951	114796692.2046058
1.68211	104026258.87618569
1.6847	90424474.7101411
1.68728	97738538.41976725
1.68987	97135387.98158924
1.69245	86684851.89253974
1.69503	83038988.51691547
1.6976	84938829.2880851
1.70018	86827605.26997703
1.70275	79011040.22825249
1.70531	75072183.4073878
1.70788	82751378.1004889
1.71044	85788839.84266889
1.713	85757459.82750201
1.71556	87148283.87242958
1.71811	88518257.01691279
1.72066	82166621.92624441
1.72321	67103199.34598403
1.72575	72983912.95304163
1.7283	81050945.69201003
1.73084	76648698.94159493
1.73337	66500346.92806989
1.73591	66222734.06295877
1.73844	67628414.46875569
1.74097	63853248.50738636
1.74349	59839456.428638645
1.74602	58878157.81937228
1.74854	66855008.564875744
1.75105	65687539.993024684
1.75357	51917487.23138562
1.75608	42562521.5630396
1.75859	46709829.078315556
1.7611	46615390.69939419
1.7636	45539532.19787227
1.7661	41199678.40565479
1.7686	36203289.43746862
1.7711	38755162.10071771
1.77359	36536776.910740346
1.77608	27036555.336497203
1.77857	28896750.02396899
1.78105	32236131.584439304
1.78354	26465698.438084885
1.78602	22930793.599760983
1.78849	27430492.967969906
1.79097	25224394.239457995
1.79344	23130999.901533984
1.79591	26586628.885204364
1.79837	32175933.156439073
1.80084	23514743.03841714
1.8033	23130620.825858083
1.80576	24140187.858850818
1.80821	22862196.22971855
1.81067	23092732.225645274
1.81312	26266499.821972687
1.81557	28396430.71603157
1.81801	22027499.5358615
1.82046	19604407.597021554
1.8229	22797329.07502788
1.82533	21783845.826904707
1.82777	19099121.659729972
1.8302	20299056.189562757
1.83263	20541419.50661682
1.83506	20131511.135478448
1.83749	21308612.423530772
1.83991	22039516.730265442
1.84233	23198039.856710218
1.84475	25220361.170459278
1.84716	22390429.64391098
1.84957	24627347.612960637
1.85198	27226444.76247421
1.85439	21052963.697299786
1.8568	15919861.10010314
1.8592	13755196.7823908
1.8616	13717241.700801758
1.864	13785461.575312847
1.86639	12882661.654173994
1.86878	12235265.988503268
1.87118	16096277.39529937
1.87356	18256053.27744055
1.87595	19112222.97769601
1.87833	25139605.68586038
1.88071	30321985.362596236
1.88309	27335839.97071621
1.88547	25587843.916279387
1.88784	29707084.997488078
1.89021	31094315.968649063
1.89258	33167936.91962782
1.89494	34896501.32444128
1.89731	30773205.75341616
1.89967	26197168.297353394
1.90203	26546416.697969027
1.90439	27381255.830820467
1.90674	34522558.28084437
1.90909	38076664.86217581
1.91144	27096017.629636254
1.91379	24284261.422179304
1.91613	32231270.627920624
1.91848	34340058.89083753
1.92082	28487175.457715422
1.92315	25028678.730666935
1.92549	26781490.03378237
1.92782	28316663.48018818
1.93015	25401182.335427456
1.93248	23354180.657644004
1.93481	21852273.426628284
1.93713	16506246.239566248
1.93945	13232234.610319873
1.94177	19956273.6843324
1.94409	24490650.684983104
1.94641	22709316.3827918
1.94872	23434898.665079765
1.95103	29210839.471424006
1.95334	28479621.578993067
1.95564	21448496.70742471
1.95795	19640895.921611995
1.96025	18365440.73295317
1.96255	17821404.51898785
1.96484	22442362.54840812
1.96714	25836464.08980442
1.96943	24828040.392772067
1.97172	26737177.32733607
1.97401	27984183.58837309
1.97629	27886115.433950882
1.97858	28977577.812506594
1.98086	25611089.977456395
1.98314	22980712.291528933
1.98541	27764056.620918736
1.98769	32246139.29526812
1.98996	28250598.22286376
1.99223	25471608.186717626
1.9945	29610797.925690252
1.99677	31451413.3006754
1.99903	29037442.889801055
2.00129	27753711.251573835
2.00355	30241619.17765042
2.00581	34628812.279498026
2.00806	33172134.73551344
2.01031	32537793.988593843
2.01256	39293340.9362415
2.01481	41951377.350275375
2.01706	36955492.76704483
2.0193	36937468.831801005
2.02154	43127471.27559517
2.02378	44582515.475142024
2.02602	39739096.642770015
2.02825	37872285.18124947
2.03049	40826628.186726294
2.03272	46107079.47532688
2.03494	47674962.25632491
2.03717	46691090.78606299
2.03939	47924608.76874923
2.04162	50482959.71082271
2.04384	51993946.66072511
2.04605	51839411.11207151
2.04827	49773400.611656316
2.05048	49828106.09607646
2.05269	50094987.91889412
2.0549	47941591.787398905
2.05711	50229451.31893397
2.05931	52360814.38020656
2.06151	51840991.38042532
2.06371	52631958.36212871
2.06591	53020215.44281819
2.06811	54407536.606151894
2.0703	56476583.42545308
2.07249	57164844.252530284
2.07468	55948825.70238676
2.07686	54900262.59089722
2.07905	56119430.77936115
2.08123	57948142.40503943
2.08341	58867430.720990576
2.08559	58537863.808440946
2.08776	58460340.30718512
2.08994	59067350.914300874
2.09211	59152523.809778266
2.09428	59463763.0318283
2.09645	60011442.830239475
2.09861	59299030.85293401
2.10077	57882871.7871248
2.10293	57603317.5076655
2.10509	58615278.210957356
2.10725	58875007.64808537
2.1094	57066949.602923684
2.11155	54493035.340077795
2.1137	54143387.34912751
2.11585	54950731.198843434
2.11799	55504858.54162466
2.12013	56601584.05808185
2.12227	57273663.55800047
2.12441	57508328.88845154
2.12655	57160157.021572046
2.12868	55964674.18133204
2.13081	55535917.29348664
2.13294	55849930.59453993
2.13507	54909719.00903542
2.13719	53997554.20997956
2.13931	54551359.58499288
2.14143	54945352.50375676
2.14355	54198813.130548
2.14567	52858157.97066759
2.14778	51003600.20014178
2.14989	49676113.80764534
2.152	49443706.29460842
2.1541	49256712.80319102
2.15621	49041318.68522528
2.15831	48326245.81765428
2.16041	47031548.77579699
2.16251	46787330.756684355
2.1646	46835907.47286709
2.1667	46805259.54635461
2.16879	47579844.939079
2.17087	48034851.89775841
2.17296	47085044.04831058
2.17504	46083349.010985315
2.17713	45592172.70645303
2.1792	44005526.650351964
2.18128	40239119.26180101
2.18336	36505878.05140693
2.18543	36181508.32092292
2.1875	37082504.71275033
2.18957	36420627.37110526
2.19163	36042530.30951814
2.1937	36247406.51232649
2.19576	34309368.56339247
2.19782	29705282.22838821
2.19987	24419507.28475169
2.20193	20953946.21662051
2.20398	19180399.958490036
2.20603	18264100.580906752
2.20808	18891760.250626173
2.21012	20073264.02693192
2.21217	20974864.51493199
2.21421	22996594.549939875
2.21625	25314423.420499112
2.21828	26463752.270455867
2.22032	27251473.496494837
2.22235	27224691.85613164
2.22438	25554520.530015983
2.22641	22614207.799708083
2.22843	21156872.959757227
2.23046	21121131.317453142
2.23248	20854060.125033993
2.2345	20105080.213900603
2.23651	18456219.230596416
2.23853	16979589.198432
2.24054	17482153.176836945
2.24255	19748687.38566443
2.24456	21806747.992785294
2.24657	22401857.81717573
2.24857	22046410.90264939
2.25057	21375285.46459707
2.25257	20552504.787423834
2.25457	19059113.36254158
2.25656	17631578.52734986
2.25856	17095433.451968715
2.26055	16824117.686833948
2.26254	15341995.953213079
2.26453	13933757.239700263
2.26651	13916203.203446995
2.2685	14573835.427249556
2.27048	15069608.78752083
2.27246	15841907.82326347
2.27443	16058001.50235798
2.27641	16167223.272609254
2.27838	16592616.344594076
2.28036	16047683.259238327
2.28233	14786365.178045047
2.28429	13924252.460758183
2.28626	13181303.145787813
2.28823	12482766.771958476
2.29019	12141518.33502029
2.29215	11982560.655769818
2.29411	11887859.666916337
2.29607	11992828.763820695
2.29802	12787978.503521346
2.29998	14260420.30439294
2.30193	16060259.51147584
2.30388	17415210.772800907
2.30583	18141774.2917556
2.30778	19009138.054836143
2.30972	19927223.839836195
2.31167	19914672.6854301
2.31361	17665083.81843616
2.31555	14464072.979972586
2.31749	12291680.160552276
2.31943	11753167.686985865
2.32137	11011570.152680907
2.32331	9679748.478474874
2.32524	8478441.403332189
2.32718	7303185.6237225775
2.32911	6653538.668138179
2.33104	7005301.079747805
2.33297	7883896.404643334
2.3349	8740995.741442397
2.33683	9791310.704314232
2.33876	10857233.927364906
2.34068	11729031.422710212
2.34261	12543680.824688425
2.34453	13299565.196658267
2.34646	13526531.781846713
2.34838	12933573.07269009
2.3503	11949954.497164687
2.35223	11838122.6530562
2.35415	11967199.823443564
2.35607	11394575.971143689
2.35799	11681520.398676503
2.35991	13164161.384631654
2.36183	14736537.84241879
2.36375	15865895.767612332
2.36566	16651417.29623396
2.36758	15914343.95096071
2.3695	13995304.522504205
2.37142	12554495.569607163
2.37334	12010861.920891322
2.37526	11356263.640718605
2.37718	10564293.217892107
2.3791	10271581.830271827
2.38101	10131332.13077566
2.38293	9838590.50423944
2.38485	9940276.583254077
2.38677	11370481.73095445
2.3887	13290536.457324782
2.39062	13971882.04834908
2.39254	13682908.056896796
2.39446	13733594.609516155
2.39639	13888516.556440515
2.39831	13339598.577414585
2.40024	12893267.01323351
2.40216	12981832.805549491
2.40409	13773618.958917182
2.40602	13972788.016938709
2.40795	13868033.23579955
2.40989	14855776.903155575
2.41182	16661356.964372145
2.41376	17211511.580065165
2.4157	16847504.756852962
2.41764	16052834.368495598
2.41958	15614138.362905234
2.42152	15339750.432377474
2.42347	15326632.117429072
