#wavelength	surface flux
0.8	514650.12924456317
0.8002000000000001	523570.93841967965
0.8004000500000003	532429.6429290897
0.8006001500125003	541287.6844419705
0.8008003000500035	550954.3271953441
0.8010005001250161	559339.4370023008
0.8012007502500472	571511.3334307951
0.8014010504376099	578900.6157279528
0.8016014007002193	586716.8055389723
0.8018018010503944	599194.8662766566
0.8020022515006572	605399.0538887638
0.8022027520635323	615953.8364700542
0.8024033027515483	627817.3616958346
0.8026039035772362	635766.5812441753
0.8028045545531306	646694.6867614908
0.8030052556917691	654659.846009274
0.803206007005692	665960.9932111872
0.8034068085074435	675241.2361753365
0.8036076602095705	689731.6110796777
0.8038085621246229	701687.7970927135
0.8040095142651542	711566.8014607334
0.8042105166437206	715889.5081687425
0.8044115692728815	730213.1503837664
0.8046126721651998	739275.5347034548
0.8048138253332411	753183.9390963974
0.8050150287895745	766856.4727562827
0.805216282546772	776517.1525803315
0.8054175866174087	781570.2642786021
0.8056189410140631	796793.997112487
0.8058203457493168	806836.2876554308
0.8060218008357541	822839.643434352
0.8062233062859632	821700.5516148999
0.8064248621125346	840478.2179639174
0.806626468328063	857664.672742503
0.8068281249451449	868018.9172618381
0.8070298319763813	875414.9825420503
0.8072315894343755	881482.0232421121
0.8074333973317341	902204.0014951495
0.8076352556810671	915934.7245935622
0.8078371644949874	926092.7526320474
0.8080391237861113	948291.6829683561
0.8082411335670578	951516.047720891
0.8084431938504498	959314.2529819849
0.8086453046489125	974927.1056939891
0.8088474659750746	981192.2549782912
0.8090496778415686	992212.5728351527
0.809251940261029	985977.7432234648
0.8094542532460944	1027899.6404033495
0.8096566168094059	1043057.9284861671
0.8098590309636085	1051995.7340864842
0.8100614957213493	1029535.018408572
0.8102640110952797	1066370.411033466
0.8104665770980536	1069288.9202254543
0.8106691937423283	1096113.0228503828
0.8108718610407639	1088753.284757412
0.8110745790060241	1106155.2565633417
0.8112773476507757	1144910.7084195637
0.8114801669876885	1132576.4113512253
0.8116830370294355	1140262.0228788438
0.8118859577886929	1203024.433815804
0.8120889292781401	1189092.4430614207
0.8122919515104597	1178147.760393374
0.8124950244983374	1157350.6227088617
0.8126981482544621	1237414.5823903764
0.8129013227915257	1266276.175322488
0.8131045481222237	1280012.7339349538
0.8133078242592543	1273805.1010653041
0.8135111512153191	1289937.1467265226
0.813714529003123	1288567.1355435264
0.8139179576353739	1329735.8532875122
0.8141214371247829	1336074.7815110437
0.8143249674840641	1301576.4142696683
0.814528548725935	1381344.40971257
0.8147321808631167	1407320.0779443358
0.8149358639083326	1383931.7605175432
0.8151395978743097	1333443.3066987803
0.8153433827737784	1449530.3685921622
0.8155472186194719	1430696.7353654376
0.8157511054241268	1457289.0659673926
0.815955043200483	1502907.654528233
0.8161590319612831	1526742.65565045
0.8163630717192736	1456280.948003099
0.8165671624872033	1546534.31029532
0.8167713042778252	1564615.4485411455
0.8169754971038948	1605947.3058071102
0.8171797409781707	1531972.8219449744
0.8173840359134155	1652637.6939375738
0.8175883819223938	1657659.0303496986
0.8177927790178745	1678747.5146714991
0.8179972272126291	1644330.6201691807
0.8182017265194322	1538220.359218623
0.8184062769510622	1416819.1740617615
0.8186108785203001	1712278.2391331603
0.8188155312399301	1698645.142252599
0.8190202351227402	1735370.4372332676
0.819224990181521	1627668.8313711467
0.8194297964290664	1213349.8329926222
0.8196346538781738	1506120.2082501026
0.8198395625416434	1797438.8683692836
0.8200445224322789	1836318.3545230532
0.820249533562887	1896330.7367200253
0.8204545959462778	1914406.9625982526
0.8206597095952644	1941174.6625955086
0.8208648745226633	1975697.766043796
0.8210700907412941	1991805.5939498236
0.8212753582639793	2016244.557721605
0.8214806771035456	2038420.722222231
0.8216860472728215	2055849.4183841778
0.8218914687846397	2065967.2940410902
0.822096941651836	2100443.140063605
0.822302465887249	2133633.784522842
0.8225080415037209	2163805.7942268383
0.8227136685140968	2109434.7931579226
0.8229193469312254	1999049.2866236633
0.8231250767679583	2013178.580006301
0.8233308580371503	2179340.9750760095
0.8235366907516598	2159415.2758969907
0.8237425749243477	2251380.9846892655
0.8239485105680789	2262392.6097756843
0.824154497695721	2294816.46232165
0.824360536320145	2273096.126774442
0.8245666264542252	2195404.091064473
0.8247727681108388	2411518.3240596107
0.8249789613028664	2425368.939950748
0.8251852060431922	2454511.088108526
0.825391502344703	2507079.029075224
0.8255978502202894	2522710.8037650716
0.8258042496828445	2530093.609429346
0.8260107007452654	2576799.5220802994
0.8262172034204517	2482089.6950708223
0.8264237577213068	2563536.2284544036
0.8266303636607373	2636965.7009509276
0.8268370212516525	2678400.8098101798
0.8270437305069654	2702227.807415512
0.8272504914395923	2713652.1435756874
0.8274573040624523	2673131.487754394
0.8276641683884679	2756003.9412916126
0.8278710844305652	2758025.941533104
0.8280780522016729	2831259.072611099
0.8282850717147234	2827921.9018079615
0.8284921429826521	2888880.721337733
0.8286992660183978	2902361.0721054156
0.8289064408349024	2883044.371355234
0.8291136674451112	2865063.8394050156
0.8293209458619727	2941214.155416767
0.8295282760984382	2897952.5861912756
0.829735658167463	2794286.8831965537
0.8299430920820048	3010951.6685417215
0.8301505778550254	3083604.57211109
0.8303581154994891	3103420.531302304
0.8305657050283641	3153920.522272877
0.8307733464546212	3060522.61076703
0.8309810397912352	3193173.187467116
0.8311887850511829	3246420.1362216487
0.8313965822474458	3167990.9492502767
0.8316044313930077	3287283.1724202298
0.8318123325008561	3330829.1929281675
0.8320202855839813	3328781.615881902
0.8322282906553774	3389824.6048356513
0.8324363477280413	3387180.3873994346
0.8326444568149735	3476216.9031237876
0.8328526179291771	3509941.9296211884
0.8330608310836596	3471323.775850882
0.8332690962914304	3416533.352818719
0.8334774135655034	3491090.315711724
0.833685782918895	3529801.3669776083
0.8338942043646247	3652490.1333067818
0.834102677915716	3582723.335938397
0.834311203585195	3685230.084633929
0.8345197813860912	3744826.3601563214
0.8347284113314379	3800369.6511130515
0.8349370934342709	3839051.309258923
0.8351458277076294	3628533.0288734133
0.8353546141645565	3832263.2354610953
0.8355634528180977	3719516.6286818697
0.8357723436813022	3758594.639057486
0.8359812867672226	3668632.507960311
0.8361902820889144	3998448.6209279485
0.8363993296594368	3636796.007704217
0.8366084294918518	4001960.754740268
0.8368175815992247	3971621.0583964786
0.8370267859946247	3943114.0332518998
0.8372360426911234	4174762.6579435463
0.8374453517017962	4220347.699881002
0.8376547130397217	4054342.170886996
0.8378641267179816	4015063.38186249
0.8380735927496613	4265988.0089018475
0.8382831111478488	4344891.048160785
0.8384926819256358	4393278.364372673
0.8387023050961173	4337482.0387585685
0.8389119806723914	4344503.748373908
0.8391217086675596	4532407.043715799
0.8393314890947265	4597354.803011213
0.8395413219670003	4595360.724434003
0.8397512072974922	4628441.074273112
0.8399611450993165	4579856.880548929
0.8401711353855914	4623882.750123621
0.8403811781694378	4724876.955777856
0.8405912734639802	4631628.899265658
0.8408014212823464	4638155.064874578
0.8410116216376671	4802181.065589512
0.8412218745430766	4886220.572810326
0.8414321800117124	4955386.058071584
0.8416425380567154	4883540.04338674
0.8418529486912297	4970489.056144697
0.8420634119284025	4764528.85132078
0.8422739277813847	5000249.283481752
0.8424844962633302	5029249.489541283
0.842695117387396	5196154.96434485
0.8429057911667428	5221013.854241208
0.8431165176145345	5133285.861574522
0.8433272967439382	5264413.924135106
0.8435381285681244	5232613.749015618
0.8437490131002665	5222543.463692612
0.8439599503535415	5405999.373426305
0.84417094034113	5312987.035201458
0.8443819830762154	5271826.0391600765
0.8445930785719846	5479038.082647406
0.8448042268416277	5526513.250288605
0.8450154278983382	5572458.963303115
0.8452266817553128	5558927.309835311
0.8454379884257517	5588658.105132036
0.8456493479228583	5359252.830638081
0.845860760259839	5723152.406246486
0.846072225449904	5867508.793011629
0.8462837435062666	5862111.445294226
0.8464953144421433	5626286.056817964
0.8467069382707537	5764309.688945279
0.8469186150053215	5984947.97351998
0.847130344659073	5897565.399929529
0.8473421272452377	5991291.713008336
0.8475539627770492	5989081.385330851
0.8477658512677435	6029546.6480447315
0.8479777927305605	6156564.326764549
0.8481897871787432	6187084.304722314
0.848401834625538	6243394.776039644
0.8486139350841944	6259490.101436777
0.8488260885679657	6229287.278548092
0.8490382950901076	6258831.989941605
0.8492505546638802	6373972.74407323
0.8494628673025462	6211174.377971737
0.8496752330193721	6442723.556471584
0.8498876518276269	6362364.863055802
0.8501001237405839	6250591.583681322
0.8503126487715191	6277674.624667306
0.850525226933712	6262716.445593617
0.8507378582404455	6132693.281724722
0.8509505427050057	5883755.636713614
0.8511632803406821	5675873.310218033
0.8513760711607672	5016958.244104748
0.8515889151785576	4066801.6333760936
0.8518018124073523	2430743.968473899
0.8520147628604541	597566.5853479018
0.8522277665511693	704853.3655652516
0.8524408234928071	2613878.186233071
0.8526539336986805	4280922.43560793
0.8528670971821053	5334973.312174898
0.8530803139564007	5993588.533652504
0.8532935840348901	6353053.005369681
0.8535069074308987	6786194.372278834
0.8537202841577566	6989963.451815444
0.8539337142287962	7124703.26988359
0.8541471976573534	7223742.656529918
0.8543607344567677	7363639.334012412
0.8545743246403821	7526734.413896435
0.8547879682215422	7508984.982364153
0.8550016652135977	7657842.61972663
0.8552154156299011	7678795.3689861
0.8554292194838088	7750731.063288146
0.8556430767886797	7726033.680885874
0.855856987557877	7949701.237876013
0.8560709518047664	8033890.370418132
0.8562849695427177	8137591.531856846
0.8564990407851035	8133906.973278776
0.8567131655452999	8233879.9986893395
0.8569273438366862	8354695.8936741315
0.8571415756726455	8376973.404101583
0.8573558610665638	8327096.521629791
0.8575702000318304	8259540.795477346
0.8577845925818384	8461351.4037872
0.857999038729984	8637525.230177393
0.8582135384896665	8671760.688774012
0.858428091874289	8646326.311039785
0.8586426988972576	8749445.123982795
0.8588573595719821	8758144.045274379
0.8590720739118751	8759592.455604997
0.8592868419303532	8884379.13222446
0.8595016636408359	8943973.137602892
0.8597165390567462	9025397.669783631
0.8599314681915105	8998692.660502782
0.8601464510585584	9000258.839290272
0.860361487671323	9157126.783099264
0.8605765780432408	9183269.867390718
0.8607917221877518	9213074.909129396
0.8610069201182988	9114321.497656435
0.8612221718483286	8214478.331083952
0.8614374773912907	5610914.007527048
0.8616528367606385	6543959.583124631
0.8618682499698288	5424423.652321515
0.8620837170323213	5415130.060281192
0.8622992379615795	6195528.875350692
0.8625148127710699	6258186.699507397
0.8627304414742627	5368550.5784034105
0.8629461240846313	7564358.788494033
0.8631618606156526	5659214.71505607
0.8633776510808066	5180070.019762535
0.8635934954935769	5537892.338421928
0.8638093938674504	5871038.317578618
0.8640253462159173	6328645.571714561
0.8642413525524714	5871216.355972672
0.8644574128906095	6722617.688226976
0.8646735272438323	6931460.183431146
0.8648896956256433	5512388.911806635
0.8651059180495498	7018119.387816782
0.8653221945290621	6553626.310314116
0.8655385250776946	8697220.415773932
0.8657549097089641	7396457.6801894605
0.8659713484363913	7336689.324102282
0.8661878412735006	7673182.797884293
0.866404388233819	7789981.817210527
0.8666209893308775	6962721.257677976
0.8668376445782103	9358831.656614821
0.8670543539893549	7909633.938253555
0.8672711175778525	7552760.26418529
0.8674879353572469	7735730.467195187
0.8677048073410862	8420611.671714062
0.8679217335429217	8913386.909370288
0.8681387139763074	8451173.82997202
0.8683557486548015	7113811.73958786
0.8685728375919655	6891608.849727504
0.8687899808013633	8688115.544780223
0.8690071782965637	9384309.964767842
0.869224430091138	9823840.701689364
0.8694417361986609	9015673.32400548
0.8696590966327107	7066323.262681133
0.869876511406869	7631436.7483743215
0.8700939805347206	8552220.937326245
0.8703115040298544	8778465.703156568
0.870529081905862	7764931.127844549
0.8707467141763385	8875328.10945549
0.8709644008548827	7653592.937972814
0.8711821419550964	7026957.489136729
0.8713999374905854	7142984.564638954
0.871617787474958	8613371.955141524
0.8718356919218269	8421458.257872913
0.8720536508448075	7000067.146139247
0.8722716642575187	8116602.57803199
0.8724897321735832	7458775.931898524
0.8727078546066265	9180405.889048843
0.8729260315702784	7672940.110631577
0.873144263078171	8531409.417402782
0.8733625491439405	9024238.380071303
0.8735808897812266	6850487.103794394
0.8737992850036719	8208332.462640878
0.874017734824923	8661719.04182393
0.8742362392586293	9077214.117484817
0.874454798318444	9431250.744873054
0.8746734120180236	9626331.981995985
0.8748920803710283	9987190.474283287
0.875110803391121	8679578.691228298
0.8753295810919689	8459245.35954554
0.875548413487242	10518822.791833289
0.8757673005906139	10018417.679482108
0.8759862424157616	10295674.553259034
0.8762052389763657	10500643.218626106
0.8764242902861098	9625778.34988989
0.8766433963586814	10217552.876677785
0.8768625572077712	8649935.265184203
0.8770817728470732	7883706.60753858
0.8773010432902849	10415107.394109776
0.8775203685511077	9814556.738482129
0.8777397486432454	11904165.502476694
0.8779591835804065	11445597.486354616
0.8781786733763015	9192931.81868242
0.8783982180446457	10043275.976947503
0.878617817599157	10908996.377287848
0.8788374720535569	8936545.827361422
0.8790571814215703	9723555.641623136
0.8792769457169257	9827583.22578364
0.879496764953355	10248953.744516023
0.8797166391445934	12942827.269959968
0.8799365683043796	12368873.668151684
0.8801565524464557	10292245.74795024
0.8803765915845676	9135948.182999076
0.8805966857324639	10515436.990430614
0.880816834903897	9304429.8737641
0.881037039112623	11157813.432491152
0.8812572983724012	11048053.583819626
0.8814776126969944	10506113.309845172
0.8816979821001687	11584448.792233674
0.8819184065956938	13288872.49997742
0.8821388861973429	11791683.651514458
0.8823594209188923	10254475.853287566
0.882580010774122	10452781.221894927
0.8828006557768155	10767161.481688075
0.8830213559407598	9645602.981371077
0.8832421112797452	13311530.825848075
0.8834629218075651	10468545.4482671
0.8836837875380171	10158177.331310939
0.8839047084849018	12157215.501850925
0.884125684662023	13831945.767482046
0.8843467160831886	13853186.420942847
0.8845678027622095	13184203.9010593
0.8847889447129001	9051410.948766038
0.8850101419490785	10716171.582510395
0.8852313944845657	11838258.126292467
0.885452702333187	15128968.566015005
0.8856740655087704	13045947.40030121
0.8858954840251476	10491829.323883595
0.8861169578961539	10970791.508388286
0.886338487135628	14969028.383107977
0.886560071757412	14290792.883911824
0.8867817117753515	13919269.674836414
0.8870034072032955	12186750.613810131
0.8872251580550963	9201889.158325214
0.8874469643446101	10477244.477376498
0.8876688260856963	11014273.600547988
0.8878907432922178	14257363.305876717
0.8881127159780409	15365006.580121031
0.8883347441570356	13914577.808904478
0.8885568278430749	9300215.664478002
0.8887789670500358	13222429.21256126
0.8890011617917983	14175074.501721675
0.8892234120822464	16258195.711014017
0.8894457179352669	15187805.882325549
0.8896680793647509	11429374.828771962
0.8898904963845921	9613388.070327025
0.8901129690086883	13378449.330740662
0.8903354972509405	16232063.195140114
0.8905580811252535	15809697.41846177
0.8907807206455347	14323494.567532511
0.8910034158256963	12918896.025451636
0.8912261666796527	10671781.951665461
0.8914489732213227	13745689.948745752
0.8916718354646282	15633018.977683276
0.8918947534234944	12312880.830684252
0.8921177271118502	10795395.028846469
0.8923407565436284	13587349.848650808
0.8925638417327644	9750137.778484238
0.8927869826931977	12831720.302039815
0.8930101794388711	12185030.409103574
0.8932334319837308	12543933.843950193
0.8934567403417267	12699067.348206285
0.8936801045268123	9759213.915768059
0.8939035245529441	6726162.906110408
0.8941270004340824	3089767.3787642056
0.894350532184191	645175.16680719
0.8945741198172371	3485249.498866321
0.8947977633471915	7201316.460484386
0.8950214627880284	10765713.127495762
0.8952452181537254	11751534.642170895
0.8954690294582639	9653720.494730795
0.8956928967156286	12528285.386428593
0.8959168199398075	15205884.802120969
0.8961407991447926	16919185.91923282
0.8963648343445789	16605530.920281861
0.896588925553165	12531659.817845257
0.8968130727845534	11893068.787583131
0.8970372760527496	13197116.669459667
0.8972615353717629	14991972.27058452
0.8974858507556059	14657537.035203153
0.8977102222182949	16007850.426846718
0.8979346497738496	18426236.088182412
0.8981591334362931	16479170.62428845
0.8983836732196523	12670133.749313867
0.8986082691379572	16739703.168934125
0.8988329212052417	17759584.743930873
0.8990576294355432	16088438.848459044
0.8992823938429022	16843681.736178275
0.8995072144413631	18394847.880138826
0.8997320912449734	16166968.682828348
0.8999570242677847	16253401.395675652
0.9001820135238516	13917256.500440089
0.9004070590272328	18260228.842482407
0.9006321607919896	19487167.38575699
0.9008573188321878	19595396.639616497
0.9010825331618959	17804754.15712912
0.9013078037951865	17017260.525989894
0.9015331307461353	17840157.4678972
0.9017585140288219	17376862.183333788
0.9019839536573292	20310090.875412352
0.9022094496457435	22088290.006767567
0.9024350020081551	20684116.062593218
0.9026606107586572	21635898.294142693
0.902886275911347	15622037.779212883
0.9031119974803249	16602859.074807247
0.9033377754796951	18973340.14892811
0.903563609923565	21458360.10931279
0.903789500826046	24434735.7492223
0.9040154482012526	24926787.4154198
0.904241452063303	21547797.07677195
0.9044675124263188	18892932.595757984
0.9046936293044254	20512808.592491973
0.9049198027117517	20494386.063658345
0.9051460326624297	23281540.844993826
0.9053723191705955	24478464.987696644
0.9055986622503881	21888615.69178069
0.9058250619159507	23146430.146849964
0.9060515181814298	19698656.880205113
0.9062780310609752	21369125.816841997
0.9065046005687405	22532458.037550926
0.906731226718883	22465240.134289756
0.9069579095255627	24948058.82930002
0.907184649002944	21609730.665547986
0.907411445165195	22670506.557368595
0.9076382980264862	22264417.17901321
0.907865207600993	22822136.818140205
0.9080921739028933	22323450.936917465
0.9083191969463691	19412222.798869405
0.9085462767456058	23933617.403829977
0.9087734133147922	25755920.293228015
0.9090006066681211	22994127.922214977
0.909227856819788	23825052.249116976
0.9094551637839932	23472016.270154286
0.9096825275749393	25124512.00467208
0.9099099482068329	23515534.205202445
0.9101374256938848	23685654.94892554
0.9103649600503083	24015165.37286492
0.9105925512903209	28614326.45437167
0.9108201994281437	20816541.253404357
0.9110479044780008	20968724.772092585
0.9112756664541204	25765670.983989727
0.911503485370734	25257048.853451364
0.9117313612420768	27874848.270616196
0.9119592940823873	22816638.367516324
0.912187283905908	27283541.3651072
0.9124153307268845	27497579.34560357
0.9126434345595664	27999301.4175877
0.9128715954182063	24513574.065421466
0.9130998133170609	21409000.080828834
0.9133280882703902	23511763.237129796
0.913556420292458	28062426.411274716
0.9137848093975312	25865199.940828312
0.9140132555998806	24642097.30062872
0.9142417589137806	27946160.53095539
0.9144703193535092	23639155.0678694
0.9146989369333476	29444553.108903836
