#wavelength	surface flux
0.8	746901.6642615364
0.8002000000000001	759318.467816894
0.8004000500000003	772630.8823944734
0.8006001500125003	785783.8007453579
0.8008003000500035	799341.721110863
0.8010005001250161	812368.9067763578
0.8012007502500472	827604.9077418431
0.8014010504376099	839228.8635396138
0.8016014007002193	852042.7318391197
0.8018018010503944	867356.8054288742
0.8020022515006572	879050.1880322072
0.8022027520635323	894012.7382447334
0.8024033027515483	909267.1832618845
0.8026039035772362	921817.0039517081
0.8028045545531306	936125.5003542333
0.8030052556917691	949646.937299442
0.803206007005692	965210.4992623182
0.8034068085074435	979184.6906431117
0.8036076602095705	997432.7287416562
0.8038085621246229	1013327.9672543468
0.8040095142651542	1028657.2371793356
0.8042105166437206	1038507.4444037564
0.8044115692728815	1056438.1373446053
0.8046126721651998	1070871.3712548735
0.8048138253332411	1089396.238877772
0.8050150287895745	1107781.1429585104
0.805216282546772	1121922.4189174569
0.8054175866174087	1132806.788831186
0.8056189410140631	1152073.2445567716
0.8058203457493168	1167246.4258113855
0.8060218008357541	1188112.0442271559
0.8062233062859632	1193893.6321610874
0.8064248621125346	1215707.973095355
0.806626468328063	1238231.077736004
0.8068281249451449	1253295.4012492197
0.8070298319763813	1266839.0334623915
0.8072315894343755	1279116.5128981215
0.8074333973317341	1303678.2702748983
0.8076352556810671	1324187.2219914983
0.8078371644949874	1339003.498076955
0.8080391237861113	1365240.187398189
0.8082411335670578	1374314.3948025135
0.8084431938504498	1388692.126616875
0.8086453046489125	1409284.877367609
0.8088474659750746	1423259.7536797752
0.8090496778415686	1439525.8472923497
0.809251940261029	1440697.9345352368
0.8094542532460944	1484805.375306011
0.8096566168094059	1505964.842653742
0.8098590309636085	1522989.4943639818
0.8100614957213493	1510527.2162240536
0.8102640110952797	1548483.099306465
0.8104665770980536	1562286.7733951856
0.8106691937423283	1590593.728426432
0.8108718610407639	1596790.4924093222
0.8110745790060241	1615389.3571068116
0.8112773476507757	1652182.5396183855
0.8114801669876885	1654379.640288884
0.8116830370294355	1669002.8750123058
0.8118859577886929	1732681.2089175482
0.8120889292781401	1730099.4356401956
0.8122919515104597	1729811.5162023029
0.8124950244983374	1726307.983193524
0.8126981482544621	1797228.0946249913
0.8129013227915257	1828631.0767497027
0.8131045481222237	1846107.7536853158
0.8133078242592543	1843311.2181868183
0.8135111512153191	1866366.3155832612
0.813714529003123	1877701.8731754317
0.8139179576353739	1924051.3561722152
0.8141214371247829	1939081.6681739714
0.8143249674840641	1920294.5961088673
0.814528548725935	1993677.8235132066
0.8147321808631167	2032825.9489415325
0.8149358639083326	2025344.854870234
0.8151395978743097	1995704.463440541
0.8153433827737784	2103112.5113316425
0.8155472186194719	2095406.0658227678
0.8157511054241268	2123998.973121487
0.815955043200483	2172998.985455165
0.8161590319612831	2205288.1490649604
0.8163630717192736	2143448.1128992
0.8165671624872033	2236207.6594177876
0.8167713042778252	2267601.9122257642
0.8169754971038948	2313520.160184496
0.8171797409781707	2253891.249917031
0.8173840359134155	2370754.9784943215
0.8175883819223938	2382694.6753827627
0.8177927790178745	2403458.9288998665
0.8179972272126291	2367029.467211349
0.8182017265194322	2202432.975900922
0.8184062769510622	2079618.2657973173
0.8186108785203001	2448245.495902881
0.8188155312399301	2468982.494208035
0.8190202351227402	2480553.483637896
0.819224990181521	2316267.90812251
0.8194297964290664	1753080.8337497334
0.8196346538781738	2124795.8242216837
0.8198395625416434	2543980.3821693626
0.8200445224322789	2635180.3284501657
0.820249533562887	2714719.957251385
0.8204545959462778	2754742.5322865495
0.8206597095952644	2790351.601368888
0.8208648745226633	2834406.0511141373
0.8210700907412941	2863332.552262282
0.8212753582639793	2898949.2797127855
0.8214806771035456	2932933.4801511625
0.8216860472728215	2963624.855623002
0.8218914687846397	2985046.3506480446
0.822096941651836	3023491.301538557
0.822302465887249	3063710.874254244
0.8225080415037209	3099553.5015374958
0.8227136685140968	3053809.6386038577
0.8229193469312254	2956218.39535812
0.8231250767679583	2977297.7718199766
0.8233308580371503	3141048.9489399577
0.8235366907516598	3160440.127110268
0.8237425749243477	3244870.8992645578
0.8239485105680789	3270722.5215687817
0.824154497695721	3322008.356695604
0.824360536320145	3321923.6678944654
0.8245666264542252	3284805.949331479
0.8247727681108388	3456405.428785452
0.8249789613028664	3487511.7100682086
0.8251852060431922	3527057.474834942
0.825391502344703	3583851.815200722
0.8255978502202894	3613651.697919663
0.8258042496828445	3626356.558871021
0.8260107007452654	3680841.8332635313
0.8262172034204517	3632221.6629975247
0.8264237577213068	3710371.308650903
0.8266303636607373	3770888.2349780845
0.8268370212516525	3829127.6123148836
0.8270437305069654	3863329.4624745487
0.8272504914395923	3889649.763480543
0.8274573040624523	3882160.345958624
0.8276641683884679	3945675.7177441944
0.8278710844305652	3971918.550403344
0.8280780522016729	4048865.3543221257
0.8282850717147234	4052785.216452155
0.8284921429826521	4119918.696166607
0.8286992660183978	4157560.731565237
0.8289064408349024	4146846.905061435
0.8291136674451112	4151514.4412317094
0.8293209458619727	4233661.752382615
0.8295282760984382	4211412.384892788
0.829735658167463	4142088.1915784776
0.8299430920820048	4345417.7654562155
0.8301505778550254	4415367.176204123
0.8303581154994891	4444833.834963122
0.8305657050283641	4505789.894927082
0.8307733464546212	4440596.382521368
0.8309810397912352	4581278.545148331
0.8311887850511829	4644506.427776084
0.8313965822474458	4593802.150848763
0.8316044313930077	4711569.534764365
0.8318123325008561	4750946.540148458
0.8320202855839813	4758005.758550131
0.8322282906553774	4830250.082826921
0.8324363477280413	4830566.82168521
0.8326444568149735	4954091.942992383
0.8328526179291771	5004210.878136983
0.8330608310836596	4983837.574924207
0.8332690962914304	4960030.990067114
0.8334774135655034	5040204.594014722
0.833685782918895	5085837.340311849
0.8338942043646247	5206432.493886366
0.834102677915716	5144722.718842628
0.834311203585195	5271789.427841262
0.8345197813860912	5340700.456707722
0.8347284113314379	5412047.771535478
0.8349370934342709	5456431.463720839
0.8351458277076294	5309393.3669987265
0.8353546141645565	5498870.040405776
0.8355634528180977	5414847.69785348
0.8357723436813022	5471571.842268616
0.8359812867672226	5404382.218554747
0.8361902820889144	5702107.416562272
0.8363993296594368	5430991.238530659
0.8366084294918518	5749217.66417942
0.8368175815992247	5759745.345311009
0.8370267859946247	5744504.843805894
0.8372360426911234	5939209.447223322
0.8374453517017962	6006141.4841376
0.8376547130397217	5891213.538498961
0.8378641267179816	5882610.248709335
0.8380735927496613	6118856.225875503
0.8382831111478488	6200137.063835691
0.8384926819256358	6256040.908569569
0.8387023050961173	6217781.9784970945
0.8389119806723914	6235079.987702642
0.8391217086675596	6436987.027149427
0.8393314890947265	6517443.895666281
0.8395413219670003	6523809.112703601
0.8397512072974922	6572094.553120778
0.8399611450993165	6529811.737206471
0.8401711353855914	6605815.965277139
0.8403811781694378	6722316.206653882
0.8405912734639802	6660537.884708867
0.8408014212823464	6683258.493214693
0.8410116216376671	6843818.075496628
0.8412218745430766	6949485.968312663
0.8414321800117124	7030943.207266327
0.8416425380567154	6984466.377176091
0.8418529486912297	7073183.821433848
0.8420634119284025	6908387.984852493
0.8422739277813847	7156487.604480914
0.8424844962633302	7220165.22239515
0.842695117387396	7373481.338381491
0.8429057911667428	7406482.264746322
0.8431165176145345	7337324.990926615
0.8433272967439382	7489054.758008209
0.8435381285681244	7469199.778261274
0.8437490131002665	7494972.198258059
0.8439599503535415	7670214.309475444
0.84417094034113	7620407.944482828
0.8443819830762154	7580731.439618631
0.8445930785719846	7768298.972025782
0.8448042268416277	7844300.259777517
0.8450154278983382	7893019.966421742
0.8452266817553128	7924358.069462319
0.8454379884257517	7946462.885529692
0.8456493479228583	7799532.27033546
0.845860760259839	8123603.016153202
0.846072225449904	8255421.106110988
0.8462837435062666	8273084.929286296
0.8464953144421433	8103104.661512826
0.8467069382707537	8243741.40310249
0.8469186150053215	8438543.06568846
0.847130344659073	8390636.846801007
0.8473421272452377	8500952.692235596
0.8475539627770492	8518399.733425498
0.8477658512677435	8588930.47310414
0.8479777927305605	8710136.674912408
0.8481897871787432	8755663.603182448
0.848401834625538	8825555.413640933
0.8486139350841944	8851744.717088247
0.8488260885679657	8841689.71703624
0.8490382950901076	8877339.280571418
0.8492505546638802	9003559.132044073
0.8494628673025462	8903953.675227314
0.8496752330193721	9085783.330258839
0.8498876518276269	9011302.51706695
0.8501001237405839	8894941.71231917
0.8503126487715191	8915469.34662269
0.850525226933712	8869680.22018467
0.8507378582404455	8688489.719319083
0.8509505427050057	8350447.141227921
0.8511632803406821	7972126.856668441
0.8513760711607672	7085582.872560947
0.8515889151785576	5711211.484898074
0.8518018124073523	3419116.20386148
0.8520147628604541	853754.8360008482
0.8522277665511693	1004837.0168285649
0.8524408234928071	3673028.4169494333
0.8526539336986805	5999269.950989605
0.8528670971821053	7491482.742404226
0.8530803139564007	8433125.900139287
0.8532935840348901	8999227.8007546
0.8535069074308987	9534343.228553748
0.8537202841577566	9839774.452697847
0.8539337142287962	10045278.677355919
0.8541471976573534	10194243.57438576
0.8543607344567677	10352152.351999559
0.8545743246403821	10584449.37480646
0.8547879682215422	10641321.696803063
0.8550016652135977	10802491.008069277
0.8552154156299011	10866222.114163231
0.8554292194838088	10967476.405704506
0.8556430767886797	11009533.848496707
0.855856987557877	11222331.964191142
0.8560709518047664	11336507.83876879
0.8562849695427177	11452876.276287455
0.8564990407851035	11469397.199344356
0.8567131655452999	11617626.835669972
0.8569273438366862	11753223.61596456
0.8571415756726455	11803686.331996256
0.8573558610665638	11724436.88177951
0.8575702000318304	11732652.17416092
0.8577845925818384	11951129.045516757
0.857999038729984	12142377.701628637
0.8582135384896665	12218590.149610953
0.858428091874289	12237510.60908826
0.8586426988972576	12352099.036339808
0.8588573595719821	12344960.439633222
0.8590720739118751	12398219.489048539
0.8592868419303532	12523651.67287883
0.8595016636408359	12616964.08179705
0.8597165390567462	12718005.642772084
0.8599314681915105	12711321.423194446
0.8601464510585584	12716323.963830993
0.860361487671323	12895709.59442597
0.8605765780432408	12947735.96077355
0.8607917221877518	12978311.083446182
0.8610069201182988	12813722.271734297
0.8612221718483286	11462802.63249676
0.8614374773912907	7672263.421193017
0.8616528367606385	9032635.249131791
0.8618682499698288	7487861.000356401
0.8620837170323213	7432007.686169477
0.8622992379615795	8579239.985453194
0.8625148127710699	8598795.086055076
0.8627304414742627	7288003.371966492
0.8629461240846313	10472891.839568485
0.8631618606156526	7697167.10796504
0.8633776510808066	7213174.192062675
0.8635934954935769	7642620.93211178
0.8638093938674504	8179126.660887235
0.8640253462159173	8761258.171868015
0.8642413525524714	8125379.194002186
0.8644574128906095	9376427.168057172
0.8646735272438323	9608546.032483121
0.8648896956256433	7586256.874396483
0.8651059180495498	10018734.56137474
0.8653221945290621	9028497.682295876
0.8655385250776946	12136669.037086504
0.8657549097089641	10290577.375118019
0.8659713484363913	10180205.654136129
0.8661878412735006	10651508.325829348
0.866404388233819	10869865.328526674
0.8666209893308775	9724437.046616998
0.8668376445782103	13066206.505843185
0.8670543539893549	10972020.879810408
0.8672711175778525	10593268.84254041
0.8674879353572469	10719986.724441452
0.8677048073410862	11785834.813494755
0.8679217335429217	12416161.545788173
0.8681387139763074	11898356.022159664
0.8683557486548015	10073231.837290486
0.8685728375919655	9596773.942089466
0.8687899808013633	12216703.794376075
0.8690071782965637	13073114.319136623
0.869224430091138	13732549.602452649
0.8694417361986609	12707440.953427158
0.8696590966327107	9816395.798252404
0.869876511406869	10644166.036601786
0.8700939805347206	11962456.663334485
0.8703115040298544	12359734.788970655
0.870529081905862	10911064.601304682
0.8707467141763385	12324005.779133359
0.8709644008548827	10614226.77710617
0.8711821419550964	10059125.218844932
0.8713999374905854	10242564.513005348
0.871617787474958	12398598.482050166
0.8718356919218269	11970622.030676156
0.8720536508448075	10071372.754744563
0.8722716642575187	11337389.733796962
0.8724897321735832	10483056.549566649
0.8727078546066265	12879868.827636417
0.8729260315702784	10872593.356739337
0.873144263078171	12173000.150905447
0.8733625491439405	12765373.213930631
0.8735808897812266	9793968.019168278
0.8737992850036719	11619315.372810395
0.874017734824923	12188329.325707274
0.8742362392586293	13179712.978489928
0.874454798318444	13375556.766721705
0.8746734120180236	13482486.206807025
0.8748920803710283	14090211.979893725
0.875110803391121	12421926.710199533
0.8753295810919689	11787809.268326925
0.875548413487242	14611496.307454646
0.8757673005906139	14087752.907198418
0.8759862424157616	14766931.156966208
0.8762052389763657	14923087.933912607
0.8764242902861098	13578324.294270694
0.8766433963586814	14660637.941914352
0.8768625572077712	12192834.992546069
0.8770817728470732	11184981.621983849
0.8773010432902849	14902014.207792863
0.8775203685511077	14008422.953811983
0.8777397486432454	17204355.410056874
0.8779591835804065	16379532.833865676
0.8781786733763015	13324223.271212768
0.8783982180446457	14401678.970411124
0.878617817599157	15411163.955947505
0.8788374720535569	12497662.7651645
0.8790571814215703	13884154.597419655
0.8792769457169257	14481496.257338807
0.879496764953355	14540766.7758873
0.8797166391445934	18363271.57293717
0.8799365683043796	17820635.549229886
0.8801565524464557	14790784.95172813
0.8803765915845676	13258750.547035713
0.8805966857324639	15090679.664744567
0.880816834903897	13319066.76792782
0.881037039112623	15933181.267603924
0.8812572983724012	15656783.930941878
0.8814776126969944	15084691.646309214
0.8816979821001687	16649331.398407029
0.8819184065956938	19312240.979175583
0.8821388861973429	17642919.095925394
0.8823594209188923	14843682.810470352
0.882580010774122	14975178.357366893
0.8828006557768155	15464299.253212648
0.8830213559407598	14300932.534517134
0.8832421112797452	19387475.47509684
0.8834629218075651	15226016.923896167
0.8836837875380171	14778447.972034449
0.8839047084849018	17660285.622154333
0.884125684662023	20125939.095847547
0.8843467160831886	20234458.29347182
0.8845678027622095	19319582.393416494
0.8847889447129001	13112635.513695912
0.8850101419490785	15348650.971048227
0.8852313944845657	16753564.842038741
0.885452702333187	21879857.26380465
0.8856740655087704	19508164.190610893
0.8858954840251476	15055551.021260357
0.8861169578961539	15555801.56210016
0.886338487135628	21645086.37089522
0.886560071757412	21043533.98826892
0.8867817117753515	20456421.802673966
0.8870034072032955	18234884.625250533
0.8872251580550963	13567087.251741001
0.8874469643446101	15456115.6188406
0.8876688260856963	16662776.879247546
0.8878907432922178	21173837.14651463
0.8881127159780409	22600009.783304922
0.8883347441570356	20635073.22579643
0.8885568278430749	13536847.387052836
0.8887789670500358	19204132.039250694
0.8890011617917983	20976297.97489593
0.8892234120822464	23496280.271188878
0.8894457179352669	21992831.545980364
0.8896680793647509	16890922.62514092
0.8898904963845921	14158102.968152523
0.8901129690086883	19374424.659004334
0.8903354972509405	23733302.153845914
0.8905580811252535	23221493.511852942
0.8907807206455347	21207861.433815923
0.8910034158256963	19395741.334138624
0.8912261666796527	15532409.87321854
0.8914489732213227	20875470.558337465
0.8916718354646282	23305859.749061827
0.8918947534234944	19167837.12410609
0.8921177271118502	16912092.662495095
0.8923407565436284	20187698.196287274
0.8925638417327644	14575899.814342786
0.8927869826931977	18980186.496949825
0.8930101794388711	18556314.976029053
0.8932334319837308	18518653.60172675
0.8934567403417267	18909296.384244148
0.8936801045268123	14857915.129330361
0.8939035245529441	9864870.939616889
0.8941270004340824	4500024.125076861
0.894350532184191	997275.4167942915
0.8945741198172371	5139383.666691464
0.8947977633471915	10685861.475324737
0.8950214627880284	15789951.721972926
0.8952452181537254	17229322.310768418
0.8954690294582639	14082093.480837813
0.8956928967156286	19284295.282173432
0.8959168199398075	23081592.15292946
0.8961407991447926	24982462.891782984
0.8963648343445789	24657226.527116332
0.896588925553165	19997243.068102032
0.8968130727845534	17496949.416879233
0.8970372760527496	19244880.648916107
0.8972615353717629	23022480.001431633
0.8974858507556059	22059268.154281694
0.8977102222182949	24130034.633733608
0.8979346497738496	27138427.667479318
0.8981591334362931	23842029.610562697
0.8983836732196523	18964643.672491595
0.8986082691379572	24442225.131868843
0.8988329212052417	27141818.874634277
0.8990576294355432	24954796.557602327
0.8992823938429022	26092843.51486693
0.8995072144413631	27520642.747083362
0.8997320912449734	23578868.865388907
0.8999570242677847	23353937.64411363
0.9001820135238516	20578775.907488033
0.9004070590272328	26946644.648992322
0.9006321607919896	29132169.079281684
0.9008573188321878	29754591.14849008
0.9010825331618959	27710717.735328328
0.9013078037951865	24299550.02274877
0.9015331307461353	25537603.561580952
0.9017585140288219	25304844.670052033
0.9019839536573292	30568710.469255235
0.9022094496457435	32060869.536171645
0.9024350020081551	30617841.106383324
0.9026606107586572	31178747.99457721
0.902886275911347	23012909.744393885
0.9031119974803249	23849550.732501343
0.9033377754796951	27292339.579710785
0.903563609923565	30731242.684894923
0.903789500826046	35269680.93899583
0.9040154482012526	35804686.65913932
0.904241452063303	30886508.219881356
0.9044675124263188	27095713.87214343
0.9046936293044254	29288104.104400504
0.9049198027117517	29398283.77564018
0.9051460326624297	33435379.94886786
0.9053723191705955	35112459.73279918
0.9055986622503881	31613420.20700661
0.9058250619159507	33182994.722524397
0.9060515181814298	27847114.873309273
0.9062780310609752	30616753.501434866
0.9065046005687405	31594308.105686884
0.906731226718883	31588785.614473134
0.9069579095255627	35184470.72174776
0.907184649002944	31853081.913366146
0.907411445165195	33159887.987004697
0.9076382980264862	31475816.365606256
0.907865207600993	32363671.108644184
0.9080921739028933	32750049.322191253
0.9083191969463691	28712454.176796146
0.9085462767456058	34072407.28346822
0.9087734133147922	37014566.99518543
0.9090006066681211	33759712.87894943
0.909227856819788	34168612.09278128
0.9094551637839932	33393316.906606603
0.9096825275749393	36083624.55937443
0.9099099482068329	33393488.60404163
0.9101374256938848	34214706.43014843
0.9103649600503083	34046716.568325154
0.9105925512903209	40790909.783305995
0.9108201994281437	32117526.19700262
0.9110479044780008	31542173.285501115
0.9112756664541204	36599058.088373154
0.911503485370734	35928517.7755292
0.9117313612420768	39332089.13605135
0.9119592940823873	33103138.656245645
0.912187283905908	39312897.26618782
0.9124153307268845	39985816.720362656
0.9126434345595664	40563002.98851148
0.9128715954182063	35316275.97980287
0.9130998133170609	32906877.665815774
0.9133280882703902	34213169.5415762
0.913556420292458	40137157.376099974
0.9137848093975312	37709422.87301355
0.9140132555998806	35436372.96078253
0.9142417589137806	39627843.09819819
