#wavelength	surface flux
0.8	48492.09431525634
0.8002000000000001	49291.78622539097
0.8004000500000003	50114.43278220411
0.8006001500125003	50886.561681262996
0.8008003000500035	51703.153856182114
0.8010005001250161	52462.334022039475
0.8012007502500472	53415.75224504071
0.8014010504376099	54201.435974556036
0.8016014007002193	54951.22596700572
0.8018018010503944	55877.44558463607
0.8020022515006572	56624.52152273348
0.8022027520635323	57583.86208595469
0.8024033027515483	58472.66549787699
0.8026039035772362	59249.62691227639
0.8028045545531306	60324.047306163586
0.8030052556917691	61077.03855205716
0.803206007005692	62099.13694288786
0.8034068085074435	62921.24272083803
0.8036076602095705	64000.02848873156
0.8038085621246229	65000.204076628266
0.8040095142651542	66040.15888921874
0.8042105166437206	66782.54430721473
0.8044115692728815	67816.85658597383
0.8046126721651998	68766.96363168878
0.8048138253332411	69967.95005158415
0.8050150287895745	71131.22864470702
0.805216282546772	72095.44069530888
0.8054175866174087	72869.9596897881
0.8056189410140631	74071.08229476072
0.8058203457493168	75061.72251067575
0.8060218008357541	76336.18145620084
0.8062233062859632	76884.60216450611
0.8064248621125346	78374.26136197834
0.806626468328063	79585.01049855843
0.8068281249451449	80536.33108039237
0.8070298319763813	81565.99942890852
0.8072315894343755	82576.08095888155
0.8074333973317341	84029.8123592043
0.8076352556810671	85300.42405207227
0.8078371644949874	86382.52931408447
0.8080391237861113	87855.29521168464
0.8082411335670578	88473.6796204556
0.8084431938504498	89716.88597536682
0.8086453046489125	90929.05417721032
0.8088474659750746	91885.24922105238
0.8090496778415686	93205.15152325308
0.809251940261029	93351.24510870209
0.8094542532460944	96030.76788395258
0.8096566168094059	97157.06190271568
0.8098590309636085	98405.70788162618
0.8100614957213493	98194.3926331618
0.8102640110952797	100282.85343218957
0.8104665770980536	101488.14965837753
0.8106691937423283	103197.42347735702
0.8108718610407639	104033.96155744954
0.8110745790060241	104692.20528085575
0.8112773476507757	106498.9802289277
0.8114801669876885	107666.96136238781
0.8116830370294355	108434.23892965223
0.8118859577886929	112728.61888144705
0.8120889292781401	112602.64526913664
0.8122919515104597	112706.85209702689
0.8124950244983374	113218.27253382464
0.8126981482544621	117020.56045672392
0.8129013227915257	118577.72746764676
0.8131045481222237	119768.61012384392
0.8133078242592543	119086.59196374356
0.8135111512153191	120658.47060108515
0.813714529003123	121293.85566457683
0.8139179576353739	124947.30364800995
0.8141214371247829	126534.86708969068
0.8143249674840641	125263.32313663959
0.814528548725935	130000.7636526082
0.8147321808631167	132875.3515435278
0.8149358639083326	132957.36812064383
0.8151395978743097	130908.69690408085
0.8153433827737784	138208.41246617303
0.8155472186194719	137286.20026827214
0.8157511054241268	139002.82152187795
0.815955043200483	142709.73161824993
0.8161590319612831	145393.91059632282
0.8163630717192736	140859.67558543314
0.8165671624872033	146360.74769179692
0.8167713042778252	149382.94337307158
0.8169754971038948	153204.76522916777
0.8171797409781707	148398.90372778705
0.8173840359134155	157334.16221185817
0.8175883819223938	159665.32708278348
0.8177927790178745	160235.5547883349
0.8179972272126291	158562.47465577675
0.8182017265194322	163222.6327135679
0.8184062769510622	161888.24789659027
0.8186108785203001	168527.24910370208
0.8188155312399301	168518.93151366746
0.8190202351227402	171036.3459594662
0.819224990181521	170254.03222110705
0.8194297964290664	168973.8478050349
0.8196346538781738	173488.18407979523
0.8198395625416434	180047.70849755
0.8200445224322789	180055.41401241967
0.820249533562887	184186.3109041996
0.8204545959462778	187521.61236995336
0.8206597095952644	189556.61020264644
0.8208648745226633	191559.43302257816
0.8210700907412941	193569.15152956394
0.8212753582639793	195873.9434059828
0.8214806771035456	198562.3418546369
0.8216860472728215	200847.70749331842
0.8218914687846397	202427.93016626427
0.822096941651836	204683.28754778064
0.822302465887249	206830.51799784022
0.8225080415037209	208957.64285630212
0.8227136685140968	205670.6890502352
0.8229193469312254	196998.8342633463
0.8231250767679583	195663.33000166964
0.8233308580371503	207641.4522270925
0.8235366907516598	213942.4128880055
0.8237425749243477	219177.91495905677
0.8239485105680789	221190.24550049767
0.824154497695721	226161.5319180431
0.824360536320145	226874.88153613068
0.8245666264542252	225157.17397432006
0.8247727681108388	236224.29553414386
0.8249789613028664	237894.51201415266
0.8251852060431922	240146.95851491022
0.825391502344703	243242.82689270598
0.8255978502202894	245604.3708269309
0.8258042496828445	245271.28973985356
0.8260107007452654	249848.4446812257
0.8262172034204517	248345.8603392636
0.8264237577213068	253136.55699786247
0.8266303636607373	255511.48823374687
0.8268370212516525	260647.9947544833
0.8270437305069654	262942.0122045978
0.8272504914395923	264929.8014170952
0.8274573040624523	264808.32231962413
0.8276641683884679	266326.0556336122
0.8278710844305652	269552.52076420485
0.8280780522016729	274806.53620971803
0.8282850717147234	275237.17548026406
0.8284921429826521	278507.25543316134
0.8286992660183978	283329.94965262356
0.8289064408349024	281753.38816188433
0.8291136674451112	281994.19106111943
0.8293209458619727	289427.4053801729
0.8295282760984382	287952.9432241055
0.829735658167463	283515.96907857805
0.8299430920820048	297255.6881753624
0.8301505778550254	300250.1232484858
0.8303581154994891	302241.643023205
0.8305657050283641	305633.031894703
0.8307733464546212	301069.95113500353
0.8309810397912352	312884.00544929825
0.8311887850511829	316967.16213100625
0.8313965822474458	313117.35338807077
0.8316044313930077	320911.4949983804
0.8318123325008561	321763.89594663883
0.8320202855839813	321538.8995016187
0.8322282906553774	326367.0223944665
0.8324363477280413	323996.53081909026
0.8326444568149735	337952.523470169
0.8328526179291771	341334.19662151625
0.8330608310836596	339434.1094760327
0.8332690962914304	337793.2891483464
0.8334774135655034	342483.34339778876
0.833685782918895	346343.5320737789
0.8338942043646247	354233.75574308936
0.834102677915716	346259.2797766068
0.834311203585195	358577.0667887048
0.8345197813860912	363366.4018256416
0.8347284113314379	368918.54615581094
0.8349370934342709	370867.6562388266
0.8351458277076294	363821.3572042898
0.8353546141645565	375295.7721604625
0.8355634528180977	369096.06221229053
0.8357723436813022	374454.58353227045
0.8359812867672226	370323.57857490267
0.8361902820889144	388647.23385843384
0.8363993296594368	373703.09868157166
0.8366084294918518	391700.8269915334
0.8368175815992247	393617.253856625
0.8370267859946247	392834.2481958357
0.8372360426911234	402772.773979078
0.8374453517017962	407551.8218079035
0.8376547130397217	401600.2520140476
0.8378641267179816	401431.10537328676
0.8380735927496613	416490.08736318286
0.8382831111478488	422285.26269035746
0.8384926819256358	425120.43746065436
0.8387023050961173	421761.83649853116
0.8389119806723914	423262.39659041574
0.8391217086675596	437361.3318430508
0.8393314890947265	442955.0006379125
0.8395413219670003	442256.06804809964
0.8397512072974922	444733.2408551599
0.8399611450993165	440240.3230386129
0.8401711353855914	448014.49924110086
0.8403811781694378	455592.1684007488
0.8405912734639802	452486.1304872767
0.8408014212823464	452393.5019100405
0.8410116216376671	462734.57877415913
0.8412218745430766	471335.08731847216
0.8414321800117124	476454.9460712662
0.8416425380567154	472821.3872278468
0.8418529486912297	478669.5796836813
0.8420634119284025	468245.6557612885
0.8422739277813847	485975.6181088
0.8424844962633302	492070.94879767543
0.842695117387396	499366.00872369227
0.8429057911667428	500839.9375313816
0.8431165176145345	496979.7610380044
0.8433272967439382	506954.631335313
0.8435381285681244	506750.01162447786
0.8437490131002665	510152.04390535236
0.8439599503535415	519449.1268708725
0.84417094034113	517081.7947357144
0.8443819830762154	514394.4499056623
0.8445930785719846	528322.7504896962
0.8448042268416277	533809.7069932964
0.8450154278983382	535252.3687041475
0.8452266817553128	539801.8251240016
0.8454379884257517	542755.0887780272
0.8456493479228583	539088.1439980844
0.845860760259839	556793.7667930681
0.846072225449904	564559.3472179079
0.8462837435062666	564949.4641092685
0.8464953144421433	558042.944648496
0.8467069382707537	568358.0972254346
0.8469186150053215	579001.055893708
0.847130344659073	578434.1387013658
0.8473421272452377	585640.7613313631
0.8475539627770492	588124.64000057
0.8477658512677435	592685.6439222808
0.8479777927305605	600332.0015902026
0.8481897871787432	604418.0878155554
0.848401834625538	609507.2063177417
0.8486139350841944	611917.420533434
0.8488260885679657	611417.1239176005
0.8490382950901076	615283.8553121559
0.8492505546638802	624683.3658559758
0.8494628673025462	623509.1003196677
0.8496752330193721	632764.0141288574
0.8498876518276269	629781.3923812143
0.8501001237405839	626980.6906816353
0.8503126487715191	630543.0449490703
0.850525226933712	630549.086015792
0.8507378582404455	625555.4917581857
0.8509505427050057	612342.7679663671
0.8511632803406821	595079.2910409018
0.8513760711607672	552707.0676965057
0.8515889151785576	478716.89434342744
0.8518018124073523	329433.49522840104
0.8520147628604541	117426.04192721362
0.8522277665511693	131998.83651412852
0.8524408234928071	350898.6481700756
0.8526539336986805	502217.48894154426
0.8528670971821053	585285.3949225291
0.8530803139564007	633937.7410831836
0.8532935840348901	663181.0124502378
0.8535069074308987	688858.74768838
0.8537202841577566	704536.2252205709
0.8539337142287962	713797.652401246
0.8541471976573534	723372.4758756331
0.8543607344567677	737982.3939491737
0.8545743246403821	747626.0965706053
0.8547879682215422	752738.6994941876
0.8550016652135977	760334.2050915607
0.8552154156299011	765450.2490703876
0.8554292194838088	771025.0218417622
0.8556430767886797	777087.6865436687
0.855856987557877	787610.338857533
0.8560709518047664	795906.1856734599
0.8562849695427177	801802.7768842458
0.8564990407851035	802670.143813654
0.8567131655452999	812612.0862222225
0.8569273438366862	821480.4650496396
0.8571415756726455	826579.3101851346
0.8573558610665638	830906.2059289058
0.8575702000318304	831495.9835979401
0.8577845925818384	841480.2834664881
0.857999038729984	851386.3585575998
0.8582135384896665	856270.0817516459
0.858428091874289	859706.8291826951
0.8586426988972576	867289.3676873889
0.8588573595719821	871548.7084420982
0.8590720739118751	878255.5104558603
0.8592868419303532	884324.0047466995
0.8595016636408359	892488.192784837
0.8597165390567462	898711.1733874596
0.8599314681915105	901154.0339290209
0.8601464510585584	906128.4506134925
0.860361487671323	913780.3385416443
0.8605765780432408	919559.2003787702
0.8607917221877518	924082.2229259157
0.8610069201182988	932023.6050291347
0.8612221718483286	921664.3845199919
0.8614374773912907	879357.0626037547
0.8616528367606385	903065.8497519853
0.8618682499698288	886753.5492255491
0.8620837170323213	884338.1962456239
0.8622992379615795	910767.2860164576
0.8625148127710699	906078.80247903
0.8627304414742627	898567.8493494672
0.8629461240846313	950522.362249192
0.8631618606156526	915803.5662634439
0.8633776510808066	918219.3862823942
0.8635934954935769	930872.354618801
0.8638093938674504	944737.5223365919
0.8640253462159173	953069.6854464646
0.8642413525524714	946648.6484744411
0.8644574128906095	974772.665836025
0.8646735272438323	981373.463498777
0.8648896956256433	957923.7667568813
0.8651059180495498	1000722.2878253456
0.8653221945290621	986947.6708645427
0.8655385250776946	1039222.1632129033
0.8657549097089641	1019919.4506978024
0.8659713484363913	1026153.5993654437
0.8661878412735006	1041432.1373438606
0.866404388233819	1049183.3831057828
0.8666209893308775	1037995.7496512086
0.8668376445782103	1083258.9381734128
0.8670543539893549	1059540.9142854726
0.8672711175778525	1069542.459296129
0.8674879353572469	1071374.874585166
0.8677048073410862	1095839.6959703632
0.8679217335429217	1109192.0348024473
0.8681387139763074	1104836.0543743225
0.8683557486548015	1089368.882753186
0.8685728375919655	1088659.7716103008
0.8687899808013633	1132150.4769889258
0.8690071782965637	1146120.1508112776
0.869224430091138	1161118.3213070354
0.8694417361986609	1155293.338998794
0.8696590966327107	1112537.163852188
0.869876511406869	1136632.8894662678
0.8700939805347206	1156808.9931497907
0.8703115040298544	1168907.529166745
0.870529081905862	1155620.115356718
0.8707467141763385	1172068.9892645993
0.8709644008548827	1153114.415775827
0.8711821419550964	1158032.770720725
0.8713999374905854	1167775.0523399515
0.871617787474958	1208059.2172726283
0.8718356919218269	1206200.7658147991
0.8720536508448075	1185389.9196982034
0.8722716642575187	1195550.4462864788
0.8724897321735832	1195581.4154210116
0.8727078546066265	1234411.5840027123
0.8729260315702784	1215973.6943974232
0.873144263078171	1236066.271532027
0.8733625491439405	1250737.9411993716
0.8735808897812266	1215988.02665065
0.8737992850036719	1243226.4201721016
0.874017734824923	1247237.5111838179
0.8742362392586293	1282036.149456273
0.874454798318444	1284117.1715857575
0.8746734120180236	1291964.0706053718
0.8748920803710283	1304606.4255751043
0.875110803391121	1285364.9369429876
0.8753295810919689	1271000.0450465702
0.875548413487242	1318792.7761523805
0.8757673005906139	1317595.0637463941
0.8759862424157616	1339260.798251828
0.8762052389763657	1341353.1798571106
0.8764242902861098	1327535.66437488
0.8766433963586814	1360055.1101664605
0.8768625572077712	1323177.703230938
0.8770817728470732	1308646.5909480352
0.8773010432902849	1364922.1779842826
0.8775203685511077	1358202.3063132477
0.8777397486432454	1411429.7806789204
0.8779591835804065	1394632.2979233044
0.8781786733763015	1354641.5812174443
0.8783982180446457	1386247.8241294785
0.878617817599157	1404755.5191384254
0.8788374720535569	1363102.6823996373
0.8790571814215703	1397357.3491134574
0.8792769457169257	1420922.0736196924
0.879496764953355	1412516.0906215287
0.8797166391445934	1457912.9312594407
0.8799365683043796	1458577.5054050423
0.8801565524464557	1421405.322418881
0.8803765915845676	1408582.8412142831
0.8805966857324639	1437253.1101744713
0.880816834903897	1392798.909242583
0.881037039112623	1433268.3454383519
0.8812572983724012	1434937.831211602
0.8814776126969944	1427776.905732025
0.8816979821001687	1438471.8303366497
0.8819184065956938	1457384.4690943474
0.8821388861973429	1429241.7948336296
0.8823594209188923	1387388.192203947
0.882580010774122	1389023.989249082
0.8828006557768155	1394364.516064177
0.8830213559407598	1376545.7124850757
0.8832421112797452	1427278.4058966627
0.8834629218075651	1385903.0822359857
0.8836837875380171	1385420.1308241442
0.8839047084849018	1426384.5322443158
0.884125684662023	1469197.8725199625
0.8843467160831886	1490501.0863041414
0.8845678027622095	1500592.2822578622
0.8847889447129001	1430584.371895282
0.8850101419490785	1461989.289301948
0.8852313944845657	1469523.2373431637
0.885452702333187	1527378.9782034853
0.8856740655087704	1514988.5560577416
0.8858954840251476	1459778.032983352
0.8861169578961539	1452322.0496714886
0.886338487135628	1515506.4634607309
0.886560071757412	1506800.4864569628
0.8867817117753515	1473314.662882184
0.8870034072032955	1430363.1031829936
0.8872251580550963	1354890.9140287964
0.8874469643446101	1381433.4970887403
0.8876688260856963	1413192.209444048
0.8878907432922178	1475723.9253078238
0.8881127159780409	1502597.5244917031
0.8883347441570356	1503023.586690905
0.8885568278430749	1426711.351316754
0.8887789670500358	1525754.8237037053
0.8890011617917983	1545152.11771973
0.8892234120822464	1597739.135771183
0.8894457179352669	1596346.1621640124
0.8896680793647509	1544556.3821180528
0.8898904963845921	1486637.134534294
0.8901129690086883	1560583.4810565573
0.8903354972509405	1602064.9016055737
0.8905580811252535	1605188.7292680896
0.8907807206455347	1577881.3207207662
0.8910034158256963	1535034.5411360015
0.8912261666796527	1475859.3885612162
0.8914489732213227	1548486.0478974816
0.8916718354646282	1569288.8544595314
0.8918947534234944	1521873.2735197379
0.8921177271118502	1481612.042834601
0.8923407565436284	1524968.3549612106
0.8925638417327644	1419387.8610670916
0.8927869826931977	1479422.856162456
0.8930101794388711	1439845.8608347257
0.8932334319837308	1391620.1137873481
0.8934567403417267	1372222.7411832518
0.8936801045268123	1164779.260881386
0.8939035245529441	986285.4339602911
0.8941270004340824	562832.0977698384
0.894350532184191	185901.66426640627
0.8945741198172371	584770.4641376666
0.8947977633471915	997048.0872164945
0.8950214627880284	1230402.4729446422
0.8952452181537254	1395835.9803103113
0.8954690294582639	1383941.8205181237
0.8956928967156286	1407581.1409227452
0.8959168199398075	1586790.2297745603
0.8961407991447926	1673848.4858147108
0.8963648343445789	1640279.0337190812
0.896588925553165	1517650.3207831392
0.8968130727845534	1581605.337063031
0.8970372760527496	1714504.424452936
0.8972615353717629	1683351.631265769
0.8974858507556059	1633655.0506546681
0.8977102222182949	1783571.1308333287
0.8979346497738496	1888728.8680432036
0.8981591334362931	1836939.6010815608
0.8983836732196523	1716725.9923666802
0.8986082691379572	1883492.717505719
0.8988329212052417	1804605.295228553
0.8990576294355432	1706489.9846414614
0.8992823938429022	1728844.7007697376
0.8995072144413631	1838478.3615818007
0.8997320912449734	1967514.977022199
0.8999570242677847	1977057.1750773308
0.9001820135238516	1832115.3967508299
0.9004070590272328	1973644.9828562082
0.9006321607919896	2025025.0642459611
0.9008573188321878	2009818.3378723152
0.9010825331618959	1953288.6925609952
0.9013078037951865	2049370.5019416907
0.9015331307461353	2082184.1018326748
0.9017585140288219	2060110.828356568
0.9019839536573292	2058619.4726884707
0.9022094496457435	2234324.063339915
0.9024350020081551	2152845.8428576314
0.9026606107586572	2185785.712571716
0.902886275911347	2103999.030100715
0.9031119974803249	2185489.1244672723
0.9033377754796951	2221293.862172358
0.903563609923565	2290281.4973620703
0.903789500826046	2342549.25996306
0.9040154482012526	2370991.2651359057
0.904241452063303	2306373.6855259715
0.9044675124263188	2273529.4604335967
0.9046936293044254	2335892.642597173
0.9049198027117517	2334032.2281361055
0.9051460326624297	2399698.4377384423
0.9053723191705955	2419938.1250261967
0.9055986622503881	2392027.4959383705
0.9058250619159507	2446233.943716903
0.9060515181814298	2408663.045996794
0.9062780310609752	2412821.1195879993
0.9065046005687405	2402899.790617955
0.906731226718883	2442219.179678071
0.9069579095255627	2505466.6546742166
0.907184649002944	2379183.40016836
0.907411445165195	2373191.588441195
0.9076382980264862	2444421.80756138
0.907865207600993	2526819.1514361147
0.9080921739028933	2457260.0755531252
0.9083191969463691	2376144.992430602
0.9085462767456058	2582653.72689089
0.9087734133147922	2524489.45410418
0.9090006066681211	2403788.7302783015
0.909227856819788	2561283.8864253396
0.9094551637839932	2564867.3246915042
0.9096825275749393	2567372.142339825
0.9099099482068329	2590861.97432449
0.9101374256938848	2552416.627107375
0.9103649600503083	2580665.879658646
0.9105925512903209	2664927.323025422
0.9108201994281437	2266734.9939539046
0.9110479044780008	2387644.74491283
0.9112756664541204	2671457.919908534
0.911503485370734	2694270.0376055758
0.9117313612420768	2708295.2561460626
0.9119592940823873	2604454.4662077865
0.912187283905908	2620014.9601413654
0.9124153307268845	2752854.116136368
0.9126434345595664	2766192.4674570733
0.9128715954182063	2648167.624378501
0.9130998133170609	2280081.7911425806
0.9133280882703902	2470152.7975835237
0.913556420292458	2692708.493802123
0.9137848093975312	2522606.4739200473
0.9140132555998806	2593604.137424663
0.9142417589137806	2797246.819150042
0.9144703193535092	2686212.2887918376
