#wavelength	surface flux
0.676892	174512.01893119488
0.678297	183836.365716292
0.679702	192636.99156368256
0.681109	201005.02955050353
0.682517	208842.57091257905
0.683926	216261.82920065385
0.685337	223099.56182052902
0.686749	229250.340108933
0.688164	234621.30150681647
0.689581	237138.8630107652
0.691	237253.1070754514
0.692422	238027.8034380404
0.693847	239432.27636639893
0.695274	241595.7588429295
0.696705	242174.69076687
0.698139	241518.28050866537
0.699576	239375.10395677073
0.701017	236526.1591222503
0.702461	232537.3124508161
0.70391	229121.14303794355
0.705362	225258.29427150564
0.706819	219839.17565170364
0.70828	213684.92270772086
0.709745	206419.5669602658
0.711216	198806.03294924228
0.71269	190661.13163239672
0.71417	182316.53367725704
0.715655	171940.64336867107
0.717145	160599.29589677058
0.71864	151322.15241438214
0.72014	143202.4904157978
0.721647	134478.04859975257
0.723158	126102.55740145947
0.724676	115960.3146693877
0.726199	105970.15173892076
0.727728	96185.75305753059
0.729264	88879.68399204178
0.730805	80446.71286672009
0.732353	74061.46227342087
0.733907	66853.20063685635
0.735468	59362.66342210684
0.737035	53669.865381227326
0.738609	47647.95581660763
0.74019	42182.921209804816
0.741777	37063.51160638501
0.743372	32419.878035868976
0.744973	28123.37454094261
0.746582	24202.201630470423
0.748197	20710.077140201047
0.74982	17676.7215867909
0.751451	14990.298801967507
0.753088	12665.218237364286
0.754734	10676.860050044728
0.756386	8990.248934538042
0.758047	7552.89203940162
0.759715	6301.550503920805
0.76139	5149.65267914063
0.763074	3968.8127319170185
0.764765	2397.1911091774587
0.766464	838.7404952956289
0.768172	1740.9443336097263
0.769887	1224.699670722706
0.77161	3390.8064748003812
0.773341	5607.355148978349
0.775081	7527.4130800358735
0.776829	9619.761151410981
0.778585	11132.716797687599
0.780349	11450.757255990366
0.782121	18432.367185171115
0.783902	23462.600641374796
0.785691	29041.74140463401
0.787489	35711.621782413444
0.789295	43507.34415088383
0.79111	52252.15333672752
0.792933	56366.38672002704
0.794764	40136.52618759766
0.796604	80147.04882959748
0.798453	104308.2490657369
0.80031	123665.4468509981
0.802176	144738.41247411186
0.804051	168604.72136889992
0.805934	194422.17729034604
0.807826	223102.74740663622
0.809727	253974.50468944683
0.811636	286510.164617114
0.813554	319201.4567956051
0.81548	364717.01853554475
0.817416	410767.2747886412
0.81936	449004.8230212017
0.821313	515989.7028483282
0.823274	568086.078666842
0.825244	628062.2304924933
0.827223	696007.4133874285
0.829211	757117.9542266162
0.831208	819257.9629522836
0.833213	902154.3973271671
0.835227	975074.4213898346
0.837249	1046025.1350269148
0.83928	1141760.2918970147
0.841321	1230881.146383341
0.843369	1322790.5544602224
0.845427	1412465.1307579256
0.847493	1527996.894189815
0.849567	1587135.0186720972
0.851651	1138899.4115749805
0.853742	1676332.6405630829
0.855843	2002142.4038301024
0.857952	2153929.473434454
0.86007	2269619.8994030356
0.862196	2125346.7523403214
0.864331	2307265.3399082487
0.866474	2506370.857866268
0.868626	2663536.7827028553
0.870786	2729993.094752931
0.872955	2856044.1211277964
0.875132	2919155.1925785257
0.877317	3313030.9687784933
0.879511	3478055.962117926
0.881713	3442163.1493327906
0.883923	3568805.9997996893
0.886142	3669778.806066808
0.888369	3611336.5083208247
0.890604	3904878.3252029666
0.892847	3337189.791841093
0.895099	2916467.5904734544
0.897358	4247756.08788186
0.899626	4740779.546280966
0.901901	5257337.304893186
0.904185	5721279.540786417
0.906476	5884624.192836417
0.908776	5747257.949000379
0.911083	6156419.931960626
0.913398	6201640.913726905
0.915721	6622811.115954566
0.918051	6694044.800990204
0.92039	7224702.276981064
0.922736	7363840.430538092
0.925089	7019079.75496832
0.927451	5697341.989193903
0.929819	4559823.573193309
0.932195	4109325.412473592
0.934579	4476123.619505054
0.93697	6774610.777851035
0.939369	7471254.351940298
0.941774	7519238.02917843
0.944187	6437039.806497689
0.946607	7530625.302816822
0.949035	7610074.617013599
0.951469	6654681.696402076
0.953911	7109947.788234737
0.956359	6321705.093483992
0.958814	8060213.146485018
0.961277	6461493.910743072
0.963746	6556337.514471683
0.966222	8260404.070654233
0.968705	9243897.709638638
0.971194	9827008.859868795
0.97369	9258524.748192236
0.976193	10678466.571027495
0.978702	10745242.741744118
0.981217	11031058.820955135
0.983739	10691141.42944217
0.986268	11770351.78193838
0.988802	12103220.116887523
0.991343	12140602.368229477
0.99389	12879020.872681191
0.996444	13040550.6497286
0.999003	11935957.330415301
1.00157	12350237.3605215
1.00414	13279293.286204623
1.00672	13723134.405190837
1.0093	14175803.351353498
1.01189	14640299.716714462
1.01448	15371774.410863977
1.01708	15725212.54039879
1.01969	16375105.62346303
1.0223	16736943.46179698
1.02492	17012221.786773704
1.02754	17062828.798164837
1.03017	17626177.56322437
1.0328	17938792.453580264
1.03544	18329833.62092978
1.03808	19267066.37696845
1.04073	19432496.280900076
1.04339	19819771.399038885
1.04604	20051867.04933089
1.04871	20383132.523601368
1.05138	20840167.50173828
1.05405	21484678.623355873
1.05673	21598107.33714092
1.05941	22131674.978462514
1.0621	22239434.43591133
1.06479	22623614.240858078
1.06749	22889557.691084575
1.07019	23244176.317921557
1.07289	23223491.13088644
1.0756	23479310.726050943
1.07832	23560138.48768956
1.08104	23761054.633415222
1.08376	24105162.214660395
1.08649	23220879.523997992
1.08922	22043484.126195285
1.09195	20980500.10575317
1.09469	19506691.283410262
1.09743	17436888.045719862
1.10018	15598300.09352036
1.10293	13318285.971892064
1.10568	10642054.939570453
1.10844	11342593.668117268
1.1112	9445002.075241126
1.11396	7914706.02149088
1.11673	7127151.589381442
1.1195	9275350.167924052
1.12228	7957408.719346478
1.12505	9485350.828960173
1.12783	10957285.10089435
1.13062	10198111.058772929
1.13341	5023196.22604396
1.1362	6870545.851465501
1.13899	10918488.183065813
1.14178	12508945.771614313
1.14458	9592745.191416193
1.14738	9616196.94279627
1.15019	13291211.500407541
1.153	10844376.027602997
1.1558	9683864.954056518
1.15862	12169750.28241914
1.16143	8983606.37705074
1.16425	8501755.029277267
1.16707	8972772.04823382
1.16989	10847017.11298273
1.17271	13558148.993426679
1.17554	12314195.142725242
1.17837	11146360.129356895
1.1812	17073045.548788153
1.18403	17314308.564301185
1.18686	17612847.051223595
1.1897	19267513.14982491
1.19253	20376121.892855603
1.19537	21787922.289035045
1.19822	22742812.59545877
1.20106	23712637.648707356
1.2039	24385469.609987486
1.20675	25881024.439599555
1.2096	26582485.074276585
1.21245	26974397.81299694
1.2153	28035992.57914391
1.21815	28431481.16292272
1.221	29358095.72244904
1.22385	30060701.99773916
1.22671	30723568.728145286
1.22957	31690817.921829797
1.23242	31877337.945282787
1.23528	31823971.80793099
1.23814	31875392.92862854
1.241	30756315.13178127
1.24387	28952933.713688087
1.24673	31753117.973675843
1.24959	29787398.366125844
1.25245	25442297.469596136
1.25532	31298199.497119185
1.25818	33699849.96454693
1.26105	34743979.87415979
1.26392	34300151.155052476
1.26678	35021834.4418225
1.26965	34719892.79516193
1.27252	35614601.84925931
1.27538	35961798.75913484
1.27825	35885900.622403145
1.28112	35489723.508086875
1.28399	32504875.204665568
1.28686	32979655.44726375
1.28973	32927123.10223625
1.2926	32308669.104263436
1.29546	29934677.124539394
1.29833	28866583.162651964
1.3012	30758286.39404656
1.30407	31317947.71822589
1.30694	28810796.799405012
1.30981	30326574.433246363
1.31267	29414227.90925764
1.31554	26997605.92120195
1.31841	25582236.121810522
1.32128	27989398.51994874
1.32414	23037417.233930964
1.32701	18799789.336171165
1.32987	14550121.159593087
1.33274	9487088.369286818
1.3356	7709796.023395206
1.33847	2496291.476579738
1.34133	1856292.2136783707
1.34419	2270677.1671831487
1.34705	1856821.218353986
1.34991	2056268.8257978251
1.35277	2325863.6248347964
1.35563	953521.4690465118
1.35849	975119.4440943708
1.36135	1307574.4126030284
1.3642	2225683.058146885
1.36706	2441210.949428378
1.36991	2390161.1000787243
1.37277	2471319.7006965172
1.37562	2672927.2536956384
1.37847	2485226.083522153
1.38132	1787160.542894414
1.38417	1065587.5856603961
1.38701	615969.7897129876
1.38986	1864376.6788390253
1.39271	2083125.287994949
1.39555	1293031.7178043677
1.39839	2029137.0047758382
1.40123	2472458.133189023
1.40407	2397905.331226802
1.40691	2006280.5656392812
1.40974	1518406.5484258456
1.41258	2212574.6405940964
1.41541	2578955.6394336554
1.41824	1440296.765938663
1.42107	1220458.2432315478
1.4239	1210336.6310666725
1.42673	2541300.862884241
1.42955	3406146.5835510087
1.43237	2539809.9729889515
1.43519	3609064.991496898
1.43801	4017063.7774281395
1.44083	3788569.739107833
1.44365	4452419.746502719
1.44646	4021777.6381758396
1.44927	5245309.150558563
1.45208	6933195.437400423
1.45489	4999129.943265071
1.45769	7578011.685781954
1.4605	7661980.204004703
1.4633	5061414.256931874
1.4661	7976349.622815604
1.4689	7559534.3607306965
1.47169	8081151.778613859
1.47449	7663699.723225704
1.47728	7399818.6415760685
1.48007	7534547.011143413
1.48286	8377620.915803535
1.48564	8114840.166788645
1.48842	8374778.51045471
1.4912	9398621.045933723
1.49398	9394221.47685625
1.49676	10683356.894370705
1.49953	11731318.053259684
1.5023	12588206.939287763
1.50507	14207779.839938052
1.50784	13318937.32694365
1.51061	14631094.972864756
1.51337	14852083.44121866
1.51613	13963640.084115602
1.51888	13927666.877253363
1.52164	15547214.02265259
1.52439	17041146.722174328
1.52714	16323116.329621747
1.52989	17371100.742273528
1.53263	18965780.899850905
1.53538	20620502.90419012
1.53812	20574964.657075994
1.54086	19307473.44419201
1.54359	19126104.31561481
1.54632	21327224.195808105
1.54905	21326296.759354755
1.55178	21118439.00854094
1.5545	22280502.58126694
1.55723	22865380.86114516
1.55995	24124362.636131026
1.56266	23872947.434518397
1.56538	25409557.01406873
1.56809	27217405.46452736
1.5708	26903405.43241597
1.57351	26721499.400145844
1.57621	27249647.988230277
1.57891	27268367.807214346
1.58161	27844927.211853694
1.5843	27817982.65908551
1.587	27737458.930752315
1.58969	27057277.147059847
1.59238	26201734.459336806
1.59506	26897550.209581446
1.59774	27259853.43024357
1.60042	26272454.990090415
1.6031	25117203.993423074
1.60577	23765296.126014076
1.60844	22789105.753789708
1.61111	23127203.328436356
1.61378	22148504.32080086
1.61644	20542525.479732785
1.6191	19112792.460011087
1.62176	20129460.86538604
1.62441	19654250.037154373
1.62707	19756016.185368706
1.62971	18043217.708456676
1.63236	19354896.15958566
1.635	20398066.950916715
1.63764	21907629.411488064
1.64028	19654384.213364393
1.64292	20724375.080764025
1.64555	18280826.01488914
1.64818	19823940.88992637
1.65081	21981802.499074847
1.65343	20539832.389050957
1.65605	18735096.31572264
1.65867	20124090.520823546
1.66128	23295121.051260054
1.6639	19447424.93985921
1.66651	7636187.5170231685
1.66911	6116315.030516984
1.67172	13231196.878085474
1.67432	18162298.018008456
1.67692	19934982.024691958
1.67951	19332910.83001931
1.68211	16709840.990087723
1.6847	13712976.479061969
1.68728	14764948.983582757
1.68987	14858229.729412224
1.69245	12556551.85779398
1.69503	11887813.361343786
1.6976	11859982.650012065
1.70018	12055506.441228233
1.70275	10459245.59404505
1.70531	9965940.377464883
1.70788	12157861.309160354
1.71044	13611055.596769042
1.713	14640413.368029013
1.71556	15378208.520592641
1.71811	15848353.007068792
1.72066	14710535.131227108
1.72321	11792779.246341864
1.72575	13453468.402081039
1.7283	14941296.890386907
1.73084	14385769.637964193
1.73337	12754264.329294747
1.73591	12460343.08245934
1.73844	13120506.86664208
1.74097	12742568.810633041
1.74349	12260767.96355183
1.74602	12361857.29073439
1.74854	13959920.3717793
1.75105	13740953.075808823
1.75357	10638858.72222033
1.75608	8116704.132592689
1.75859	9028978.226257343
1.7611	9007495.628687479
1.7636	8719401.363652797
1.7661	8103048.446354488
1.7686	7016205.0118531445
1.7711	7532129.589213704
1.77359	7241311.949928005
1.77608	5389350.363460729
1.77857	5588984.366370518
1.78105	6259891.036805845
1.78354	5011410.149962298
1.78602	4242782.639511166
1.78849	5193417.826365029
1.79097	4687811.937348294
1.79344	4156242.164915089
1.79591	4842474.336958218
1.79837	5991371.387987661
1.80084	4236171.939855947
1.8033	3930867.8710019183
1.80576	4144974.315194342
1.80821	3995371.8779557846
1.81067	4011306.0439150436
1.81312	4747026.56402476
1.81557	5109466.940729809
1.81801	3938577.009426566
1.82046	3484468.804289272
1.8229	4166028.3001053696
1.82533	3981849.3519929796
1.82777	3170037.1830046293
1.8302	3202138.4742195937
1.83263	3419303.618377679
1.83506	3376862.892112029
1.83749	3391732.8951182426
1.83991	3560902.1593722273
1.84233	4015823.5002316562
1.84475	4873553.461276073
1.84716	4301268.181609675
1.84957	4741111.115003836
1.85198	5546110.302152852
1.85439	4267988.959099564
1.8568	2990171.8244698374
1.8592	2511035.1102433666
1.8616	2620354.3609236157
1.864	2540726.596286775
1.86639	2124908.5947778723
1.86878	1862707.9913214848
1.87118	2542168.662873712
1.87356	3049833.5378056853
1.87595	3575955.9642342413
1.87833	5343779.448910789
1.88071	6472071.330862875
1.88309	5663779.262438113
1.88547	5170907.396351888
1.88784	5952232.5128825735
1.89021	6130235.614284106
1.89258	6729022.60529343
1.89494	7522877.516041421
1.89731	6476620.663740399
1.89967	4988426.070471521
1.90203	5093648.20858783
1.90439	5060861.427155528
1.90674	6270713.251734127
1.90909	6799807.187129891
1.91144	4362978.031408476
1.91379	3776302.599029365
1.91613	5602867.434323579
1.91848	6244036.308320611
1.92082	4911766.662341111
1.92315	4243390.2854489
1.92549	4598387.48547022
1.92782	4764167.298020539
1.93015	4125094.468778428
1.93248	3651656.3246205086
1.93481	3584120.4369045477
1.93713	2928080.885210815
1.93945	2458339.198677342
1.94177	3867998.7954393644
1.94409	4663648.927911439
1.94641	4166915.8387291483
1.94872	4226717.544615347
1.95103	5320390.841483768
1.95334	5249938.0519173965
1.95564	4001394.7183528463
1.95795	3764801.92387779
1.96025	3573038.6480000555
1.96255	3463614.07216218
1.96484	4615038.352318006
1.96714	5658475.305889143
1.96943	5662406.787071266
1.97172	5911583.539070222
1.97401	6013775.176721315
1.97629	6073370.399649388
1.97858	6312046.799899912
1.98086	5496978.832719772
1.98314	4901220.9141756445
1.98541	6078662.627366266
1.98769	7221186.644643909
1.98996	6420192.414278994
1.99223	5926555.053675666
1.9945	7095870.855702755
1.99677	7798823.647609076
1.99903	7369323.933822048
2.00129	7137193.164077985
2.00355	7460860.511627335
2.00581	8132708.014913965
2.00806	8068123.626976783
2.01031	8326807.861230696
2.01256	9853880.17267538
2.01481	10311189.826024469
2.01706	9309970.738022666
2.0193	9357174.932730256
2.02154	10655469.755078943
2.02378	11190388.805795971
2.02602	10348001.600172797
2.02825	9687961.708054198
2.03049	10091202.59357469
2.03272	11188025.039984122
2.03494	11822999.172536027
2.03717	11759511.3938048
2.03939	11712485.64488569
2.04162	12423587.767934315
2.04384	13145010.791788284
2.04605	13386649.433089236
2.04827	13054898.90081014
2.05048	12855516.668796798
2.05269	12806621.462244092
2.0549	12536122.336513009
2.05711	13074603.61142395
2.05931	13530953.532076994
2.06151	13551044.777754536
2.06371	13766673.829658085
2.06591	13845661.502125751
2.06811	14012879.961103695
2.0703	14436336.401826637
2.07249	14735060.104194717
2.07468	14625257.584705645
2.07686	14541455.753458079
2.07905	14738190.114480734
2.08123	14853411.910468373
2.08341	14890238.954305539
2.08559	14872836.478046542
2.08776	14895305.843519507
2.08994	14964556.5382194
2.09211	14877143.28277271
2.09428	14873164.653105402
2.09645	14997100.170327948
2.09861	14855867.482732495
2.10077	14513759.136629105
2.10293	14422766.480436338
2.10509	14640632.775643945
2.10725	14699490.070706012
2.1094	14306656.98177049
2.11155	13703764.895062512
2.1137	13551274.876804732
2.11585	13714212.604557479
2.11799	13866276.972409219
2.12013	14070376.447011558
2.12227	14098550.638877058
2.12441	14101488.667789517
2.12655	14056201.41658557
2.12868	13816993.183691235
2.13081	13660111.69273787
2.13294	13555892.629397687
2.13507	13153860.114347858
2.13719	12910805.01147174
2.13931	13205998.38212006
2.14143	13370547.977232035
2.14355	13005999.397010507
2.14567	12404136.330525316
2.14778	11769824.958531052
2.14989	11428829.345625179
2.152	11428933.752625737
2.1541	11331490.293106621
2.15621	11176503.615815686
2.15831	10890022.231692038
2.16041	10266307.785429835
2.16251	10040235.44013325
2.1646	10272299.524744706
2.1667	10493447.171095056
2.16879	10773519.991928369
2.17087	10977656.803084262
2.17296	10786391.893962868
2.17504	10559378.020905053
2.17713	10504695.278450223
2.1792	10094994.591154639
2.18128	9078161.372733083
2.18336	8160068.214563208
2.18543	8200984.229407249
2.1875	8484590.774330555
2.18957	8222077.753194438
2.19163	7897710.743169277
2.1937	7648223.439034918
2.19576	6962289.31822811
2.19782	5683852.80512471
2.19987	4299500.85893254
2.20193	3548718.9401700655
2.20398	3374465.049425702
2.20603	3404939.537450758
2.20808	3647628.122749397
2.21012	3911876.973716319
2.21217	4023329.331096298
2.21421	4347286.154878935
2.21625	4809383.294424769
2.21828	5065861.519503627
2.22032	5222242.242407768
2.22235	5292067.993987434
2.22438	5085079.912363731
2.22641	4442629.1775814425
2.22843	3961431.0929772253
2.23046	3762079.9143994185
2.23248	3532849.65206222
2.2345	3250796.489376721
2.23651	2966317.020331759
2.23853	2859034.7283076425
2.24054	3058924.2262554984
2.24255	3453122.8608104954
2.24456	3787769.48815016
2.24657	3878620.8368663345
2.24857	3768306.2026761067
2.25057	3536767.8587679677
2.25257	3189871.496268427
2.25457	2791355.045297432
2.25656	2640991.741510152
2.25856	2776036.079569942
2.26055	2822094.7856425387
2.26254	2535203.4183902834
2.26453	2287543.38798291
2.26651	2374422.302245083
2.2685	2563341.7431238964
2.27048	2676080.6226251614
2.27246	2881259.271905144
2.27443	2936144.411599877
2.27641	2924883.977672706
2.27838	3047207.643552442
2.28036	3032369.7308373493
2.28233	2794728.4828789462
2.28429	2554698.5079584504
2.28626	2309880.8510470567
2.28823	2090065.3866188328
2.29019	1995297.5244563245
2.29215	1939383.1988400603
2.29411	1933619.0191958733
2.29607	2026814.124005057
2.29802	2275098.65807899
2.29998	2609575.515834869
2.30193	3019605.0719222524
2.30388	3362125.9941489133
2.30583	3530563.206521138
2.30778	3696559.8938507186
2.30972	4075324.5520810117
2.31167	4436931.488972998
2.31361	4017575.5795132765
2.31555	2920704.474333935
2.31749	2001062.7497787997
2.31943	1760576.945496323
2.32137	1711928.3337738188
2.32331	1573970.9941155475
2.32524	1394166.3438511102
2.32718	1185344.6994705016
2.32911	1081899.474906306
2.33104	1166433.2361500203
2.33297	1359328.6061366128
2.3349	1570611.4405513685
2.33683	1834195.0664621328
2.33876	2074625.8350713754
2.34068	2220752.5455832677
2.34261	2322912.9016316254
2.34453	2419689.74425271
2.34646	2481541.1612037187
2.34838	2436885.482357002
2.3503	2276373.3618339337
2.35223	2247542.759391124
2.35415	2220937.6796318404
2.35607	2053855.106726338
2.35799	2184975.6811804855
2.35991	2595139.2385049746
2.36183	2965767.886473074
2.36375	3250261.7064857567
2.36566	3543794.3509973367
2.36758	3357508.1867144657
2.3695	2750800.7887457996
2.37142	2252275.8411999075
2.37334	2131563.499629961
2.37526	2080175.1965168654
2.37718	1991681.2465572346
2.3791	1994271.412339475
2.38101	2036107.0086258498
2.38293	2054257.7256704422
2.38485	2102474.0043219863
2.38677	2407725.712475531
2.3887	2836782.189021445
2.39062	3053803.9498200435
2.39254	3079022.1828612154
2.39446	3170932.9021245986
2.39639	3237561.0074810777
2.39831	3097030.050174616
2.40024	3067816.659215606
2.40216	3208444.3010496385
2.40409	3415686.6723104278
2.40602	3304736.384954661
2.40795	3141801.464307643
2.40989	3399914.271223555
2.41182	3958085.036830611
2.41376	4132822.4603543817
2.4157	4009611.756924077
2.41764	3846638.937123366
2.41958	3847693.536407438
2.42152	3860605.485941127
