#wavelength	surface flux
0.676892	954876.2464183088
0.678297	1010169.9843908095
0.679702	1061211.7654151053
0.681109	1109910.680531766
0.682517	1153441.0090661992
0.683926	1196712.765965869
0.685337	1233659.8188350482
0.686749	1267451.4046406324
0.688164	1297851.4259337562
0.689581	1322003.9729706715
0.691	1332146.5205698889
0.692422	1341927.2325634907
0.693847	1338558.5827786464
0.695274	1364606.289848324
0.696705	1370785.6791195269
0.698139	1367010.6238843114
0.699576	1356343.7420963468
0.701017	1340866.2070780816
0.702461	1320366.0514732446
0.70391	1297299.8289361713
0.705362	1265203.844002801
0.706819	1230006.4941915437
0.70828	1195766.8514801401
0.709745	1154123.0911381266
0.711216	1112258.0010044537
0.71269	1067037.1103258824
0.71417	1020557.9669820515
0.715655	966517.8805906108
0.717145	908479.3640679533
0.71864	858893.6795225841
0.72014	812769.1864586677
0.721647	764033.100583877
0.723158	717900.0936162208
0.724676	665377.7088133973
0.726199	613671.28392194
0.727728	561091.3453041323
0.729264	518824.6774072523
0.730805	472193.8522804542
0.732353	434091.4850354084
0.733907	392386.9072480782
0.735468	349238.7205271625
0.737035	314869.4038667374
0.738609	278994.5018142026
0.74019	245820.2705296537
0.741777	214440.10493202234
0.743372	185504.29259728146
0.744973	158581.46613770205
0.746582	133818.8208913132
0.748197	111387.95497131743
0.74982	91532.73715776393
0.751451	73783.65093594362
0.753088	58289.50621533578
0.754734	44991.57593477956
0.756386	33817.01056513036
0.758047	24654.350853349708
0.759715	17394.21308022539
0.76139	11843.159489971502
0.763074	7690.2520585021775
0.764765	4189.097024261873
0.766464	1473.291891567086
0.768172	2982.2400666404924
0.769887	2124.484807685481
0.77161	6101.754968985139
0.773341	11680.673742231285
0.775081	18813.057159416374
0.776829	28471.064864633867
0.778585	36341.60293203794
0.780349	38952.6507468301
0.782121	76717.11870794906
0.783902	105508.12652380993
0.785691	137732.60878932883
0.787489	175735.93839941343
0.789295	219650.63744448236
0.79111	268199.7986117585
0.792933	289572.2284438503
0.794764	193893.02431952613
0.796604	417902.6769232198
0.798453	548668.3956572837
0.80031	651066.6884272209
0.802176	759421.8994334142
0.804051	879601.2429861712
0.805934	1008355.0466542883
0.807826	1149328.367472195
0.809727	1299737.159212296
0.811636	1459498.870590951
0.813554	1623302.2010298448
0.81548	1833552.4147554138
0.817416	2014846.288604324
0.81936	2071251.2924829812
0.821313	2509046.821887454
0.823274	2784022.725722428
0.825244	3064624.311582504
0.827223	3385785.1115468265
0.829211	3685188.8693408393
0.831208	3999486.101055888
0.833213	4397531.554977712
0.835227	4759370.312040885
0.837249	5118405.160698164
0.83928	5585685.725601815
0.841321	6038899.534288548
0.843369	6505526.41512009
0.845427	6947963.217762224
0.847493	7481931.763735897
0.849567	7696989.068786941
0.851651	5169290.0435693655
0.853742	7968984.32526424
0.855843	9766439.590427553
0.857952	10531116.346482337
0.86007	10863521.348805528
0.862196	8163739.28501732
0.864331	9108809.323190704
0.866474	10261625.66129772
0.868626	10929211.034663185
0.870786	10742010.99997318
0.872955	11194301.336149441
0.875132	10961050.007328551
0.877317	14503567.462794397
0.879511	15440895.943205392
0.881713	15080909.435255488
0.883923	16612260.24278047
0.886142	17510260.898155693
0.888369	16850621.701539356
0.890604	19323106.30036101
0.892847	15809097.182308635
0.895099	13672665.59002618
0.897358	20902916.258445233
0.899626	23949543.82580539
0.901901	26893659.620309234
0.904185	29445800.122909702
0.906476	28544615.24831567
0.908776	29025632.86940368
0.911083	30489386.262836687
0.913398	32097305.46623142
0.915721	35169666.596609496
0.918051	36297179.91072689
0.92039	40902568.13421842
0.922736	41551209.346691065
0.925089	40438116.49964968
0.927451	34716681.57620533
0.929819	29158112.522144727
0.932195	28151704.41445877
0.934579	30194579.333373837
0.93697	43109032.450174496
0.939369	46736835.59067643
0.941774	46806763.47135653
0.944187	41909669.698273174
0.946607	49727001.78171252
0.949035	50302180.05213851
0.951469	45553042.77275249
0.953911	47960205.29559174
0.956359	43371978.40087857
0.958814	53406177.04001442
0.961277	44680023.159638785
0.963746	43745497.98037616
0.966222	55265363.11606239
0.968705	60636118.994957656
0.971194	66108342.35055859
0.97369	63649372.6252297
0.976193	72988012.54750888
0.978702	73392416.46798648
0.981217	77375300.29818237
0.983739	75734228.80251692
0.986268	84163525.77269246
0.988802	82593239.38474002
0.991343	64851408.89162314
0.99389	71898188.17771909
0.996444	71044670.03871316
0.999003	51906701.57562434
1.00157	50124605.59476995
1.00414	56892656.42518621
1.00672	57542203.3973006
1.0093	62468224.4429318
1.01189	65065446.66356923
1.01448	73557775.1876983
1.01708	75379309.55780333
1.01969	83705151.03209625
1.0223	86044542.95056683
1.02492	87095310.75810274
1.02754	86407297.3671429
1.03017	95441058.16627899
1.0328	99683785.4581029
1.03544	100670538.96093076
1.03808	112214564.41758946
1.04073	113637330.60732797
1.04339	113461799.40448256
1.04604	113759483.72976634
1.04871	113668145.9567067
1.05138	115302894.94019917
1.05405	120977437.81285983
1.05673	119249608.25181307
1.05941	127075261.98280789
1.0621	125878550.61573318
1.06479	134510573.7868729
1.06749	137405863.3218058
1.07019	146144594.1266495
1.07289	146684735.91997784
1.0756	153067264.48810357
1.07832	159861388.582544
1.08104	158036506.1334078
1.08376	167086072.25532246
1.08649	156831696.11656106
1.08922	153862028.29783306
1.09195	145907098.61529136
1.09469	138216394.55370846
1.09743	119736836.56276797
1.10018	107465228.82803355
1.10293	91117855.09603801
1.10568	74310078.02630928
1.10844	80055056.57320683
1.1112	66251623.33185061
1.11396	57626166.74840755
1.11673	52963531.95643485
1.1195	68246379.72019838
1.12228	60175599.47108516
1.12505	70869384.66850169
1.12783	85318276.80822936
1.13062	74433150.50684604
1.13341	36404452.54656769
1.1362	44733931.4696967
1.13899	54042183.78115865
1.14178	68127070.76002859
1.14458	65445114.144321375
1.14738	72751706.02245621
1.15019	98434832.5118826
1.153	79804697.51020032
1.1558	72256629.66100623
1.15862	88086896.84348984
1.16143	63723266.453504845
1.16425	56450781.39407324
1.16707	47802999.618470855
1.16989	50341051.348197974
1.17271	68981962.98274809
1.17554	50825438.89883449
1.17837	42772571.65405235
1.1812	79270987.83254454
1.18403	86668131.60325372
1.18686	94979081.72904755
1.1897	105873620.96943145
1.19253	114306243.9935222
1.19537	122860719.81262712
1.19822	129844237.08730628
1.20106	138124132.16312605
1.2039	141542674.8109675
1.20675	149512335.9001363
1.2096	158495165.19865614
1.21245	163769386.12897936
1.2153	170837837.52349803
1.21815	171394104.42656693
1.221	182688810.0470404
1.22385	189967695.32305223
1.22671	193910300.62469316
1.22957	198831241.6870806
1.23242	201945152.29590416
1.23528	197182000.72756946
1.23814	192537639.627702
1.241	164294567.91453224
1.24387	134499057.68991923
1.24673	175147867.46699294
1.24959	145914160.71889132
1.25245	96696840.03477468
1.25532	161881450.7440914
1.25818	201545080.02981892
1.26105	219998057.3309943
1.26392	220218979.5230403
1.26678	231483078.07804337
1.26965	229243897.2628489
1.27252	238758432.64754838
1.27538	239418551.1290289
1.27825	241644721.70024502
1.28112	241490663.84673527
1.28399	220939216.00675604
1.28686	225511166.6690091
1.28973	222882737.14068583
1.2926	223553758.491403
1.29546	207836501.20996898
1.29833	200599864.03218156
1.3012	214567530.68469948
1.30407	220685595.9920971
1.30694	200637993.49774355
1.30981	210170696.93416268
1.31267	208588093.36936793
1.31554	189463296.750386
1.31841	178227841.82458708
1.32128	186927461.986991
1.32414	146030577.89894822
1.32701	112191865.46783216
1.32987	86912369.42222324
1.33274	45221583.52070715
1.3356	31050036.46096995
1.33847	9775508.403895466
1.34133	7380747.457295695
1.34419	9560409.338281525
1.34705	8098545.209755195
1.34991	9081953.336566359
1.35277	10516636.326577287
1.35563	4251021.804628552
1.35849	4520503.863513732
1.36135	6347313.150831328
1.3642	10281410.179676095
1.36706	11287635.26896068
1.36991	10849772.441414848
1.37277	11158131.04867089
1.37562	11182739.136670196
1.37847	10477595.275113624
1.38132	8419845.108386597
1.38417	5154205.233414716
1.38701	2673276.567021682
1.38986	7964809.076894323
1.39271	8751723.910618106
1.39555	5695770.6370118195
1.39839	9099057.823170898
1.40123	11370283.777093662
1.40407	10888890.49017257
1.40691	8851390.475493329
1.40974	6466938.675457717
1.41258	8988896.522821784
1.41541	10504543.138498165
1.41824	5726724.972445404
1.42107	4811361.323119432
1.4239	4746452.188433773
1.42673	9953708.328653667
1.42955	13237166.63983729
1.43237	9903997.324586095
1.43519	13374977.125200316
1.43801	15093674.314767767
1.44083	13876244.792002812
1.44365	16668883.478859823
1.44646	15085405.201005625
1.44927	19176318.940930486
1.45208	24961306.86392121
1.45489	17772539.20839905
1.45769	27174028.469316483
1.4605	27443148.22866052
1.4633	16922933.771335807
1.4661	27167392.102295425
1.4689	26186873.50957584
1.47169	28665177.858429886
1.47449	27823533.052556455
1.47728	28098761.635073204
1.48007	28693419.51093679
1.48286	30751392.963799436
1.48564	29502991.126134764
1.48842	30195776.65507674
1.4912	34873349.08723234
1.49398	34138946.02165256
1.49676	39906305.0627261
1.49953	42500183.958063826
1.5023	46278778.70187341
1.50507	52593830.44445925
1.50784	48123440.66428831
1.51061	53127244.35381221
1.51337	55938831.36466479
1.51613	50849074.67373664
1.51888	49963721.09334678
1.52164	56398120.556746446
1.52439	63024248.927084364
1.52714	58494491.146234155
1.52989	62285525.04407451
1.53263	69898952.9941274
1.53538	76975855.35092707
1.53812	76166851.62748648
1.54086	73024418.7569534
1.54359	69914135.1686871
1.54632	80672742.00623484
1.54905	81047152.06260222
1.55178	81649102.70997858
1.5545	85223072.72192319
1.55723	85775682.59146154
1.55995	91175209.12595095
1.56266	90955130.25881559
1.56538	94528259.79248133
1.56809	103020474.97289743
1.5708	102115603.7159601
1.57351	102277046.59725873
1.57621	103471385.48501997
1.57891	103353558.44561379
1.58161	105474412.06902443
1.5843	105803001.54794058
1.587	106178089.70311807
1.58969	103925974.55840048
1.59238	101295228.90940176
1.59506	104423026.10201539
1.59774	105677395.62099493
1.60042	103087748.64105324
1.6031	99752438.4760603
1.60577	94920184.30276065
1.60844	92165739.9938138
1.61111	94876087.12902378
1.61378	92175196.18568659
1.61644	86995750.07682814
1.6191	82096125.61732459
1.62176	86280941.22576183
1.62441	84427091.9637571
1.62707	85403914.98258173
1.62971	77853438.93902846
1.63236	83755440.98641351
1.635	86802827.33357014
1.63764	91353129.48033145
1.64028	80321028.000143
1.64292	84152344.58774151
1.64555	75509960.95444241
1.64818	83290985.26071495
1.65081	89458346.19606747
1.65343	82855454.6928974
1.65605	77772361.99555415
1.65867	80889777.44186556
1.66128	90198284.75299974
1.6639	77919457.87002319
1.66651	35712024.34468936
1.66911	29407837.94700458
1.67172	55176870.85387539
1.67432	72402540.38398404
1.67692	78568646.07833962
1.67951	76955300.48677665
1.68211	68023447.95737265
1.6847	57014818.28358515
1.68728	61644968.870966315
1.68987	61538583.027365305
1.69245	53336475.69866774
1.69503	50506228.3371973
1.6976	50945901.02555475
1.70018	52271889.06119771
1.70275	46563981.28575456
1.70531	44132028.10766961
1.70788	50927030.39612351
1.71044	54517281.85644544
1.713	55749830.61246527
1.71556	57089778.16703697
1.71811	57994306.99471683
1.72066	53752473.32148175
1.72321	43052257.033837385
1.72575	47687225.12548268
1.7283	53142721.90873898
1.73084	50203809.127119474
1.73337	43089081.94634481
1.73591	42184873.12280037
1.73844	43442552.7422167
1.74097	41086230.66346401
1.74349	38404391.939503714
1.74602	38011651.87653949
1.74854	43806269.49109757
1.75105	42799342.987052225
1.75357	32761007.890197925
1.75608	25437118.245459665
1.75859	28400214.23540364
1.7611	28455184.12072369
1.7636	27767745.379067436
1.7661	25271090.75890417
1.7686	21388661.486681487
1.7711	23090510.49857102
1.77359	22364575.546923034
1.77608	16382069.77408337
1.77857	16989542.206224453
1.78105	18976876.304930095
1.78354	15128972.207852354
1.78602	12825283.028886132
1.78849	15806088.042446561
1.79097	14541243.463394964
1.79344	12982297.765990645
1.79591	15079917.250672814
1.79837	18775629.513008993
1.80084	13266376.421786105
1.8033	12378867.54275779
1.80576	12982077.243742723
1.80821	12510294.98006877
1.81067	12729056.496681528
1.81312	14951846.781191569
1.81557	16054384.562001117
1.81801	12211867.856531907
1.82046	10792026.855222235
1.8229	12887631.01502889
1.82533	12183571.368898565
1.82777	10163243.812338525
1.8302	10699250.028296156
1.83263	11019600.527437108
1.83506	10770924.905116031
1.83749	11159040.668385621
1.83991	11639185.320077691
1.84233	12567908.923668502
1.84475	14283578.592667058
1.84716	12498129.07633784
1.84957	13892607.910139848
1.85198	15965254.23600351
1.85439	12149241.847242998
1.8568	8717386.648427017
1.8592	7350154.566253882
1.8616	7435065.538536476
1.864	7486514.006866989
1.86639	6759587.056712482
1.86878	6132872.088979175
1.87118	8231958.816281062
1.87356	9564807.082268784
1.87595	10491993.381290147
1.87833	14922018.895913033
1.88071	18271884.522063732
1.88309	16282779.806785176
1.88547	14850805.477843806
1.88784	17187286.871072993
1.89021	17914743.39916184
1.89258	19648776.00564283
1.89494	21552247.681917783
1.89731	18789759.66109628
1.89967	15130047.691662047
1.90203	15406000.01157351
1.90439	15730238.38204266
1.90674	20172193.279626988
1.90909	22550217.452181894
1.91144	15194465.563593369
1.91379	13073101.525780236
1.91613	18464211.966606114
1.91848	20065548.612356603
1.92082	15885184.96936143
1.92315	13661809.725105729
1.92549	14666101.141781425
1.92782	15248331.617294637
1.93015	13374062.767528871
1.93248	12193672.88244558
1.93481	11624801.354822017
1.93713	8925747.318298403
1.93945	7225278.283190138
1.94177	11369018.202133173
1.94409	14080822.363450488
1.94641	12858763.394998042
1.94872	13266947.214367822
1.95103	16857876.84505156
1.95334	16341580.586411456
1.95564	12143413.502294092
1.95795	11143163.273077441
1.96025	10315951.065949457
1.96255	9895355.85476693
1.96484	12880408.366447143
1.96714	15276614.144891052
1.96943	14984151.851926949
1.97172	16171100.640940351
1.97401	16811369.46511941
1.97629	16891128.152249724
1.97858	17581822.416900154
1.98086	15283894.13007936
1.98314	13795535.206984809
1.98541	17140645.65841587
1.98769	19968058.626040056
1.98996	17187116.049844645
1.99223	15549332.110965608
1.9945	18687221.17371072
1.99677	20186450.21961741
1.99903	18593222.23502979
2.00129	17904630.627546817
2.00355	19606633.450727217
2.00581	22296087.617216524
2.00806	21358959.919907194
2.01031	21278779.514821537
2.01256	26030931.375397418
2.01481	27766621.478241626
2.01706	24433032.65559716
2.0193	24560862.013466228
2.02154	28912599.847670637
2.02378	30173924.67765967
2.02602	27056071.31772043
2.02825	25650553.08719594
2.03049	27572712.468326226
2.03272	31212908.835664492
2.03494	32543097.197173
2.03717	31945714.35229108
2.03939	32444474.30391695
2.04162	34261119.56814163
2.04384	35623924.91000145
2.04605	35895108.83580831
2.04827	34745583.942383245
2.05048	34537798.64036239
2.05269	34436837.48571479
2.0549	33161018.210472446
2.05711	35041669.58147081
2.05931	36621229.38130904
2.06151	36220528.638297044
2.06371	36657084.50572361
2.06591	36913889.07401147
2.06811	37819890.299217485
2.0703	39307358.716037236
2.07249	39921088.074721955
2.07468	39142662.37438434
2.07686	38542498.31178266
2.07905	39383311.82670823
2.08123	40401101.60147403
2.08341	40864056.280550666
2.08559	40654135.08216648
2.08776	40612301.36793477
2.08994	40953263.14077943
2.09211	40885223.29232731
2.09428	41049630.6784813
2.09645	41456827.58369443
2.09861	40938434.32078842
2.10077	39869952.466519184
2.10293	39621852.10176403
2.10509	40336991.62668899
2.10725	40522396.82245317
2.1094	39231512.054116085
2.11155	37340823.72398973
2.1137	36990190.08609747
2.11585	37550739.63408937
2.11799	37988977.2578675
2.12013	38727437.09259459
2.12227	39067944.548264496
2.12441	39199220.08492683
2.12655	38986351.513884835
2.12868	38120533.44828929
2.13081	37692306.259390734
2.13294	37677996.2507849
2.13507	36768987.21757484
2.13719	36062533.21152
2.13931	36621395.80185745
2.14143	36945329.99540071
2.14355	36131781.709845506
2.14567	34760682.6157574
2.14778	33157452.828193158
2.14989	32151993.338940904
2.152	32048553.686426956
2.1541	31905269.90572636
2.15621	31664014.77283418
2.15831	31001478.3032067
2.16041	29800481.82769861
2.16251	29590893.43105159
2.1646	29814922.651819818
2.1667	29865810.464705486
2.16879	30472890.10385653
2.17087	30890030.061499365
2.17296	30180413.24686867
2.17504	29400606.76192563
2.17713	29054593.169961754
2.1792	27882003.02315748
2.18128	25132685.841213666
2.18336	22488276.681905188
2.18543	22360094.51928398
2.1875	23049320.494077142
2.18957	22489120.92280122
2.19163	21993160.635432452
2.1937	21780613.316961028
2.19576	20103583.434153125
2.19782	16727377.32882935
2.19987	13112343.801847264
2.20193	10968574.192224976
2.20398	10089321.113867536
2.20603	9722085.428828722
2.20808	10199332.816677015
2.21012	10998796.771048803
2.21217	11613692.705865394
2.21421	12849305.114001779
2.21625	14223074.316649554
2.21828	14898179.594941705
2.22032	15375834.8572437
2.22235	15401975.120425671
2.22438	14454843.981119545
2.22641	12604324.895521756
2.22843	11581369.268433614
2.23046	11462628.249630166
2.23248	11149337.48618216
2.2345	10529533.135865612
2.23651	9602197.449955335
2.23853	8919758.512355763
2.24054	9228088.596044095
2.24255	10354643.256524889
2.24456	11385210.362327872
2.24657	11717745.467284944
2.24857	11541369.803620206
2.25057	11101052.906801583
2.25257	10513524.326044414
2.25457	9627708.143164132
2.25656	8929720.113552293
2.25856	8777653.926550193
2.26055	8665985.496130882
2.26254	7834236.5925555695
2.26453	7137034.533612939
2.26651	7244233.877984483
2.2685	7629131.972423232
2.27048	7877029.8330057
2.27246	8329396.035315395
2.27443	8413530.919473113
2.27641	8409058.367309812
2.27838	8696119.62223933
2.28036	8521737.881461587
2.28233	7869317.396536596
2.28429	7329922.807490163
2.28626	6799321.128670826
2.28823	6304606.583341098
2.29019	6085868.968237297
2.29215	5982165.201796184
2.29411	5953756.644620304
2.29607	6112371.640540582
2.29802	6704953.868830083
2.29998	7610173.589819299
2.30193	8644976.644872494
2.30388	9444026.86843725
2.30583	9905590.633446774
2.30778	10519559.054808943
2.30972	11375375.836469568
2.31167	11835880.723212585
2.31361	10555994.17905993
2.31555	8137347.878372937
2.31749	6268732.241623746
2.31943	5781736.411326406
2.32137	5467013.308392923
2.32331	4845292.9724914
2.32524	4225395.239004608
2.32718	3608866.2276193597
2.32911	3298211.5914099813
2.33104	3530342.8005950204
2.33297	4030885.056367903
2.3349	4518855.260368106
2.33683	5138091.741951189
2.33876	5777880.3865392925
2.34068	6267073.170110147
2.34261	6662690.152494372
2.34453	7005529.640505934
2.34646	7129865.997594839
2.34838	6883900.357935391
2.3503	6391553.128912241
2.35223	6322299.259880691
2.35415	6320615.792037924
2.35607	5943651.296834169
2.35799	6212481.1086316705
2.35991	7176407.306331457
2.36183	8095356.772948104
2.36375	8795152.965045763
2.36566	9514451.07694529
2.36758	9195022.50232638
2.3695	7861052.202546374
2.37142	6671544.953032933
2.37334	6236964.713689066
2.37526	5906603.899034772
2.37718	5522564.294797121
2.3791	5415154.690809995
2.38101	5406717.816616208
2.38293	5323296.822859123
2.38485	5419187.324221192
2.38677	6240947.190465047
2.3887	7340947.653768611
2.39062	7796064.954762305
2.39254	7765621.697120888
2.39446	7943913.146311606
2.39639	8079584.219715814
2.39831	7693781.712037936
2.40024	7458841.123380144
2.40216	7652950.357820224
2.40409	8228532.13334991
2.40602	8283508.950964357
2.40795	8121900.627788081
2.40989	8720601.778744262
2.41182	9873934.445895862
2.41376	10188961.483285235
2.4157	9936710.0882879
2.41764	9516865.401191227
2.41958	9365752.54988218
2.42152	9256241.592269015
2.42347	9207862.335854944
2.42542	8988813.495632451
2.42737	9508425.07273761
2.42932	10520287.788506627
