#wavelength	surface flux
0.8	194905.3096911304
0.8002000000000001	198715.32953825846
0.8004000500000003	202443.96570105394
0.8006001500125003	205982.50214670537
0.8008003000500035	209849.58060034012
0.8010005001250161	213376.36142561273
0.8012007502500472	217848.19326723026
0.8014010504376099	221366.12821225924
0.8016014007002193	224783.89168939705
0.8018018010503944	229294.02817184938
0.8020022515006572	232351.10951310938
0.8022027520635323	236858.56330867525
0.8024033027515483	241222.7470571787
0.8026039035772362	244562.66570093506
0.8028045545531306	249727.12277196682
0.8030052556917691	252965.38930092656
0.803206007005692	257802.8092193158
0.8034068085074435	261387.02951538004
0.8036076602095705	266880.1445794192
0.8038085621246229	271577.6306109491
0.8040095142651542	276399.4212737259
0.8042105166437206	279227.1708580059
0.8044115692728815	284196.2403284141
0.8046126721651998	288286.2673973581
0.8048138253332411	294169.7711847601
0.8050150287895745	299834.0688489472
0.805216282546772	304058.39368374116
0.8054175866174087	307028.7151869183
0.8056189410140631	313148.99805281626
0.8058203457493168	317314.08732759464
0.8060218008357541	323711.3446789707
0.8062233062859632	324967.8795834805
0.8064248621125346	332485.241144201
0.806626468328063	338604.3574915336
0.8068281249451449	342924.9438366163
0.8070298319763813	347030.05264316924
0.8072315894343755	351159.70450223656
0.8074333973317341	358451.8124748871
0.8076352556810671	364548.60475145344
0.8078371644949874	369288.9737467648
0.8080391237861113	377190.53653431725
0.8082411335670578	379120.64282234426
0.8084431938504498	384282.8309557869
0.8086453046489125	390285.3992438815
0.8088474659750746	394100.5794663613
0.8090496778415686	399805.54944699473
0.809251940261029	398234.5676753332
0.8094542532460944	413619.8926197328
0.8096566168094059	418901.6368016845
0.8098590309636085	424184.9422946462
0.8100614957213493	419633.1013348117
0.8102640110952797	431642.9146748821
0.8104665770980536	435530.4203173725
0.8106691937423283	444889.86355665664
0.8108718610407639	446150.91596365557
0.8110745790060241	450443.13114989805
0.8112773476507757	461908.2503209102
0.8114801669876885	464031.5808272752
0.8116830370294355	467063.5247050722
0.8118859577886929	490428.05228972837
0.8120889292781401	486889.2970707988
0.8122919515104597	485036.34134016186
0.8124950244983374	484233.2232171469
0.8126981482544621	507853.46962155006
0.8129013227915257	516930.3206617415
0.8131045481222237	522155.3646844373
0.8133078242592543	518923.31722073455
0.8135111512153191	526398.2612063469
0.813714529003123	527239.5725097823
0.8139179576353739	544708.1486362797
0.8141214371247829	550637.0050158385
0.8143249674840641	540719.5467974688
0.814528548725935	568825.3243353476
0.8147321808631167	581530.8763518614
0.8149358639083326	578390.1974683958
0.8151395978743097	562439.5621412596
0.8153433827737784	604385.7417350882
0.8155472186194719	597524.4100421816
0.8157511054241268	606870.1288067179
0.815955043200483	625133.6442294254
0.8161590319612831	637586.9151728828
0.8163630717192736	610993.9655247407
0.8165671624872033	643423.8266494533
0.8167713042778252	655340.9037054093
0.8169754971038948	673247.1219140221
0.8171797409781707	644107.6523480846
0.8173840359134155	692802.9890426865
0.8175883819223938	701123.6040484854
0.8177927790178745	705135.1677155984
0.8179972272126291	693896.8942306322
0.8182017265194322	696455.254808925
0.8184062769510622	673993.0911922805
0.8186108785203001	735459.6277162147
0.8188155312399301	732730.0031715955
0.8190202351227402	745879.6500894025
0.819224990181521	725232.5485661642
0.8194297964290664	650208.1439210878
0.8196346538781738	713798.1982228013
0.8198395625416434	781501.3772186843
0.8200445224322789	786725.6950980049
0.820249533562887	808938.3283781367
0.8204545959462778	823346.3333893258
0.8206597095952644	833270.0313321867
0.8208648745226633	843427.9440336303
0.8210700907412941	852142.02898336
0.8212753582639793	863315.1066423282
0.8214806771035456	875442.6759426488
0.8216860472728215	885114.7592583592
0.8218914687846397	891268.2800793815
0.822096941651836	903664.8153752022
0.822302465887249	914889.8104638578
0.8225080415037209	926740.6914052923
0.8227136685140968	906254.1599982893
0.8229193469312254	861807.872138082
0.8231250767679583	858745.9059942767
0.8233308580371503	923382.9102968284
0.8235366907516598	941221.0486206331
0.8237425749243477	970963.5859366426
0.8239485105680789	977147.6629513432
0.824154497695721	998220.5374017468
0.824360536320145	995908.0089487374
0.8245666264542252	979117.6093049118
0.8247727681108388	1048802.7315869518
0.8249789613028664	1056646.2079493285
0.8251852060431922	1070267.7335291205
0.825391502344703	1088555.1446095968
0.8255978502202894	1098849.4208812045
0.8258042496828445	1098074.4776238792
0.8260107007452654	1121459.2564119168
0.8262172034204517	1100627.8144984206
0.8264237577213068	1129063.999139358
0.8266303636607373	1146749.6661094078
0.8268370212516525	1171231.7658442901
0.8270437305069654	1181904.8969305458
0.8272504914395923	1189786.7102469797
0.8274573040624523	1183479.7772470554
0.8276641683884679	1200138.5566705363
0.8278710844305652	1211253.7978197685
0.8280780522016729	1240694.2291452966
0.8282850717147234	1241602.4779108874
0.8284921429826521	1262111.7369898967
0.8286992660183978	1279108.7148992396
0.8289064408349024	1270877.367762924
0.8291136674451112	1270353.1272694818
0.8293209458619727	1305580.7579931987
0.8295282760984382	1293034.2805043403
0.829735658167463	1259272.3805943907
0.8299430920820048	1340841.9931823649
0.8301505778550254	1362515.375449198
0.8303581154994891	1371422.9174084843
0.8305657050283641	1391489.2365333044
0.8307733464546212	1358715.7758926498
0.8309810397912352	1420857.5392211918
0.8311887850511829	1443497.7406540976
0.8313965822474458	1415465.0540794004
0.8316044313930077	1461825.4680003384
0.8318123325008561	1471046.5220090307
0.8320202855839813	1470133.416986661
0.8322282906553774	1497833.1766211072
0.8324363477280413	1488343.738429874
0.8326444568149735	1549173.5805211843
0.8328526179291771	1566483.5302753362
0.8330608310836596	1552499.5980055532
0.8332690962914304	1535561.1985186227
0.8334774135655034	1564504.4520457077
0.833685782918895	1583248.0251200716
0.8338942043646247	1631335.5866410309
0.834102677915716	1589386.2254030916
0.834311203585195	1649644.6695732514
0.8345197813860912	1674671.748590209
0.8347284113314379	1703246.4185811386
0.8349370934342709	1715733.146080229
0.8351458277076294	1656589.2732829046
0.8353546141645565	1730009.6063770265
0.8355634528180977	1686202.7378200137
0.8357723436813022	1712061.6402930818
0.8359812867672226	1678966.2129108806
0.8361902820889144	1801559.929572181
0.8363993296594368	1683918.52856733
0.8366084294918518	1809780.1183965541
0.8368175815992247	1812118.8931171615
0.8370267859946247	1802115.9909537914
0.8372360426911234	1874302.0254937024
0.8374453517017962	1899024.089983261
0.8376547130397217	1847925.142377245
0.8378641267179816	1839387.2088970765
0.8380735927496613	1936423.46537988
0.8382831111478488	1969123.0851592794
0.8384926819256358	1986491.5699380182
0.8387023050961173	1963716.216308331
0.8389119806723914	1969752.3650194823
0.8391217086675596	2051728.893351655
0.8393314890947265	2081698.6383517776
0.8395413219670003	2076930.0129179135
0.8397512072974922	2091362.8419285845
0.8399611450993165	2063810.906610031
0.8401711353855914	2099507.498379523
0.8403811781694378	2144112.26891672
0.8405912734639802	2114257.9771933304
0.8408014212823464	2116327.7046326515
0.8410116216376671	2180360.237755203
0.8412218745430766	2225103.8187738294
0.8414321800117124	2253919.3038441725
0.8416425380567154	2226075.7063054233
0.8418529486912297	2264256.5479709664
0.8420634119284025	2189107.7395117753
0.8422739277813847	2295775.7668184326
0.8424844962633302	2321026.1952563543
0.842695117387396	2374176.859636371
0.8429057911667428	2381941.0678411373
0.8431165176145345	2350015.9971804493
0.8433272967439382	2409611.1643983116
0.8435381285681244	2409813.6754857656
0.8437490131002665	2424226.7536192467
0.8439599503535415	2488541.8820726094
0.84417094034113	2459606.0997207733
0.8443819830762154	2438047.6701912144
0.8445930785719846	2527087.9430831294
0.8448042268416277	2553799.069707222
0.8450154278983382	2561749.2058153907
0.8452266817553128	2576392.1539246277
0.8454379884257517	2591739.363223763
0.8456493479228583	2536186.465272614
0.845860760259839	2662133.4515305213
0.846072225449904	2712048.510146231
0.8462837435062666	2708114.723744365
0.8464953144421433	2641823.080935418
0.8467069382707537	2700941.659555698
0.8469186150053215	2774748.8362193764
0.847130344659073	2752776.220718313
0.8473421272452377	2794762.410051653
0.8475539627770492	2801810.029224295
0.8477658512677435	2823757.287745869
0.8479777927305605	2870623.6894701044
0.8481897871787432	2888573.720952086
0.848401834625538	2914921.9829157703
0.8486139350841944	2921118.646332725
0.8488260885679657	2911256.2672959263
0.8490382950901076	2926217.2968356004
0.8492505546638802	2980578.1846860284
0.8494628673025462	2946203.738347466
0.8496752330193721	3017028.107140605
0.8498876518276269	2987100.241953764
0.8501001237405839	2954700.1470514047
0.8503126487715191	2970186.231815643
0.850525226933712	2961223.4780814718
0.8507378582404455	2915928.267621325
0.8509505427050057	2817642.6762962663
0.8511632803406821	2710449.619737152
0.8513760711607672	2433357.7726324326
0.8515889151785576	2001746.927688841
0.8518018124073523	1225683.489626539
0.8520147628604541	315064.99539486394
0.8522277665511693	369557.5237228901
0.8524408234928071	1319565.572542743
0.8526539336986805	2107424.884962766
0.8528670971821053	2587261.5338037834
0.8530803139564007	2881436.8693553694
0.8532935840348901	3053824.5240871296
0.8535069074308987	3225007.970099198
0.8537202841577566	3317617.067647362
0.8539337142287962	3373760.030194195
0.8541471976573534	3425693.119167327
0.8543607344567677	3511912.3861655076
0.8545743246403821	3569359.486368522
0.8547879682215422	3585935.4524116553
0.8550016652135977	3635115.1636628904
0.8552154156299011	3655551.048537119
0.8554292194838088	3690441.4442755133
0.8556430767886797	3705164.745493388
0.855856987557877	3779106.0704392777
0.8560709518047664	3821839.9808929246
0.8562849695427177	3857122.0822309544
0.8564990407851035	3852646.38046436
0.8567131655452999	3907780.8173509734
0.8569273438366862	3959515.1072703027
0.8571415756726455	3981209.829648981
0.8573558610665638	3995940.1307774736
0.8575702000318304	3982067.169555931
0.8577845925818384	4046354.7830634913
0.857999038729984	4108982.2754762033
0.8582135384896665	4129012.1284825807
0.858428091874289	4137753.950831911
0.8586426988972576	4179565.8693267466
0.8588573595719821	4198143.674052399
0.8590720739118751	4224294.622444445
0.8592868419303532	4260238.255758689
0.8595016636408359	4300805.072187529
0.8597165390567462	4335466.433447638
0.8599314681915105	4336084.155640609
0.8601464510585584	4354972.736536602
0.860361487671323	4399014.967998129
0.8605765780432408	4423744.829166232
0.8607917221877518	4439214.300746515
0.8610069201182988	4436019.400228219
0.8612221718483286	4152700.65196163
0.8614374773912907	3373977.066228828
0.8616528367606385	3681020.459830199
0.8618682499698288	3368400.784129297
0.8620837170323213	3339091.731360209
0.8622992379615795	3622543.6337621794
0.8625148127710699	3599168.396551473
0.8627304414742627	3349680.4465931333
0.8629461240846313	4065251.3109792504
0.8631618606156526	3465031.77402307
0.8633776510808066	3396201.3264445346
0.8635934954935769	3503333.5036674584
0.8638093938674504	3641962.936547572
0.8640253462159173	3762675.6823712187
0.8642413525524714	3630229.6576097095
0.8644574128906095	3933570.2179580647
0.8646735272438323	3979296.45089804
0.8648896956256433	3546150.19807035
0.8651059180495498	4123027.134373579
0.8653221945290621	3878970.6341653974
0.8655385250776946	4605173.501687423
0.8657549097089641	4205848.006071828
0.8659713484363913	4204199.331697565
0.8661878412735006	4332389.742076707
0.866404388233819	4392927.403366462
0.8666209893308775	4154269.3174621295
0.8668376445782103	4887526.454057561
0.8670543539893549	4424621.031151146
0.8672711175778525	4405483.503310922
0.8674879353572469	4415798.627531189
0.8677048073410862	4695581.5436579855
0.8679217335429217	4842124.679458345
0.8681387139763074	4730486.166482763
0.8683557486548015	4361575.210495976
0.8685728375919655	4259321.334053812
0.8687899808013633	4875390.875956466
0.8690071782965637	5060120.429415482
0.869224430091138	5232910.887999729
0.8694417361986609	5043724.892135474
0.8696590966327107	4346372.343801429
0.869876511406869	4591075.398437146
0.8700939805347206	4923649.357191294
0.8703115040298544	5037971.013445986
0.870529081905862	4714239.998219623
0.8707467141763385	5016118.267752652
0.8709644008548827	4633778.873274718
0.8711821419550964	4576130.721396389
0.8713999374905854	4639218.359706785
0.871617787474958	5190980.081982913
0.8718356919218269	5077004.373543942
0.8720536508448075	4660524.241048319
0.8722716642575187	4890477.593127678
0.8724897321735832	4730823.778656152
0.8727078546066265	5322776.671510539
0.8729260315702784	4876011.5466700895
0.873144263078171	5190111.057724239
0.8733625491439405	5352877.713661779
0.8735808897812266	4664834.970790916
0.8737992850036719	5101782.145042382
0.874017734824923	5206968.109637604
0.8742362392586293	5548599.520401445
0.874454798318444	5567271.562882641
0.8746734120180236	5592491.662550075
0.8748920803710283	5757715.11237239
0.875110803391121	5385103.302097508
0.8753295810919689	5180652.848371889
0.875548413487242	5871829.535864566
0.8757673005906139	5766963.880065484
0.8759862424157616	5986373.4863569
0.8762052389763657	6009542.285629578
0.8764242902861098	5693724.141122623
0.8766433963586814	6057603.614049151
0.8768625572077712	5415708.986505382
0.8770817728470732	5165176.973788564
0.8773010432902849	6075874.070173451
0.8775203685511077	5866089.918259878
0.8777397486432454	6688582.015881361
0.8779591835804065	6453611.010804083
0.8781786733763015	5725262.622990383
0.8783982180446457	6047597.455755969
0.878617817599157	6294319.987677149
0.8788374720535569	5560116.724939209
0.8790571814215703	5962962.054690707
0.8792769457169257	6187571.252675093
0.879496764953355	6128592.669436912
0.8797166391445934	7027768.449648302
0.8799365683043796	6918488.752319352
0.8801565524464557	6178306.787941677
0.8803765915845676	5873467.7433232255
0.8805966857324639	6329657.060465128
0.880816834903897	5777304.369658617
0.881037039112623	6413456.542558555
0.8812572983724012	6373924.805877967
0.8814776126969944	6255316.390747226
0.8816979821001687	6577829.171492999
0.8819184065956938	7114217.232186986
0.8821388861973429	6714181.273988717
0.8823594209188923	6017572.779095754
0.882580010774122	6050761.44486761
0.8828006557768155	6158898.962465573
0.8830213559407598	5904884.996355611
0.8832421112797452	6971536.058671589
0.8834629218075651	6054037.370194826
0.8836837875380171	5966968.232414707
0.8839047084849018	6632265.721624425
0.884125684662023	7234602.476877522
0.8843467160831886	7343908.239271314
0.8845678027622095	7246614.5123092355
0.8847889447129001	5789813.6841461975
0.8850101419490785	6416276.889579455
0.8852313944845657	6727847.460506414
0.885452702333187	7870921.830454102
0.8856740655087704	7431862.218932527
0.8858954840251476	6351118.390454303
0.8861169578961539	6401383.314741969
0.886338487135628	7778986.702156939
0.886560071757412	7694138.2132211765
0.8867817117753515	7388595.0261714235
0.8870034072032955	6845466.395015817
0.8872251580550963	5680429.803159379
0.8874469643446101	6129533.53553592
0.8876688260856963	6495556.270624116
0.8878907432922178	7515571.1313206125
0.8881127159780409	7843141.559524774
0.8883347441570356	7511060.020463701
0.8885568278430749	5868873.879336166
0.8887789670500358	7355152.356452088
0.8890011617917983	7726304.491670447
0.8892234120822464	8397370.683847234
0.8894457179352669	8123250.3814653475
0.8896680793647509	6978127.613335657
0.8898904963845921	6178734.957707151
0.8901129690086883	7429390.069277962
0.8903354972509405	8371443.431134575
0.8905580811252535	8309467.738558844
0.8907807206455347	7849238.881491891
0.8910034158256963	7347596.6398816835
0.8912261666796527	6343633.203230181
0.8914489732213227	7621162.591674421
0.8916718354646282	8074950.550860144
0.8918947534234944	7204629.953994693
0.8921177271118502	6628564.243005064
0.8923407565436284	7385640.020726054
0.8925638417327644	5936521.976310308
0.8927869826931977	6999724.511405417
0.8930101794388711	6827127.416162683
0.8932334319837308	6639599.695046943
0.8934567403417267	6553387.850031796
0.8936801045268123	5135314.518413378
0.8939035245529441	3845886.7240330805
0.8941270004340824	1823245.1374419343
0.894350532184191	385138.0377065369
0.8945741198172371	1949844.8344846582
0.8947977633471915	3988004.3113792385
0.8950214627880284	5577439.161037302
0.8952452181537254	6375185.4404075015
0.8954690294582639	5777214.870230812
0.8956928967156286	6723274.295671153
0.8959168199398075	8039822.940812957
0.8961407991447926	8720753.658596883
0.8963648343445789	8556827.48235532
0.896588925553165	7242166.19780853
0.8968130727845534	7041985.60075963
0.8970372760527496	7818054.755431961
0.8972615353717629	8399772.687154587
0.8974858507556059	8100611.480094685
0.8977102222182949	8953521.386518065
0.8979346497738496	9909564.694227431
0.8981591334362931	9067564.544918941
0.8983836732196523	7642822.039580428
0.8986082691379572	9219649.179784639
0.8988329212052417	9420070.372824932
0.8990576294355432	8653939.419505494
0.8992823938429022	8916365.253061626
0.8995072144413631	9634902.087972043
0.8997320912449734	9382610.710948415
0.8999570242677847	9366112.891501259
0.9001820135238516	8312164.512589472
0.9004070590272328	10077319.557499416
0.9006321607919896	10592070.982530247
0.9008573188321878	10593956.63951119
0.9010825331618959	9939731.159757013
0.9013078037951865	9745561.153606463
0.9015331307461353	10123018.681215044
0.9017585140288219	9936505.48858833
0.9019839536573292	10958014.543900859
0.9022094496457435	12013341.531622361
0.9024350020081551	11327895.773853155
0.9026606107586572	11619825.128815036
0.902886275911347	9739617.276738374
0.9031119974803249	10123570.434356434
0.9033377754796951	10870126.335448183
0.903563609923565	11802838.725001408
0.903789500826046	12804075.729266658
0.9040154482012526	13023701.191963723
0.904241452063303	11894148.543447433
0.9044675124263188	10968328.534173133
0.9046936293044254	11647788.557890603
0.9049198027117517	11543292.554338852
0.9051460326624297	12593069.16883479
0.9053723191705955	13149344.215782592
0.9055986622503881	12397125.039331503
0.9058250619159507	12903375.002302764
0.9060515181814298	11614089.376413863
0.9062780310609752	12162857.449988335
0.9065046005687405	12278070.845349748
0.906731226718883	12421614.290213216
0.9069579095255627	13332886.203582397
0.907184649002944	12277460.610909874
0.907411445165195	12446639.593465723
0.9076382980264862	12371947.644097364
0.907865207600993	12881462.365876313
0.9080921739028933	12505469.241837244
0.9083191969463691	11391682.557910923
0.9085462767456058	13476849.686333135
0.9087734133147922	13872834.591323012
0.9090006066681211	12679950.971309235
0.909227856819788	13314644.087108288
0.9094551637839932	13015920.029728478
0.9096825275749393	13666492.264990794
0.9099099482068329	13091758.501774319
0.9101374256938848	13118193.145459207
0.9103649600503083	13168217.432944203
0.9105925512903209	14873649.75413603
0.9108201994281437	11582150.237462578
0.9110479044780008	11982569.247861382
0.9112756664541204	14094188.54132823
0.911503485370734	13881450.00576725
0.9117313612420768	14609662.63285511
0.9119592940823873	13102094.38598995
0.912187283905908	14394759.698475285
0.9124153307268845	15075032.425400756
0.9126434345595664	15223979.884126585
0.9128715954182063	13607356.59367075
0.9130998133170609	11663287.898154007
0.9133280882703902	12697892.813538691
0.913556420292458	14805501.220378017
0.9137848093975312	13642398.174504431
0.9140132555998806	13513142.494075181
0.9142417589137806	15248075.676437644
0.9144703193535092	13605522.016257841
