#wavelength	surface flux
0.8	440422.6459353229
0.8002000000000001	448392.2102654454
0.8004000500000003	456483.44314906903
0.8006001500125003	464364.03339834214
0.8008003000500035	472729.9090637651
0.8010005001250161	480616.3755412184
0.8012007502500472	490073.2446876318
0.8014010504376099	497490.1487485451
0.8016014007002193	505174.5500936653
0.8018018010503944	514740.1853119113
0.8020022515006572	521655.06677307095
0.8022027520635323	531062.0176464199
0.8024033027515483	540449.1007732308
0.8026039035772362	548055.6109006162
0.8028045545531306	557839.0116385944
0.8030052556917691	565576.014699862
0.803206007005692	575451.7078266065
0.8034068085074435	583720.4233494689
0.8036076602095705	595075.5805265089
0.8038085621246229	604998.8981831634
0.8040095142651542	614756.8366920125
0.8042105166437206	620842.2794818005
0.8044115692728815	631676.665881225
0.8046126721651998	640515.0842868763
0.8048138253332411	652309.8378691196
0.8050150287895745	663901.2510278961
0.805216282546772	672727.7370416503
0.8054175866174087	679276.2739909029
0.8056189410140631	691655.2443483816
0.8058203457493168	700763.1533717574
0.8060218008357541	713780.4552095465
0.8062233062859632	717103.3192418417
0.8064248621125346	731639.560176001
0.806626468328063	744907.7839943853
0.8068281249451449	754112.3648913953
0.8070298319763813	762534.3500816257
0.8072315894343755	770624.8040995301
0.8074333973317341	785723.7957786521
0.8076352556810671	798400.1809715722
0.8078371644949874	807935.8406224028
0.8080391237861113	824240.5892063528
0.8082411335670578	829131.7616190633
0.8084431938504498	838827.769006862
0.8086453046489125	851556.1084809925
0.8088474659750746	859740.2765225136
0.8090496778415686	870598.5438518744
0.809251940261029	869548.150043036
0.8094542532460944	898887.7397092574
0.8096566168094059	910997.7971211887
0.8098590309636085	921574.987621514
0.8100614957213493	913200.6861407313
0.8102640110952797	937358.5506909497
0.8104665770980536	945422.4885387188
0.8106691937423283	963624.4342017558
0.8108718610407639	966726.3676474775
0.8110745790060241	977380.7167132341
0.8112773476507757	1000775.633784107
0.8114801669876885	1003051.0708924839
0.8116830370294355	1010867.7848220885
0.8118859577886929	1053856.3455548836
0.8120889292781401	1049817.789534852
0.8122919515104597	1048069.9068112056
0.8124950244983374	1046268.3313196868
0.8126981482544621	1091902.8773722954
0.8129013227915257	1110993.53513045
0.8131045481222237	1121745.1966035413
0.8133078242592543	1118602.4116234952
0.8135111512153191	1133142.413149829
0.813714529003123	1137692.1158191033
0.8139179576353739	1169013.802446845
0.8141214371247829	1179351.064672695
0.8143249674840641	1164041.635084042
0.814528548725935	1214777.0809542034
0.8147321808631167	1239007.3743782807
0.8149358639083326	1233788.9060122813
0.8151395978743097	1209296.6094030812
0.8153433827737784	1283151.2951518467
0.8155472186194719	1274871.487089105
0.8157511054241268	1293110.6345610595
0.815955043200483	1325873.6015611938
0.8161590319612831	1347849.828817732
0.8163630717192736	1303950.3614475403
0.8165671624872033	1364503.6526173025
0.8167713042778252	1385250.6598134856
0.8169754971038948	1416567.3233262477
0.8171797409781707	1371001.8117852844
0.8173840359134155	1453407.3132860519
0.8175883819223938	1464725.537928746
0.8177927790178745	1475826.5470166786
0.8179972272126291	1454412.1120151514
0.8182017265194322	1398214.670395915
0.8184062769510622	1335487.0423615768
0.8186108785203001	1517475.4177572622
0.8188155312399301	1522416.5838936171
0.8190202351227402	1538087.0741146253
0.819224990181521	1462329.0820747719
0.8194297964290664	1190783.004941504
0.8196346538781738	1382626.0037100594
0.8198395625416434	1590893.3984207409
0.8200445224322789	1627762.393991577
0.820249533562887	1673745.618257176
0.8204545959462778	1699504.6477744007
0.8206597095952644	1720388.802519581
0.8208648745226633	1744264.5601788166
0.8210700907412941	1761881.8776650338
0.8212753582639793	1783613.5561311056
0.8214806771035456	1805589.4915109617
0.8216860472728215	1824265.6276431703
0.8218914687846397	1836877.8701127062
0.822096941651836	1861345.965006275
0.822302465887249	1884912.5310772108
0.8225080415037209	1907718.5579339024
0.8227136685140968	1874991.1318183995
0.8229193469312254	1803704.9490280033
0.8231250767679583	1809204.6389160727
0.8233308580371503	1921402.460998036
0.8235366907516598	1940894.2245720108
0.8237425749243477	1995843.8810688995
0.8239485105680789	2009583.9657699035
0.824154497695721	2044403.1307668767
0.824360536320145	2042074.1850181308
0.8245666264542252	2015452.2079144702
0.8247727681108388	2134297.5840185396
0.8249789613028664	2151425.104377284
0.8251852060431922	2176784.439321616
0.825391502344703	2212180.957434442
0.8255978502202894	2230981.9660159405
0.8258042496828445	2235719.348637003
0.8260107007452654	2274039.66935114
0.8262172034204517	2238243.2960206615
0.8264237577213068	2289348.182847091
0.8266303636607373	2326094.711930394
0.8268370212516525	2366232.86088758
0.8270437305069654	2386887.316705666
0.8272504914395923	2402359.476959491
0.8274573040624523	2394173.205908907
0.8276641683884679	2431693.301963176
0.8278710844305652	2449344.8137271325
0.8280780522016729	2500534.7091626213
0.8282850717147234	2502994.608510576
0.8284921429826521	2543550.561935878
0.8286992660183978	2569370.7690852
0.8289064408349024	2559469.5904720793
0.8291136674451112	2561102.9847137006
0.8293209458619727	2617749.7698075385
0.8295282760984382	2599247.4797324473
0.829735658167463	2546765.555071322
0.8299430920820048	2684896.8037059586
0.8301505778550254	2728110.728982302
0.8303581154994891	2745823.4056974524
0.8305657050283641	2783756.0511647216
0.8307733464546212	2733476.4603072917
0.8309810397912352	2832649.5449865106
0.8311887850511829	2873556.4235441764
0.8313965822474458	2832516.6051488556
0.8316044313930077	2911968.022608474
0.8318123325008561	2934252.937061155
0.8320202855839813	2936368.0481602103
0.8322282906553774	2984101.2252636617
0.8324363477280413	2977592.814283712
0.8326444568149735	3067405.640410671
0.8328526179291771	3098987.149595092
0.8330608310836596	3080441.9083639937
0.8332690962914304	3057261.9292194825
0.8334774135655034	3109347.595408502
0.833685782918895	3140927.7012339863
0.8338942043646247	3222215.180699937
0.834102677915716	3167784.469605742
0.834311203585195	3259096.4247710025
0.8345197813860912	3303708.080007318
0.8347284113314379	3351123.2077895305
0.8349370934342709	3376884.89274839
0.8351458277076294	3275780.4865003214
0.8353546141645565	3402028.3100960036
0.8355634528180977	3336909.753410863
0.8357723436813022	3377163.863319721
0.8359812867672226	3326064.070943491
0.8361902820889144	3530917.459936134
0.8363993296594368	3336983.8977357647
0.8366084294918518	3552574.7171571283
0.8368175815992247	3557256.7691262234
0.8370267859946247	3542903.797908193
0.8372360426911234	3671933.154020398
0.8374453517017962	3714843.5398112885
0.8376547130397217	3632216.097033747
0.8378641267179816	3621101.227080202
0.8380735927496613	3782040.7371355845
0.8382831111478488	3836735.657183222
0.8384926819256358	3870594.3476197193
0.8387023050961173	3839194.9980525845
0.8389119806723914	3851209.446171888
0.8391217086675596	3986033.474420318
0.8393314890947265	4037393.1465876307
0.8395413219670003	4036256.2555876533
0.8397512072974922	4064476.709997751
0.8399611450993165	4028468.603426961
0.8401711353855914	4081575.1179252993
0.8403811781694378	4157507.9060996496
0.8405912734639802	4110870.9124739277
0.8408014212823464	4121059.7268735194
0.8410116216376671	4228554.670619245
0.8412218745430766	4300245.482809931
0.8414321800117124	4350898.552094336
0.8416425380567154	4311474.654827208
0.8418529486912297	4374498.875684919
0.8420634119284025	4256987.736687703
0.8422739277813847	4427903.576289588
0.8424844962633302	4467512.367254054
0.842695117387396	4564059.787028181
0.8429057911667428	4581651.669730632
0.8431165176145345	4532790.464032339
0.8433272967439382	4631975.768627144
0.8435381285681244	4630636.0733821895
0.8437490131002665	4651335.034093064
0.8439599503535415	4762313.584747674
0.84417094034113	4718346.196791887
0.8443819830762154	4689503.281907264
0.8445930785719846	4834263.984170025
0.8448042268416277	4879548.157760919
0.8450154278983382	4901134.305305898
0.8452266817553128	4921610.118489448
0.8454379884257517	4948542.299387638
0.8456493479228583	4850147.952443909
0.845860760259839	5064057.029567123
0.846072225449904	5149851.60191493
0.8462837435062666	5150874.350677529
0.8464953144421433	5038312.152272874
0.8467069382707537	5134741.690166464
0.8469186150053215	5263147.855728552
0.847130344659073	5226581.559358363
0.8473421272452377	5298204.720691319
0.8475539627770492	5310823.238738499
0.8477658512677435	5349805.148782208
0.8479777927305605	5429271.844490853
0.8481897871787432	5459373.771586853
0.848401834625538	5504026.781165734
0.8486139350841944	5516077.620314455
0.8488260885679657	5504569.98535206
0.8490382950901076	5528784.729261244
0.8492505546638802	5614600.435052085
0.8494628673025462	5548472.619068436
0.8496752330193721	5670015.388073722
0.8498876518276269	5619972.059621727
0.8501001237405839	5557309.248100556
0.8503126487715191	5574064.451251512
0.850525226933712	5549781.32833868
0.8507378582404455	5452657.7842068365
0.8509505427050057	5259443.183982407
0.8511632803406821	5044535.743853578
0.8513760711607672	4515429.484004983
0.8515889151785576	3691291.56556556
0.8518018124073523	2253128.602052542
0.8520147628604541	568700.2479839252
0.8522277665511693	669463.2952629158
0.8524408234928071	2419566.757446055
0.8526539336986805	3876355.477022773
0.8528670971821053	4779303.771289744
0.8530803139564007	5338349.897126288
0.8532935840348901	5667579.462641836
0.8535069074308987	5987164.449169289
0.8537202841577566	6163566.724683745
0.8539337142287962	6277418.865044346
0.8541471976573534	6371356.4894378185
0.8543607344567677	6505808.226397829
0.8545743246403821	6620895.173987673
0.8547879682215422	6650315.834562465
0.8550016652135977	6744614.042111453
0.8552154156299011	6781633.217129143
0.8554292194838088	6845151.372459954
0.8556430767886797	6867019.007980586
0.855856987557877	6998604.820473486
0.8560709518047664	7070710.629099856
0.8562849695427177	7137243.579044855
0.8564990407851035	7137875.026492307
0.8567131655452999	7229856.431978046
0.8569273438366862	7316741.884032075
0.8571415756726455	7352095.989737161
0.8573558610665638	7355624.52964332
0.8575702000318304	7341599.872483223
0.8577845925818384	7459635.550848281
0.857999038729984	7570516.232390231
0.8582135384896665	7608274.209142334
0.858428091874289	7622588.596476049
0.8586426988972576	7693408.356312491
0.8588573595719821	7715864.157673335
0.8590720739118751	7752502.598942706
0.8592868419303532	7821277.134623042
0.8595016636408359	7885195.147402931
0.8597165390567462	7946128.347441927
0.8599314681915105	7945849.827101969
0.8601464510585584	7968199.432574892
0.860361487671323	8054237.896132854
0.8605765780432408	8092017.915047292
0.8607917221877518	8113067.081906883
0.8610069201182988	8065663.684445431
0.8612221718483286	7353096.174428888
0.8614374773912907	5378948.894884344
0.8616528367606385	6114062.801757205
0.8618682499698288	5308041.390111597
0.8620837170323213	5265192.858867761
0.8622992379615795	5906584.831341653
0.8625148127710699	5891119.082463299
0.8627304414742627	5216599.28673446
0.8629461240846313	6927499.022568353
0.8631618606156526	5453703.351801149
0.8633776510808066	5220115.725347265
0.8635934954935769	5467129.552761339
0.8638093938674504	5770357.524873324
0.8640253462159173	6072637.027800128
0.8642413525524714	5738726.466415884
0.8644574128906095	6425709.081747755
0.8646735272438323	6534281.705096979
0.8648896956256433	5465315.490163445
0.8651059180495498	6802430.696917265
0.8653221945290621	6245459.448839727
0.8655385250776946	7938189.885757192
0.8657549097089641	6966771.955325378
0.8659713484363913	6921273.913347975
0.8661878412735006	7179882.418360657
0.866404388233819	7303524.0953208115
0.8666209893308775	6703278.200598247
0.8668376445782103	8470849.686101833
0.8670543539893549	7352604.858902103
0.8672711175778525	7217218.2968594
0.8674879353572469	7272023.710171383
0.8677048073410862	7867164.25174844
0.8679217335429217	8205286.414090527
0.8681387139763074	7932956.171010704
0.8683557486548015	6984197.976846077
0.8685728375919655	6736327.186744941
0.8687899808013633	8154751.782793235
0.8690071782965637	8603386.675019806
0.869224430091138	8977346.638050532
0.8694417361986609	8473205.880050316
0.8696590966327107	6876334.889339871
0.869876511406869	7371776.338849044
0.8700939805347206	8098407.349398473
0.8703115040298544	8335415.576803388
0.870529081905862	7562273.742331109
0.8707467141763385	8289401.638628091
0.8709644008548827	7382254.177957736
0.8711821419550964	7133070.259011932
0.8713999374905854	7244614.703496291
0.871617787474958	8460326.687359642
0.8718356919218269	8212762.538182412
0.8720536508448075	7197213.218299528
0.8722716642575187	7828000.73742793
0.8724897321735832	7393858.194137734
0.8727078546066265	8724140.775174553
0.8729260315702784	7641319.053857898
0.873144263078171	8358541.442955898
0.8733625491439405	8699201.950269477
0.8735808897812266	7078755.159087416
0.8737992850036719	8082712.712693937
0.874017734824923	8366116.6218487555
0.8742362392586293	8989851.867976902
0.874454798318444	9074338.379097665
0.8746734120180236	9121828.530919868
0.8748920803710283	9461375.557341333
0.875110803391121	8580449.590811523
0.8753295810919689	8191249.673224898
0.875548413487242	9738352.640080357
0.8757673005906139	9465726.332158966
0.8759862424157616	9873334.631384032
0.8762052389763657	9943723.08767224
0.8764242902861098	9223073.38878706
0.8766433963586814	9892295.276232222
0.8768625572077712	8504735.35922061
0.8770817728470732	7951092.777739667
0.8773010432902849	9970878.494512012
0.8775203685511077	9494202.46030259
0.8777397486432454	11240701.94749422
0.8779591835804065	10784107.99376829
0.8781786733763015	9156828.6426212
0.8783982180446457	9773566.297922513
0.878617817599157	10323026.758556293
0.8788374720535569	8711736.77269361
0.8790571814215703	9512154.434494212
0.8792769457169257	9883823.54641723
0.879496764953355	9863638.221573167
0.8797166391445934	11908699.344632445
0.8799365683043796	11625208.703645905
0.8801565524464557	9984406.900648855
0.8803765915845676	9221221.79479104
0.8805966857324639	10231530.277288398
0.880816834903897	9154616.882584453
0.881037039112623	10579678.839821791
0.8812572983724012	10453638.76572496
0.8814776126969944	10166139.513876205
0.8816979821001687	10953200.85378593
0.8819184065956938	12280308.200150846
0.8821388861973429	11406552.242289865
0.8823594209188923	9888705.339974727
0.882580010774122	9973270.960448138
0.8828006557768155	10233306.295005783
0.8830213559407598	9642947.959067924
0.8832421112797452	12210623.07633624
0.8834629218075651	10066481.028901724
0.8836837875380171	9835522.826888097
0.8839047084849018	11334861.47753929
0.884125684662023	12638786.1927328
0.8843467160831886	12759069.883088097
0.8845678027622095	12379868.380063104
0.8847889447129001	9099409.82779629
0.8850101419490785	10374374.161930323
0.8852313944845657	11078310.019993993
0.885452702333187	13669148.537009554
0.8856740655087704	12556926.91650829
0.8858954840251476	10187685.56586152
0.8861169578961539	10412666.738941735
0.886338487135628	13564694.966243926
0.886560071757412	13333019.897360066
0.8867817117753515	12884755.049496075
0.8870034072032955	11729871.505278422
0.8872251580550963	9197407.921835998
0.8874469643446101	10214796.286518672
0.8876688260856963	10936519.941167127
0.8878907432922178	13242690.475320172
0.8881127159780409	13952873.774955453
0.8883347441570356	13031186.887935856
0.8885568278430749	9302527.897040252
0.8887789670500358	12444489.976972066
0.8890011617917983	13307808.907370739
0.8892234120822464	14672689.997541117
0.8894457179352669	13960240.51952444
0.8896680793647509	11333807.33996409
0.8898904963845921	9751946.223439021
0.8901129690086883	12492728.614958541
0.8903354972509405	14700561.681609552
0.8905580811252535	14490468.203804897
0.8907807206455347	13474433.439569393
0.8910034158256963	12473458.177763386
0.8912261666796527	10350414.276712941
0.8914489732213227	13187820.677789122
0.8916718354646282	14315153.224325446
0.8918947534234944	12288446.287874209
0.8921177271118502	11084256.909054482
0.8923407565436284	12765026.399379479
0.8925638417327644	9712060.209237317
0.8927869826931977	12078266.78736133
0.8930101794388711	11821848.213466587
0.8932334319837308	11691626.133419333
0.8934567403417267	11706841.253329966
0.8936801045268123	9278609.949571183
0.8939035245529441	6569476.735651889
0.8941270004340824	3098816.4166438975
0.894350532184191	672466.4810012992
0.8945741198172371	3434435.26837586
0.8947977633471915	6988783.608733398
0.8950214627880284	9959588.608058916
0.8952452181537254	11018060.745499766
0.8954690294582639	9457106.98401038
0.8956928967156286	11983332.136754671
0.8959168199398075	14212040.472871268
0.8961407991447926	15357793.326407894
0.8963648343445789	15125369.561320059
0.896588925553165	12576275.913230905
0.8968130727845534	11567501.69142008
0.8970372760527496	12723404.32437989
0.8972615353717629	14447191.522809202
0.8974858507556059	13937165.768924048
0.8977102222182949	15210819.952815443
0.8979346497738496	16916215.459708378
0.8981591334362931	15191051.338818142
0.8983836732196523	12468962.371610533
0.8986082691379572	15430134.098044064
0.8988329212052417	16539219.525343906
0.8990576294355432	15272916.823241286
0.8992823938429022	15844475.828368895
0.8995072144413631	16844016.48672806
0.8997320912449734	15304176.492504813
0.8999570242677847	15219458.177108334
0.9001820135238516	13536993.997177659
0.9004070590272328	16958166.866468213
0.9006321607919896	18017295.01670779
0.9008573188321878	18229709.525396634
0.9010825331618959	17066784.40870805
0.9013078037951865	15809221.765584875
0.9015331307461353	16498943.86818885
0.9017585140288219	16266915.45259036
0.9019839536573292	18791001.86783837
0.9022094496457435	20071024.15220018
0.9024350020081551	19088725.173532665
0.9026606107586572	19506600.293630697
0.902886275911347	15386373.131113866
0.9031119974803249	15926994.480563546
0.9033377754796951	17589402.697057333
0.903563609923565	19422735.04620106
0.903789500826046	21609885.296871107
0.9040154482012526	21941952.91555858
0.904241452063303	19556850.098729596
0.9044675124263188	17625958.41573618
0.9046936293044254	18835137.747627646
0.9049198027117517	18733480.614363458
0.9051460326624297	20825653.659036133
0.9053723191705955	21893797.23196355
0.9055986622503881	20222341.88263719
0.9058250619159507	21092237.26722571
0.9060515181814298	18351072.838472627
0.9062780310609752	19671621.40260157
0.9065046005687405	20056630.954993285
0.906731226718883	20165815.707035083
0.9069579095255627	21968403.068624534
0.907184649002944	20187530.860864494
0.907411445165195	20709772.178463757
0.9076382980264862	20091050.003936257
0.907865207600993	20755716.344397325
0.9080921739028933	20552088.53832455
0.9083191969463691	18389926.203501973
0.9085462767456058	21766792.85462716
0.9087734133147922	23087609.085182443
0.9090006066681211	21099499.78287078
0.909227856819788	21672564.133711983
0.9094551637839932	21117703.13671907
0.9096825275749393	22556385.491992246
0.9099099482068329	21151676.3084789
0.9101374256938848	21462814.11448363
0.9103649600503083	21415443.271937575
0.9105925512903209	24882563.41128709
0.9108201994281437	19702518.818651706
0.9110479044780008	19823315.83577233
0.9112756664541204	22977707.170350574
0.911503485370734	22502879.64162846
0.9117313612420768	24135044.88533207
0.9119592940823873	21088204.572497476
0.912187283905908	24093139.37644962
0.9124153307268845	24788720.70875898
0.9126434345595664	25067380.93054217
0.9128715954182063	22162467.26833437
0.9130998133170609	19935776.268646915
0.9133280882703902	21175532.426264904
0.913556420292458	24642634.772997208
0.9137848093975312	23037953.76145204
0.9140132555998806	22178932.26547776
0.9142417589137806	24847822.300262567
0.9144703193535092	21919619.518070877
0.9146989369333476	25864102.722267285
