#wavelength	surface flux
0.676892	75228.67917372286
0.678297	79562.2743968927
0.679702	83702.29636421615
0.681109	87664.03563736432
0.682517	91325.06250333865
0.683926	94854.86017502555
0.685337	98106.38791547003
0.686749	100946.76001132841
0.688164	103396.30733397834
0.689581	105277.16226082134
0.691	105887.31587671686
0.692422	105660.42923978111
0.693847	106568.1003998161
0.695274	107922.59307450586
0.696705	108334.42895359728
0.698139	108407.80515927916
0.699576	107278.9557286023
0.701017	105790.49220850864
0.702461	103604.89072678518
0.70391	101998.0594174933
0.705362	99288.16219678304
0.706819	96449.69501204902
0.70828	93436.75553800813
0.709745	89480.79896269293
0.711216	85526.47008158934
0.71269	81573.45458820762
0.71417	77479.38159610945
0.715655	71189.05064106951
0.717145	64950.15353877126
0.71864	59913.11277627545
0.72014	56789.13477504688
0.721647	53327.14706531119
0.723158	50857.986474918514
0.724676	46224.24385484956
0.726199	41638.84413606306
0.727728	36242.766231902955
0.729264	34806.55612911116
0.730805	31060.71258171551
0.732353	29405.839778970163
0.733907	26499.62723332262
0.735468	22783.19316361494
0.737035	21340.612116086777
0.738609	18991.050967445004
0.74019	16901.69796636957
0.741777	14924.73134423003
0.743372	13221.891060049535
0.744973	11598.919980371898
0.746582	10122.154146108434
0.748197	8792.930553598362
0.74982	7712.505556937004
0.751451	6720.26093338357
0.753088	5860.4312903896
0.754734	5117.238925833408
0.756386	4466.839596867317
0.758047	3886.8696791740886
0.759715	3340.5736394746514
0.76139	2775.2034159895356
0.763074	2127.1801090936515
0.764765	1243.9726901839447
0.766464	412.2593233956753
0.768172	877.2881301349435
0.769887	612.1213248520164
0.77161	1800.4386893625199
0.773341	3050.054537018082
0.775081	4082.2420532059564
0.776829	5110.742105345316
0.778585	5811.819932513099
0.780349	5908.552124308224
0.782121	8944.602312225305
0.783902	10996.040594344457
0.785691	13292.070733161212
0.787489	16085.153312889988
0.789295	19349.408837669856
0.79111	23033.57948630601
0.792933	24787.69586323889
0.794764	18121.437068445375
0.796604	34914.597736593605
0.798453	45358.37816300844
0.80031	54082.58369429594
0.802176	63404.384716913024
0.804051	74462.83365199591
0.805934	85868.68601273523
0.807826	98910.0800686731
0.809727	112710.18536532889
0.811636	126481.2221135897
0.813554	138694.0476854362
0.81548	161207.68792992728
0.817416	185670.83875359315
0.81936	201331.6920727709
0.821313	236426.86681509466
0.823274	261899.54197168455
0.825244	288558.0426363649
0.827223	329616.22006856184
0.829211	356816.84188116476
0.831208	383270.8039464537
0.833213	439816.9577640995
0.835227	476221.71393676824
0.837249	496931.8584038963
0.83928	565447.0111933834
0.841321	623852.7874977726
0.843369	678619.0328264238
0.845427	728497.9469910613
0.847493	810373.2626974165
0.849567	822294.3129173854
0.851651	592834.6861648248
0.853742	903777.0270960958
0.855843	1083024.655282989
0.857952	1171597.864655508
0.86007	1246505.534382073
0.862196	1172991.482941742
0.864331	1265353.4079875944
0.866474	1385940.8044478213
0.868626	1482558.4015419648
0.870786	1527295.6915902763
0.872955	1621851.537997997
0.875132	1639619.625227797
0.877317	1901524.8143664757
0.879511	1997488.257001508
0.881713	1840694.3799459627
0.883923	1822556.2636618835
0.886142	1949299.9843731415
0.888369	1837988.3490657161
0.890604	2023579.110914154
0.892847	1663037.756721508
0.895099	1434201.1348734284
0.897358	2231766.0462538293
0.899626	2561302.2147494173
0.901901	2949600.0817444758
0.904185	3446754.227083582
0.906476	3588707.825807878
0.908776	3121836.862861884
0.911083	3607743.015741445
0.913398	3518909.218420855
0.915721	4003332.3124058815
0.918051	3969979.8449166017
0.92039	4435939.652138617
0.922736	4349236.519012379
0.925089	3823042.1855670665
0.927451	2725620.603960511
0.929819	1787437.9223842467
0.932195	1446174.0427606977
0.934579	1534190.2300873094
0.93697	3420977.090373452
0.939369	4034208.2798771462
0.941774	3717081.169774702
0.944187	3137276.9852741067
0.946607	3938777.4010600974
0.949035	4338075.275042741
0.951469	2771810.5862957123
0.953911	3424138.8924424113
0.956359	2780700.647833128
0.958814	4001773.470348813
0.961277	2614870.6675773957
0.963746	3007520.0477557043
0.966222	4121225.3015295803
0.968705	4789721.492486912
0.971194	5290166.195366575
0.97369	4748032.672711957
0.976193	6162621.525710246
0.978702	5816157.441231486
0.981217	6013113.333343225
0.983739	5076830.87164515
0.986268	6375989.308050491
0.988802	6786040.41808533
0.991343	6640909.764384258
0.99389	7679876.96329919
0.996444	8067289.83656054
0.999003	6347014.784054585
1.00157	7142240.96302064
1.00414	8060880.52104915
1.00672	8766472.23088076
1.0093	8853870.463307481
1.01189	9452092.163304122
1.01448	10561163.01536594
1.01708	11134829.243856907
1.01969	12135025.151336592
1.0223	12395120.037398376
1.02492	12632514.699999789
1.02754	13121646.976809977
1.03017	14349416.240123356
1.0328	14286491.573098553
1.03544	14746612.804659631
1.03808	16579801.755395921
1.04073	16134060.988851516
1.04339	16730482.281669103
1.04604	16540258.40592356
1.04871	17081328.819458097
1.05138	17631686.37766334
1.05405	18769306.856732253
1.05673	18522792.75281229
1.05941	19882108.54639864
1.0621	19706953.584847376
1.06479	20195617.459612038
1.06749	20515491.36698605
1.07019	21457125.98203017
1.07289	21202166.750184257
1.0756	21377846.71717632
1.07832	20766217.118530948
1.08104	21469558.991527256
1.08376	21521259.24573351
1.08649	19704032.98733524
1.08922	16360537.983088175
1.09195	14109555.256514242
1.09469	12128960.623172075
1.09743	9864045.143935034
1.10018	8313790.544870035
1.10293	6299106.06750416
1.10568	4473721.274339023
1.10844	5465150.993578567
1.1112	4072247.901137686
1.11396	3375476.2365462906
1.11673	2548080.358079878
1.1195	3642745.9561152924
1.12228	2704669.341521091
1.12505	3802780.097362317
1.12783	4725483.139482246
1.13062	4585528.581009044
1.13341	1665446.7009948532
1.1362	2210433.838846151
1.13899	4081749.099160759
1.14178	5821147.567638112
1.14458	3926568.6806929535
1.14738	3681317.926733202
1.15019	6205798.347152845
1.153	4409846.809552709
1.1558	3376963.1813434907
1.15862	5232338.826217657
1.16143	2968797.905062391
1.16425	2155280.0407916117
1.16707	3347176.2614622414
1.16989	4137997.960911936
1.17271	6060052.471179911
1.17554	5956667.265956435
1.17837	4353569.638575176
1.1812	9177577.846055388
1.18403	9647950.378604306
1.18686	8713430.01595422
1.1897	10474930.867758842
1.19253	11391692.551664859
1.19537	13110098.676715495
1.19822	13347211.286771914
1.20106	14337651.826608116
1.2039	15579711.89660306
1.20675	17866933.43739764
1.2096	19369749.834039055
1.21245	19690143.31089012
1.2153	20685631.27104891
1.21815	20761558.44654731
1.221	22013301.162807886
1.22385	23338817.31360585
1.22671	24294258.85661661
1.22957	26289394.42086316
1.23242	26492131.59052009
1.23528	26046373.7917757
1.23814	26922278.596865486
1.241	26855186.70104502
1.24387	24177985.85467046
1.24673	28748357.507890336
1.24959	26457855.057353873
1.25245	20482650.48241216
1.25532	29342759.285462704
1.25818	31645084.47441964
1.26105	32751841.657975063
1.26392	28628080.766324192
1.26678	30553798.49474501
1.26965	27758087.959721513
1.27252	31120375.207648646
1.27538	32060983.7071253
1.27825	30475671.91073778
1.28112	29943399.756644838
1.28399	23392098.334595818
1.28686	24110562.755614813
1.28973	23734336.578904565
1.2926	23689114.22556235
1.29546	19781175.338393394
1.29833	18010368.677251987
1.3012	22258861.30364098
1.30407	22778508.614263184
1.30694	19088078.31018827
1.30981	20601243.32433532
1.31267	20208412.478253305
1.31554	16190620.647183392
1.31841	15101275.333498504
1.32128	19012031.35387725
1.32414	13138756.858523553
1.32701	8431368.903953781
1.32987	5649717.057972326
1.33274	4289209.135566506
1.3356	3296004.9957099687
1.33847	846453.1755347172
1.34133	712980.8799238586
1.34419	924768.3292202099
1.34705	676695.1334923465
1.34991	890799.2957561902
1.35277	988764.1157423686
1.35563	378878.8691990804
1.35849	359083.5849911592
1.36135	488068.44474355865
1.3642	814249.2347400209
1.36706	741783.6880483545
1.36991	669638.1351364673
1.37277	743527.0878321198
1.37562	610565.7269618456
1.37847	479147.74116313655
1.38132	674520.0980309304
1.38417	305375.25271686795
1.38701	104685.89407891757
1.38986	569705.858684267
1.39271	813250.7407975156
1.39555	428510.3753771816
1.39839	650624.0437398239
1.40123	891179.5538339464
1.40407	819167.3890523558
1.40691	628941.3137368928
1.40974	465232.6492190367
1.41258	844743.0404000487
1.41541	924629.5850595882
1.41824	418594.7860569044
1.42107	250934.2536781322
1.4239	281457.38832058175
1.42673	978860.2134921341
1.42955	1352033.1960656007
1.43237	865546.5044102629
1.43519	1415037.5047296302
1.43801	1560178.0181092294
1.44083	1351671.321693923
1.44365	1541586.0537323186
1.44646	1332168.4536711639
1.44927	1885435.630018984
1.45208	2928429.216351667
1.45489	2186939.8209805912
1.45769	3346359.863768416
1.4605	2952717.0435018046
1.4633	1945912.7855679689
1.4661	3256979.7552086213
1.4689	3079383.581652269
1.47169	2834828.4821944744
1.47449	2653914.7680458226
1.47728	2740689.6326478445
1.48007	2718833.2123242836
1.48286	3201893.1337062335
1.48564	3097280.835233013
1.48842	3401574.9968292546
1.4912	3866900.9938682686
1.49398	3036623.678841935
1.49676	4050829.927979285
1.49953	4610069.785696411
1.5023	6197159.993215813
1.50507	7208448.573720263
1.50784	6232256.258262657
1.51061	7129740.651381333
1.51337	7311331.937106555
1.51613	5594677.144220184
1.51888	4897284.152714849
1.52164	6354015.675178785
1.52439	7973777.713074431
1.52714	6902631.245796146
1.52989	7607672.511391847
1.53263	9171519.058534352
1.53538	10991583.133184658
1.53812	10189031.111571781
1.54086	8102209.8608780345
1.54359	8119415.997936747
1.54632	10791018.901530908
1.54905	11136088.347240752
1.55178	10494792.599982912
1.5545	11012572.082816731
1.55723	12628050.280296046
1.55995	13981449.286785342
1.56266	12581881.493073909
1.56538	15747394.657152241
1.56809	18493123.410083596
1.5708	17237551.729412243
1.57351	16884952.858897798
1.57621	17036037.90531309
1.57891	16833898.764894597
1.58161	18673536.342064172
1.5843	18187732.604687262
1.587	17996476.59059384
1.58969	16866657.707799777
1.59238	15464925.045031639
1.59506	17308513.170523137
1.59774	18143645.79281977
1.60042	16246886.408411914
1.6031	14394178.795555402
1.60577	13196571.1801947
1.60844	11713338.375456164
1.61111	11962348.261061136
1.61378	10947945.384710912
1.61644	10179698.079636745
1.6191	9152143.968725218
1.62176	10548038.908843916
1.62441	10769350.892770063
1.62707	10958492.398161713
1.62971	10678651.130254386
1.63236	10820472.94337257
1.635	13231537.691435084
1.63764	14596962.211037492
1.64028	11523569.617093023
1.64292	11248156.233666476
1.64555	9079513.418849103
1.64818	8635384.148055207
1.65081	12199222.38386545
1.65343	12691428.791035032
1.65605	9076966.425796838
1.65867	8972710.396956772
1.66128	12927607.956358142
1.6639	10372446.81563765
1.66651	2906293.4164216723
1.66911	1181215.8140644862
1.67172	4031212.5405396963
1.67432	6960489.422564657
1.67692	9104158.79814452
1.67951	7922762.495414743
1.68211	6348199.949100592
1.6847	4393617.058335192
1.68728	4267590.4391740365
1.68987	4231181.222488307
1.69245	3423486.188304877
1.69503	3215905.21205703
1.6976	3145574.2937122155
1.70018	3320306.2068258156
1.70275	2433444.2649899083
1.70531	2451768.088367067
1.70788	3799004.0256219874
1.71044	5370944.157134824
1.713	7125014.445281552
1.71556	7645210.621780518
1.71811	7631620.407258252
1.72066	5957196.245796379
1.72321	3575388.703987702
1.72575	5110491.18698866
1.7283	6531645.2969017215
1.73084	6611805.099852093
1.73337	4736476.677720126
1.73591	4174266.3458055807
1.73844	5056270.931306989
1.74097	4767168.666634908
1.74349	4686176.793667907
1.74602	5659515.57280308
1.74854	7085691.062264875
1.75105	7162897.0306038475
1.75357	5299212.879837818
1.75608	3269488.3003841867
1.75859	3012780.137152447
1.7611	2932702.1648687744
1.7636	3301515.7519153743
1.7661	3359469.8112969017
1.7686	3002493.602109808
1.7711	3546135.376015097
1.77359	2957162.5380511135
1.77608	2070438.5901722477
1.77857	2866425.6014107526
1.78105	3581727.032766504
1.78354	2596174.4282659674
1.78602	2165583.2735444824
1.78849	2630077.566571261
1.79097	2297759.425197559
1.79344	2025470.8775451877
1.79591	2465496.841265645
1.79837	3426192.2897618525
1.80084	2400288.404387088
1.8033	2067514.282885814
1.80576	2102698.903372049
1.80821	2130530.901000021
1.81067	2161687.875390857
1.81312	2625886.159519719
1.81557	2807176.5093873236
1.81801	1804045.522280355
1.82046	1524028.3043933697
1.8229	1997533.991115571
1.82533	1786266.265383466
1.82777	1520227.7858079756
1.8302	1649708.7511853182
1.83263	1612247.0966332646
1.83506	1466875.1980915891
1.83749	1485772.990451366
1.83991	1687346.3751680087
1.84233	2087513.2166423146
1.84475	2637752.7522108015
1.84716	2145234.363962512
1.84957	2217083.218985923
1.85198	2649839.0789602883
1.85439	2106097.4595423844
1.8568	1324250.047884895
1.8592	901125.649602828
1.8616	1097657.828864979
1.864	1189001.0236631548
1.86639	931803.2416975561
1.86878	786994.4360189012
1.87118	1239847.396879351
1.87356	1427489.352445723
1.87595	1605167.6442189943
1.87833	2794697.501918315
1.88071	3542401.222574857
1.88309	2935711.6933530527
1.88547	2661769.1685465067
1.88784	3184976.779811241
1.89021	3405575.390735042
1.89258	3859989.8082979317
1.89494	4611331.515000768
1.89731	3996561.9263372105
1.89967	2764875.9400726208
1.90203	2737953.4481564015
1.90439	2760107.121907977
1.90674	3422717.4686037274
1.90909	3426266.9012140697
1.91144	1825884.0597744451
1.91379	1677356.0602662256
1.91613	2913213.4124917886
1.91848	3385818.5814604023
1.92082	2501935.183835147
1.92315	2085913.1760845387
1.92549	2339820.4974649614
1.92782	2374435.393415424
1.93015	1839215.2950014793
1.93248	1309096.1697798844
1.93481	1173776.2330961875
1.93713	1042247.0957626275
1.93945	1025528.8675765767
1.94177	1879951.5746297708
1.94409	2360901.6360776573
1.94641	2199764.094998476
1.94872	2217288.710806952
1.95103	2708980.761565111
1.95334	2693961.657061793
1.95564	2027062.5702047765
1.95795	1873195.4687473688
1.96025	1620032.5591790585
1.96255	1522989.3905551094
1.96484	2341471.50467991
1.96714	3014986.7244163803
1.96943	2902810.787797488
1.97172	3097921.453055203
1.97401	3146363.7878011535
1.97629	3014116.4542862433
1.97858	3122803.344333576
1.98086	2645765.4478767253
1.98314	2022354.4424151932
1.98541	2607099.0836498216
1.98769	3758012.018175883
1.98996	3659454.9267107574
1.99223	3282223.464422425
1.9945	3903928.8034496275
1.99677	4332720.0995351225
1.99903	4143399.90056917
2.00129	3992849.352864701
2.00355	3986254.265605497
2.00581	4271349.24879379
2.00806	4502118.66813878
2.01031	4847137.763769813
2.01256	5906079.280105374
2.01481	6317994.022810407
2.01706	5531743.353134863
2.0193	5397991.211394074
2.02154	6193453.765775338
2.02378	6551309.964759469
2.02602	5920066.836734722
2.02825	5429207.2836457575
2.03049	5783137.436381781
2.03272	6639834.254044883
2.03494	7034705.48079169
2.03717	6722319.140097955
2.03939	6542151.091601175
2.04162	7606142.03730785
2.04384	8751141.261601146
2.04605	8931356.940027593
2.04827	8316210.5768607315
2.05048	8139022.399707088
2.05269	8084256.462924406
2.0549	7435097.970666731
2.05711	7892266.564023384
2.05931	8429804.099986512
2.06151	8520012.52411091
2.06371	8714131.79826699
2.06591	8556132.554210639
2.06811	8728266.784043308
2.0703	9455170.354353711
2.07249	10097945.213983865
2.07468	10164188.76642316
2.07686	9919772.955892295
2.07905	9900699.344041113
2.08123	9952904.336674536
2.08341	9982254.77407407
2.08559	9952587.574828602
2.08776	10096867.101335658
2.08994	10287295.290756492
2.09211	10158202.602378976
2.09428	10233738.756656751
2.09645	10503184.596872307
2.09861	10222248.607703237
2.10077	9628559.36445466
2.10293	9491336.03708182
2.10509	9821224.44902742
2.10725	9895875.050576802
2.1094	9169856.950678809
2.11155	8080842.050944823
2.1137	7831880.590702521
2.11585	8139621.323750225
2.11799	8538837.509868134
2.12013	9058663.155444825
2.12227	9169049.451085491
2.12441	9152501.048133677
2.12655	9062617.284835493
2.12868	8733355.8926756
2.13081	8553538.633649224
2.13294	8359623.103916776
2.13507	7681431.929024738
2.13719	7254592.8447497
2.13931	7732240.5117817065
2.14143	8106291.453434053
2.14355	7649371.898862048
2.14567	6877659.53523692
2.14778	6007540.256557963
2.14989	5535966.889533074
2.152	5707106.638448275
2.1541	5751554.786085904
2.15621	5557200.064433968
2.15831	5184473.090945675
2.16041	4427655.861185104
2.16251	4090636.801071666
2.1646	4366883.8264754815
2.1667	4640775.307832749
2.16879	4959940.78959383
2.17087	5342151.614591267
2.17296	5343221.664942016
2.17504	5260249.264159874
2.17713	5360291.860406501
2.1792	5094314.565392932
2.18128	4277717.009447975
2.18336	3438996.312708939
2.18543	3229199.4008090324
2.1875	3280356.18972562
2.18957	3072858.2895139325
2.19163	2919324.948071331
2.1937	2946354.1023939084
2.19576	2614267.005549241
2.19782	1814288.2714969206
2.19987	1047972.4270340311
2.20193	740640.4362598511
2.20398	750622.6026946488
2.20603	784674.0434382469
2.20808	842641.1371438738
2.21012	898878.3729127193
2.21217	941214.3064183035
2.21421	1122741.4328393352
2.21625	1321205.4959021562
2.21828	1356417.0704446891
2.22032	1381578.4588005487
2.22235	1460397.3609173445
2.22438	1469259.2513218648
2.22641	1307907.5680448203
2.22843	1214621.3360952886
2.23046	1107351.4080135212
2.23248	840429.6666190672
2.2345	605037.5985184134
2.23651	501510.111280764
2.23853	521207.5139865921
2.24054	662810.9433626845
2.24255	842122.284836033
2.24456	982250.7278039581
2.24657	1038345.5030416623
2.24857	990243.0557735977
2.25057	843561.6477395414
2.25257	636088.2437693062
2.25457	472236.5640044419
2.25656	433968.54039334325
2.25856	467895.4501282053
2.26055	476087.30311335897
2.26254	423719.19560123794
2.26453	399612.19633564126
2.26651	454943.8303739554
2.2685	496951.6272340879
2.27048	495451.6978780766
2.27246	531904.3542111724
2.27443	544444.2874359968
2.27641	556580.9219414961
2.27838	620961.6678342812
2.28036	639343.5600061358
2.28233	570406.2547232611
2.28429	486914.6467615491
2.28626	413283.65826438146
2.28823	343140.6718524087
2.29019	285080.8745970109
2.29215	248181.47987113794
2.29411	255514.84161580857
2.29607	299467.5731614183
2.29802	374284.9925572762
2.29998	483844.3890282949
2.30193	634797.0842584703
2.30388	767708.7472726289
2.30583	826071.3632625566
2.30778	881791.7005312773
2.30972	1026417.257086662
2.31167	1204644.034349581
2.31361	1122763.7152200483
2.31555	773787.0096037721
2.31749	410382.47625275963
2.31943	284579.64454800903
2.32137	260053.42240181586
2.32331	235232.033557214
2.32524	201106.34296659887
2.32718	168208.20103621364
2.32911	148570.04692097273
2.33104	152099.4719561097
2.33297	190159.88743159838
2.3349	278289.60633726977
2.33683	401819.7960529249
2.33876	475829.87549398147
2.34068	488620.8927844166
2.34261	479758.17536562105
2.34453	491089.9499156962
2.34646	538234.6355004938
2.34838	595406.0064081872
2.3503	595806.1040130527
2.35223	582762.1344401228
2.35415	546202.9052656187
2.35607	487668.5625829743
2.35799	528732.3232903358
2.35991	652548.1999329734
2.36183	766472.3560649758
2.36375	835557.659120807
2.36566	885463.3978026143
2.36758	814339.3671183015
2.3695	678773.9726741685
2.37142	585746.4079266536
2.37334	557434.2239550857
2.37526	491212.09273001505
2.37718	405017.276406539
2.3791	362853.24593768746
2.38101	359184.3465769584
2.38293	382828.57169585733
2.38485	447654.33124863147
2.38677	584642.5056008764
2.3887	707046.2312375524
2.39062	718174.4883966809
2.39254	700948.787024306
2.39446	755984.4089724938
2.39639	818454.0428725663
2.39831	815440.9456713976
2.40024	854020.4089012354
2.40216	946187.148976099
2.40409	1064433.1968044732
2.40602	1036709.4987952654
2.40795	936448.2595321047
2.40989	964591.0617330892
2.41182	1127203.0157606492
2.41376	1222219.923616087
2.4157	1309031.4825936265
2.41764	1356514.9613536038
2.41958	1331769.2321713567
2.42152	1233798.6015460214
2.42347	1173920.50674702
2.42542	1186734.2587502743
2.42737	1369449.2046239094
