#wavelength	surface flux
0.676892	57236.41642177611
0.678297	60307.817206502885
0.679702	63241.69802324161
0.681109	66039.91362632305
0.682517	68634.75476470841
0.683926	71085.47109144142
0.685337	73310.42535058495
0.686749	75243.14270939586
0.688164	76867.38853339275
0.689581	78106.53018345468
0.691	78659.18702913543
0.692422	78247.78131038666
0.693847	78950.93336836126
0.695274	79305.9979058668
0.696705	79320.51177732683
0.698139	78904.28842161476
0.699576	77739.04766766375
0.701017	76371.13935097694
0.702461	74488.03637889869
0.70391	72916.46569120807
0.705362	70717.95576863797
0.706819	68421.93223260362
0.70828	65972.2469001385
0.709745	63033.72688431442
0.711216	60118.85550811229
0.71269	57113.34168897395
0.71417	54153.04605541928
0.715655	50157.813906616386
0.717145	45813.55175054729
0.71864	42585.65745173153
0.72014	40316.72943418976
0.721647	37849.60607599504
0.723158	35666.693786802185
0.724676	32669.784036964436
0.726199	29728.820293244484
0.727728	26545.533985788734
0.729264	25101.677225341668
0.730805	22688.556432440608
0.732353	21480.7621635728
0.733907	19629.2636572466
0.735468	17399.478050846257
0.737035	16227.009560061664
0.738609	14680.394541992793
0.74019	13327.622537997606
0.741777	12052.788294344487
0.743372	10935.34390556687
0.744973	9876.266928010758
0.746582	8898.207817433926
0.748197	8010.923028091335
0.74982	7263.118835243451
0.751451	6561.424846424116
0.753088	5923.4045126897745
0.754734	5334.925903982518
0.756386	4776.294954257979
0.758047	4226.143828772017
0.759715	3663.825258889525
0.76139	3046.484685663383
0.763074	2299.8150039780753
0.764765	1301.5497699856517
0.766464	414.8904002767888
0.768172	893.0239167620924
0.769887	621.3134175949032
0.77161	1910.5486399563679
0.773341	3328.993306686907
0.775081	4480.541696572652
0.776829	5576.280768058754
0.778585	6248.277593903253
0.780349	6189.467588883983
0.782121	9213.293457086625
0.783902	10990.949182365224
0.785691	12857.309095982628
0.787489	15041.05606061395
0.789295	17527.564003759617
0.79111	20302.907471452814
0.792933	21619.016772438456
0.794764	16399.339983667945
0.796604	29079.256661868953
0.798453	36603.94037379385
0.80031	42789.5759078499
0.802176	49471.20804465371
0.804051	57224.14995826051
0.805934	65417.04078872652
0.807826	74729.63173558876
0.809727	84628.88143923666
0.811636	94665.43986119884
0.813554	103655.79369961031
0.81548	120265.51215874215
0.817416	138006.69651727652
0.81936	153796.7804188712
0.821313	175735.03655560798
0.823274	192899.8596596438
0.825244	215968.69145873724
0.827223	245396.71554091774
0.829211	268964.3603413553
0.831208	291853.188270478
0.833213	330994.4127824648
0.835227	362263.21835781087
0.837249	390409.79453161167
0.83928	439518.49400696484
0.841321	483509.1494855859
0.843369	531220.4791972344
0.845427	575825.1603377336
0.847493	638413.5978008958
0.849567	666148.4483679725
0.851651	479174.02588418126
0.853742	727908.8987446601
0.855843	884363.5704304741
0.857952	964212.5063693427
0.86007	1036342.2250065341
0.862196	1035289.0284635951
0.864331	1123753.1859878704
0.866474	1227270.2123755903
0.868626	1325536.374263861
0.870786	1398957.7397701596
0.872955	1492716.197872965
0.875132	1556455.6733451027
0.877317	1734031.3436597148
0.879511	1837338.7201129056
0.881713	1771277.6906834096
0.883923	1788522.9595266776
0.886142	1886728.850356453
0.888369	1836320.5270393486
0.890604	1989456.5951542237
0.892847	1635126.5511004438
0.895099	1395982.9313075019
0.897358	2195555.20950873
0.899626	2526101.36939144
0.901901	2930838.213696125
0.904185	3365485.5962808235
0.906476	3550610.3345122463
0.908776	3243052.283866655
0.911083	3647628.5751697645
0.913398	3592117.9118398014
0.915721	3994625.8200925034
0.918051	3991966.1853836463
0.92039	4452394.126988142
0.922736	4533707.633203468
0.925089	4042477.998289176
0.927451	2726510.3579314174
0.929819	1766629.455562573
0.932195	1565550.6276776406
0.934579	1836366.760908024
0.93697	3523738.012480522
0.939369	4214741.849040926
0.941774	4138171.531921551
0.944187	3383808.992921833
0.946607	4000937.556154739
0.949035	4252986.611516548
0.951469	3178086.100675702
0.953911	3612996.0932083554
0.956359	2858364.947504451
0.958814	4217460.732945854
0.961277	2779230.2126974547
0.963746	3337892.4572525923
0.966222	4486519.481479866
0.968705	5432166.7606490385
0.971194	5989527.196061356
0.97369	5387739.124685964
0.976193	6809146.1095768055
0.978702	6749533.697709161
0.981217	6957307.741979205
0.983739	6362919.06904311
0.986268	7642643.435492596
0.988802	7957249.936934695
0.991343	8276692.808992496
0.99389	9129674.885722164
0.996444	9501567.920326158
0.999003	8489404.214264054
1.00157	9270397.452899372
1.00414	10299002.96704596
1.00672	10974585.988519553
1.0093	11345849.019263444
1.01189	11988930.270982103
1.01448	12888563.235345172
1.01708	13430512.007669676
1.01969	14215558.240361102
1.0223	14721361.489696681
1.02492	15185978.516508587
1.02754	15576412.203670349
1.03017	16387609.182341885
1.0328	16513216.747241432
1.03544	17172780.44668661
1.03808	18464259.40540334
1.04073	18435267.868394695
1.04339	18998331.117169496
1.04604	19246891.86919891
1.04871	19654922.769465797
1.05138	20205026.4090244
1.05405	21091677.17279271
1.05673	21261364.741645876
1.05941	21989793.59517281
1.0621	22138771.72116203
1.06479	22403337.97693811
1.06749	22676373.14096178
1.07019	23124225.559224706
1.07289	23182714.58181339
1.0756	23391067.326701965
1.07832	23093228.864851717
1.08104	23473203.22736546
1.08376	23773445.25088203
1.08649	21953169.509029564
1.08922	19233903.21244351
1.09195	17014619.489161897
1.09469	14491682.637943365
1.09743	11917573.234182965
1.10018	9333642.617923068
1.10293	6865326.034591341
1.10568	4841265.030021802
1.10844	5469576.450311486
1.1112	3760261.007869977
1.11396	3110542.7607898777
1.11673	2607798.764132165
1.1195	3540758.8091410925
1.12228	2725899.7405686635
1.12505	4287824.129352915
1.12783	4757276.706405116
1.13062	4672637.544552142
1.13341	1808100.8272892395
1.1362	2483753.2787845233
1.13899	5126589.590171936
1.14178	6401247.736008188
1.14458	4020749.3841167153
1.14738	3895535.3919273755
1.15019	6442154.891499359
1.153	4515215.198786042
1.1558	3697730.5481452453
1.15862	5367935.797601556
1.16143	3244473.493700626
1.16425	2834639.5596996765
1.16707	3541649.569938349
1.16989	4926460.107622658
1.17271	6824363.764666207
1.17554	6612168.238440289
1.17837	5583159.543380083
1.1812	10400148.358424544
1.18403	10726953.2556661
1.18686	10524733.222932283
1.1897	12353631.564069223
1.19253	13608220.924851872
1.19537	15453890.007147564
1.19822	16522512.488204865
1.20106	17925158.72752498
1.2039	19006299.570085984
1.20675	21233001.115487374
1.2096	21876775.440349024
1.21245	22345962.140410617
1.2153	23928210.614747133
1.21815	24033852.208391577
1.221	25558593.301335204
1.22385	26666650.597256884
1.22671	27683667.96447637
1.22957	29588605.130276248
1.23242	29843460.138391003
1.23528	30042560.12220475
1.23814	30416506.39543996
1.241	29600136.913691636
1.24387	27398112.56156732
1.24673	31453396.404868975
1.24959	28993770.060935933
1.25245	23633538.87238968
1.25532	31635630.99686142
1.25818	34570876.0106588
1.26105	35806435.332737766
1.26392	34045985.28741683
1.26678	34912792.52608474
1.26965	33472594.807942998
1.27252	34741515.06737801
1.27538	35095418.161953226
1.27825	34164138.94469884
1.28112	32993853.97260978
1.28399	27408005.984907232
1.28686	27466648.788880575
1.28973	27200876.99407729
1.2926	26167827.769745234
1.29546	22712087.290800735
1.29833	21570492.86935537
1.3012	24179916.63951727
1.30407	24985351.459514495
1.30694	21818247.016498674
1.30981	23483763.493459526
1.31267	22305497.19057794
1.31554	18868228.17376955
1.31841	17277340.113787536
1.32128	21167018.724808518
1.32414	15031404.488164669
1.32701	10618196.925896076
1.32987	6820013.691983052
1.33274	4260381.624347787
1.3356	3410719.0079989335
1.33847	807817.585525117
1.34133	575809.9934319777
1.34419	771580.1438236755
1.34705	553729.9521136123
1.34991	641880.7128082076
1.35277	699813.3540097998
1.35563	268842.4444745107
1.35849	241025.6679059435
1.36135	337226.678429378
1.3642	611230.767154252
1.36706	587804.9981261911
1.36991	571847.0577994615
1.37277	601705.8405002421
1.37562	686494.1080201594
1.37847	592212.2699715515
1.38132	483279.72400417755
1.38417	239582.0396993113
1.38701	110560.8863599507
1.38986	481281.6991880291
1.39271	641152.5012507942
1.39555	318381.81854338694
1.39839	489428.96997062955
1.40123	644685.2838705386
1.40407	662038.8364728574
1.40691	545120.9601514722
1.40974	397516.2873777426
1.41258	640183.3963492934
1.41541	764609.2339380403
1.41824	378823.9389411888
1.42107	252230.2956964191
1.4239	254694.79988078977
1.42673	808545.3835301655
1.42955	1166337.6221076844
1.43237	784930.272896406
1.43519	1239051.3074893255
1.43801	1353120.9192518706
1.44083	1254402.8854792162
1.44365	1498670.8756356027
1.44646	1262003.5700551781
1.44927	1862750.9783043806
1.45208	2783321.008100625
1.45489	1947893.6189628171
1.45769	3076762.3803568906
1.4605	2937605.06166403
1.4633	1944512.4757437408
1.4661	3258224.458785377
1.4689	3029705.079790026
1.47169	3001803.4232886694
1.47449	2645547.1596549237
1.47728	2565798.7467433834
1.48007	2587081.6850743415
1.48286	3193906.165407296
1.48564	3072588.596979322
1.48842	3191419.319594462
1.4912	3548687.4562484855
1.49398	3156260.1272563543
1.49676	3854825.065482592
1.49953	4705519.222015737
1.5023	5563218.783233739
1.50507	6448614.916235414
1.50784	6030899.991683803
1.51061	6659010.10238294
1.51337	6473869.766706164
1.51613	5622388.349809146
1.51888	5437027.709663212
1.52164	6761473.796418849
1.52439	7947247.998362896
1.52714	7387477.492125726
1.52989	8324034.667034227
1.53263	9647095.723275023
1.53538	11095183.887888756
1.53812	11098324.071481224
1.54086	9128437.32495601
1.54359	9842504.504630275
1.54632	11968306.446895458
1.54905	11744463.762594657
1.55178	11253908.43915185
1.5545	12631369.70684724
1.55723	13656323.987164723
1.55995	14958065.248922667
1.56266	14308205.477643378
1.56538	17008352.608581323
1.56809	19280209.975600302
1.5708	18728091.222132113
1.57351	18236998.419736475
1.57621	18995375.65327074
1.57891	18860307.849055607
1.58161	19837804.894624755
1.5843	19670707.703467127
1.587	19515942.170480087
1.58969	18539677.37328076
1.59238	17293842.855998576
1.59506	18494267.012272537
1.59774	19098806.97017405
1.60042	17673415.376546357
1.6031	16034193.806746554
1.60577	14654473.13271095
1.60844	13408557.442078326
1.61111	13345418.932924971
1.61378	12162660.178322108
1.61644	10883678.07800349
1.6191	9717480.72518469
1.62176	10732451.977018002
1.62441	10740213.426275361
1.62707	10613309.615171935
1.62971	10059020.87283207
1.63236	10291736.598855644
1.635	11940370.378337637
1.63764	13259628.157618439
1.64028	11611873.693567062
1.64292	11679485.214150103
1.64555	9710362.373622611
1.64818	9541911.733402153
1.65081	12116360.704516731
1.65343	12039002.39555896
1.65605	9159615.185126139
1.65867	9824515.5762106
1.66128	13139429.150198976
1.6639	10434517.291322632
1.66651	2941811.557818532
1.66911	1527819.8408248515
1.67172	4985339.579179936
1.67432	8108163.592025496
1.67692	9713402.859582463
1.67951	8896506.583286533
1.68211	7113250.222117194
1.6847	5241010.265440792
1.68728	5289575.88506088
1.68987	5185439.022305105
1.69245	4098321.3297945024
1.69503	4003706.39657536
1.6976	3708493.526333551
1.70018	3701558.994530324
1.70275	2994936.3962213215
1.70531	2992716.4918035693
1.70788	4371803.612732953
1.71044	5684478.623252657
1.713	6999552.53081171
1.71556	7490740.172788877
1.71811	7536566.6878654305
1.72066	6439812.974859631
1.72321	4362929.129821976
1.72575	5713249.371890218
1.7283	6715987.1000978155
1.73084	6577377.4981800495
1.73337	5305793.22075615
1.73591	4941379.697813653
1.73844	5650262.154140333
1.74097	5506320.724522951
1.74349	5296341.687479104
1.74602	5776148.0635244055
1.74854	6989660.139908332
1.75105	6915357.259714595
1.75357	5040811.69743615
1.75608	3219793.4985241108
1.75859	3397274.1823810507
1.7611	3377012.474303261
1.7636	3404047.370849613
1.7661	3292814.5784020172
1.7686	2844770.6680277805
1.7711	3225841.1998537257
1.77359	2979653.4884110102
1.77608	2112680.4455977036
1.77857	2407386.5704157418
1.78105	2877484.373224127
1.78354	2119165.5118027185
1.78602	1720323.513547716
1.78849	2174890.141005988
1.79097	1919665.5795947209
1.79344	1652743.3263947116
1.79591	2021541.755341988
1.79837	2729790.219366874
1.80084	1806451.8142362575
1.8033	1475782.0358678284
1.80576	1557600.8425950764
1.80821	1563603.4829084803
1.81067	1579215.2770563338
1.81312	1964355.8836887912
1.81557	2100632.1537188427
1.81801	1472576.7486558314
1.82046	1204914.7416350269
1.8229	1543759.9373114572
1.82533	1418540.6925356383
1.82777	1051569.6790182278
1.8302	1103517.9572328278
1.83263	1179038.3192400932
1.83506	1099779.115461944
1.83749	1041309.93861766
1.83991	1153839.150966478
1.84233	1480277.6299068718
1.84475	2002867.1777082812
1.84716	1587975.629611523
1.84957	1750085.5486390472
1.85198	2284312.8124511954
1.85439	1710322.1605473638
1.8568	1001022.9807836985
1.8592	674734.7036551763
1.8616	792196.112918712
1.864	874791.1003871324
1.86639	704052.2871744735
1.86878	525072.1016345569
1.87118	771221.720779632
1.87356	946743.0789029667
1.87595	1206062.4812631726
1.87833	2250233.7497402183
1.88071	2835638.4335165177
1.88309	2361918.0055269967
1.88547	2072086.3085481636
1.88784	2447002.4595893337
1.89021	2565183.5188434278
1.89258	2934560.7625978487
1.89494	3569789.4597632256
1.89731	3065001.621584837
1.89967	2073229.1179928787
1.90203	2072941.415788538
1.90439	1992220.963818077
1.90674	2415679.0473404503
1.90909	2444039.0273411567
1.91144	1256632.590378303
1.91379	1093571.8381915512
1.91613	1994984.9346796714
1.91848	2317480.5325759347
1.92082	1630308.2980247932
1.92315	1349063.7502580604
1.92549	1534863.4355259887
1.92782	1547263.528941143
1.93015	1202879.6072961888
1.93248	912890.9957650341
1.93481	907523.2877453191
1.93713	825123.6674238779
1.93945	767130.7800288528
1.94177	1382000.062805117
1.94409	1673278.4366355024
1.94641	1436980.4127059423
1.94872	1379786.4981714387
1.95103	1730451.4719411838
1.95334	1752763.330371812
1.95564	1358695.8412213896
1.95795	1326071.00566008
1.96025	1193651.2537939763
1.96255	1119103.505330278
1.96484	1707483.038751843
1.96714	2238387.707953078
1.96943	2203063.3060654644
1.97172	2290120.9461535066
1.97401	2281464.7978700995
1.97629	2274167.669556967
1.97858	2392591.101495608
1.98086	1944621.8032288419
1.98314	1512075.710421784
1.98541	2116799.6987714986
1.98769	2937209.6630251524
1.98996	2671017.788629452
1.99223	2387295.671229453
1.9945	3030715.2659397325
1.99677	3512504.4019942945
1.99903	3397108.9472020837
2.00129	3259928.3744448735
2.00355	3149422.6859205235
2.00581	3330827.157964845
2.00806	3569690.658883771
2.01031	3857279.5049496116
2.01256	4616146.974836809
2.01481	4838983.405844644
2.01706	4272777.186507805
2.0193	4212747.713993013
2.02154	4867717.537180975
2.02378	5294930.067757713
2.02602	4896519.814726039
2.02825	4347431.115107448
2.03049	4485834.645874989
2.03272	5118800.26600162
2.03494	5552071.9426353155
2.03717	5485214.736036808
2.03939	5374496.164013898
2.04162	6116616.760759433
2.04384	6889620.309396766
2.04605	7104504.049765685
2.04827	6784324.828778194
2.05048	6598882.660352024
2.05269	6611526.342294454
2.0549	6375971.744240586
2.05711	6622641.07385173
2.05931	6894458.263227018
2.06151	7088031.263786024
2.06371	7393445.318013045
2.06591	7403600.144504134
2.06811	7412881.962596436
2.0703	7767473.3114678785
2.07249	8172130.644048611
2.07468	8245667.279634267
2.07686	8228159.943344641
2.07905	8276487.533512132
2.08123	8204070.897752582
2.08341	8190676.383744118
2.08559	8251400.283928971
2.08776	8330289.717664086
2.08994	8392282.870812926
2.09211	8271735.674460468
2.09428	8220829.344760766
2.09645	8332226.1644988945
2.09861	8225022.814300058
2.10077	7930185.167268723
2.10293	7888894.902266235
2.10509	8127941.881806654
2.10725	8200848.589720658
2.1094	7833960.84204482
2.11155	7255120.094790217
2.1137	7096850.890283136
2.11585	7259383.952382196
2.11799	7443920.981752507
2.12013	7655001.74223204
2.12227	7653294.64170444
2.12441	7619052.702932951
2.12655	7576343.979793307
2.12868	7396645.256222639
2.13081	7263025.776880357
2.13294	7117498.3779659355
2.13507	6717356.00916976
2.13719	6497912.646875957
2.13931	6804779.348714532
2.14143	6981757.75839118
2.14355	6623100.642165801
2.14567	6058238.266162823
2.14778	5485985.174890824
2.14989	5206020.909870676
2.152	5266001.292167045
2.1541	5199513.369745418
2.15621	5025731.77923775
2.15831	4750661.425778657
2.16041	4129191.734311168
2.16251	3776698.837967573
2.1646	4003963.781003874
2.1667	4344636.033588058
2.16879	4634531.700737465
2.17087	4863702.964059275
2.17296	4813709.378213034
2.17504	4724091.494715591
2.17713	4765639.747800987
2.1792	4502361.265332131
2.18128	3811596.669560473
2.18336	3231226.757153427
2.18543	3254796.507527133
2.1875	3381513.1350743067
2.18957	3142372.816079001
2.19163	2860979.2650812427
2.1937	2680593.1037148633
2.19576	2331903.5561252455
2.19782	1713706.444935851
2.19987	1074425.2423586757
2.20193	776906.5497886119
2.20398	768486.3246316764
2.20603	818152.0671867754
2.20808	882260.165632042
2.21012	912753.8651676707
2.21217	908917.5138981184
2.21421	1055263.2281664566
2.21625	1267768.767097624
2.21828	1341453.241015744
2.22032	1347319.4448260122
2.22235	1405745.0528005052
2.22438	1436396.6780648816
2.22641	1244767.9911115237
2.22843	1030584.924352013
2.23046	891282.9074230936
2.23248	748355.2406624004
2.2345	625017.4570602687
2.23651	543799.4045083004
2.23853	553891.116608218
2.24054	667256.6691406026
2.24255	795838.8578048303
2.24456	876087.4001637519
2.24657	872695.1347136806
2.24857	795351.0540978188
2.25057	683838.9651081209
2.25257	548813.689183889
2.25457	431166.07664474176
2.25656	407559.2787849808
2.25856	468163.53588631906
2.26055	504764.3814340007
2.26254	466953.0353263214
2.26453	434798.35713685513
2.26651	472826.5268004185
2.2685	506232.4075803111
2.27048	506325.3919933791
2.27246	557630.441479533
2.27443	583944.5980203438
2.27641	588873.6921247967
2.27838	638381.2930977443
2.28036	647588.7385277164
2.28233	565963.0565359502
2.28429	479544.31260255235
2.28626	410210.6516935309
2.28823	350881.7279976643
2.29019	311162.44647374615
2.29215	287144.0525247572
2.29411	294583.5251479753
2.29607	331237.99191513064
2.29802	393722.8373590983
2.29998	481487.9783702102
2.30193	612844.8138980897
2.30388	738986.049372181
2.30583	804366.1631652394
2.30778	872176.4573382005
2.30972	1047418.8004232146
2.31167	1245941.5931710398
2.31361	1152352.1876824293
2.31555	772566.5677013434
2.31749	397880.82550942985
2.31943	274293.5515440512
2.32137	264195.189250364
2.32331	253906.2998450773
2.32524	221565.42698660895
2.32718	180434.5485924914
2.32911	155467.01231197006
2.33104	159877.83511199502
2.33297	201081.72856045066
2.3349	281571.22152767406
2.33683	384214.4016122991
2.33876	447070.5366926683
2.34068	462396.21081940364
2.34261	459474.1165410473
2.34453	464793.023156641
2.34646	492057.5602972649
2.34838	528792.1469883103
2.3503	525894.7733619404
2.35223	522836.65776463243
2.35415	502581.17989170825
2.35607	466942.6646317636
2.35799	538111.7763704449
2.35991	672827.6176982612
2.36183	766688.981446292
2.36375	812662.7188269218
2.36566	860395.3042458345
2.36758	777875.8471308873
2.3695	608037.2552546836
2.37142	484070.10706573183
2.37334	460472.4418695587
2.37526	439727.0723019393
2.37718	402791.7053474807
2.3791	394279.8064003845
2.38101	408295.3342714672
2.38293	431637.10670023324
2.38485	468362.4811195324
2.38677	569412.0892410532
2.3887	690644.9150295943
2.39062	741806.4969106719
2.39254	747743.5026142895
2.39446	778407.2663155819
2.39639	805361.8838918741
2.39831	788194.7248931038
2.40024	837440.0154259703
2.40216	927723.9803636193
2.40409	1006901.5339201665
2.40602	939223.5084102306
2.40795	845094.342456997
2.40989	917121.9706989382
2.41182	1123645.9354616099
2.41376	1216351.5222511517
2.4157	1224618.745761807
2.41764	1214842.4730983444
2.41958	1221253.1763386414
2.42152	1197307.2565053261
2.42347	1158851.705450647
2.42542	1123783.9992406454
2.42737	1220287.8731509529
2.42932	1384544.9240290523
