#wavelength	surface flux
0.8	526952.1608836682
0.8002000000000001	535944.2579488129
0.8004000500000003	545356.4088445283
0.8006001500125003	554582.6524389614
0.8008003000500035	564267.6452448916
0.8010005001250161	573458.9444244021
0.8012007502500472	584357.5970490797
0.8014010504376099	592833.643415887
0.8016014007002193	601802.1843894963
0.8018018010503944	612799.6718505903
0.8020022515006572	620889.9711070771
0.8022027520635323	631653.0896188344
0.8024033027515483	642488.3891906536
0.8026039035772362	651330.7025555806
0.8028045545531306	662171.8814045759
0.8030052556917691	671324.399029111
0.803206007005692	682548.3086012249
0.8034068085074435	692212.8708546485
0.8036076602095705	705205.5587718418
0.8038085621246229	716556.9386489604
0.8040095142651542	727602.0646682885
0.8042105166437206	734557.5897645936
0.8044115692728815	747088.7231724241
0.8046126721651998	757241.2455171859
0.8048138253332411	770564.3820697892
0.8050150287895745	783716.6999409541
0.805216282546772	793756.7994542738
0.8054175866174087	801292.432278522
0.8056189410140631	815256.2422827492
0.8058203457493168	825751.9850540267
0.8060218008357541	840526.1366361015
0.8062233062859632	844373.027273465
0.8064248621125346	860546.844449301
0.806626468328063	875910.4690953459
0.8068281249451449	886435.7073310401
0.8070298319763813	895938.5489593188
0.8072315894343755	904911.8247553172
0.8074333973317341	922121.2085001695
0.8076352556810671	936501.190032499
0.8078371644949874	947171.2881270561
0.8080391237861113	965664.942797565
0.8082411335670578	971472.3230743055
0.8084431938504498	982077.982943235
0.8086453046489125	996530.3279967977
0.8088474659750746	1005912.4559000338
0.8090496778415686	1017844.1711600316
0.809251940261029	1017299.6106004163
0.8094542532460944	1049772.695176384
0.8096566168094059	1063854.2107889003
0.8098590309636085	1075683.2783160806
0.8100614957213493	1066300.1322416584
0.8102640110952797	1093478.348931463
0.8104665770980536	1102591.5687030833
0.8106691937423283	1122917.6482035425
0.8108718610407639	1126444.2607504018
0.8110745790060241	1138921.0271061657
0.8112773476507757	1165335.6219485437
0.8114801669876885	1167099.9365541553
0.8116830370294355	1176297.859737935
0.8118859577886929	1223498.8212391257
0.8120889292781401	1219788.4146773238
0.8122919515104597	1218270.6367857573
0.8124950244983374	1215783.9183234351
0.8126981482544621	1266758.7538419156
0.8129013227915257	1288437.9067528935
0.8131045481222237	1300543.3168098605
0.8133078242592543	1297744.2882797474
0.8135111512153191	1313843.7823499227
0.813714529003123	1319697.8333263453
0.8139179576353739	1353695.0511081773
0.8141214371247829	1364669.6717520629
0.8143249674840641	1348459.4178411954
0.814528548725935	1403801.4193798646
0.8147321808631167	1430596.3466922734
0.8149358639083326	1424721.148301223
0.8151395978743097	1399258.0457225475
0.8153433827737784	1479229.1618988134
0.8155472186194719	1471245.1710516014
0.8157511054241268	1491518.021512888
0.815955043200483	1527126.949280877
0.8161590319612831	1550703.762174483
0.8163630717192736	1503747.6100622474
0.8165671624872033	1570330.228710515
0.8167713042778252	1592590.2532325187
0.8169754971038948	1626248.7366547491
0.8171797409781707	1578590.0733508195
0.8173840359134155	1666572.473619524
0.8175883819223938	1677543.559313071
0.8177927790178745	1690796.3835711686
0.8179972272126291	1666928.2760988486
0.8182017265194322	1586391.7504146912
0.8184062769510622	1510487.0786591968
0.8186108785203001	1731626.1421841066
0.8188155312399301	1739546.5488055758
0.8190202351227402	1754380.0977052508
0.819224990181521	1660781.542462961
0.8194297964290664	1324044.729671847
0.8196346538781738	1556185.053667795
0.8198395625416434	1808366.1178666893
0.8200445224322789	1855921.6602311314
0.820249533562887	1907488.5804001926
0.8204545959462778	1934944.906918784
0.8206597095952644	1958281.7382787867
0.8208648745226633	1985744.6803853298
0.8210700907412941	2005063.6641412242
0.8212753582639793	2028891.5671845905
0.8214806771035456	2052460.5155860283
0.8216860472728215	2072797.8851788442
0.8218914687846397	2086620.8300572492
0.822096941651836	2113406.960895708
0.822302465887249	2139731.3382701026
0.8225080415037209	2164566.8704255084
0.8227136685140968	2130191.8889805344
0.8229193469312254	2054990.0269267873
0.8231250767679583	2064205.5958687402
0.8233308580371503	2184156.541285882
0.8235366907516598	2201028.7269525398
0.8237425749243477	2260779.3091274933
0.8239485105680789	2276267.138890529
0.824154497695721	2312597.8640298443
0.824360536320145	2310289.2107602376
0.8245666264542252	2281588.836463454
0.8247727681108388	2408308.286889361
0.8249789613028664	2427782.3732310156
0.8251852060431922	2455655.927899494
0.825391502344703	2494168.5955910063
0.8255978502202894	2514101.1242945925
0.8258042496828445	2520527.3755410197
0.8260107007452654	2560287.4644696154
0.8262172034204517	2521712.3469351325
0.8264237577213068	2576534.4047283027
0.8266303636607373	2617446.3672863003
0.8268370212516525	2658965.018628743
0.8270437305069654	2681288.997404117
0.8272504914395923	2697965.7779778084
0.8274573040624523	2689276.535941021
0.8276641683884679	2731594.6592077464
0.8278710844305652	2749452.086534782
0.8280780522016729	2803448.2884724014
0.8282850717147234	2806014.822227493
0.8284921429826521	2850175.024686742
0.8286992660183978	2876178.8544031526
0.8289064408349024	2866560.579128175
0.8291136674451112	2868163.146455376
0.8293209458619727	2926911.0971648023
0.8295282760984382	2907647.349786198
0.829735658167463	2853036.844367798
0.8299430920820048	2998687.7847286235
0.8301505778550254	3045690.6393112815
0.8303581154994891	3064702.653521
0.8305657050283641	3105211.6147887832
0.8307733464546212	3053145.5566579606
0.8309810397912352	3155631.8583457624
0.8311887850511829	3198807.9454975463
0.8313965822474458	3156878.1587949786
0.8316044313930077	3240246.144558403
0.8318123325008561	3265299.413248756
0.8320202855839813	3268134.863496534
0.8322282906553774	3317987.4107632507
0.8324363477280413	3313511.3708933033
0.8326444568149735	3403329.2269270006
0.8328526179291771	3436408.2596420506
0.8330608310836596	3417811.361378624
0.8332690962914304	3394365.9034648417
0.8334774135655034	3449521.4575742623
0.833685782918895	3482090.89080316
0.8338942043646247	3566833.618545594
0.834102677915716	3514128.3455886054
0.834311203585195	3606064.272776747
0.8345197813860912	3652763.0627605575
0.8347284113314379	3701558.453802985
0.8349370934342709	3729380.636756279
0.8351458277076294	3621923.292445569
0.8353546141645565	3754466.947143545
0.8355634528180977	3688281.7363026505
0.8357723436813022	3728714.0757369776
0.8359812867672226	3676097.2432935056
0.8361902820889144	3889282.86617758
0.8363993296594368	3686435.973829591
0.8366084294918518	3912529.225933881
0.8368175815992247	3916445.3972278414
0.8370267859946247	3901305.8345889156
0.8372360426911234	4038472.0124490666
0.8374453517017962	4082519.298517168
0.8376547130397217	3996331.906340061
0.8378641267179816	3984979.1118069277
0.8380735927496613	4151337.2451821365
0.8382831111478488	4207702.91925219
0.8384926819256358	4243529.781144976
0.8387023050961173	4212374.127975257
0.8389119806723914	4224708.618640075
0.8391217086675596	4362718.602787608
0.8393314890947265	4415476.978382768
0.8395413219670003	4415690.00170578
0.8397512072974922	4445320.319748292
0.8399611450993165	4410583.683797478
0.8401711353855914	4462736.964774112
0.8403811781694378	4540692.966201118
0.8405912734639802	4492810.817928236
0.8408014212823464	4504323.348128474
0.8410116216376671	4614897.460785052
0.8412218745430766	4686996.403456188
0.8414321800117124	4739353.1761445
0.8416425380567154	4699946.1426569335
0.8418529486912297	4764038.550238082
0.8420634119284025	4644299.628976487
0.8422739277813847	4817223.488604148
0.8424844962633302	4856421.607131249
0.842695117387396	4957428.476832157
0.8429057911667428	4976326.689222512
0.8431165176145345	4926885.758125288
0.8433272967439382	5027463.50785338
0.8435381285681244	5023105.75511361
0.8437490131002665	5041776.5259588575
0.8439599503535415	5156465.105962723
0.84417094034113	5111975.803369435
0.8443819830762154	5083872.733114677
0.8445930785719846	5229781.568914689
0.8448042268416277	5275711.499924647
0.8450154278983382	5300396.648472034
0.8452266817553128	5319350.775262695
0.8454379884257517	5345855.843233619
0.8456493479228583	5241742.25351402
0.845860760259839	5461801.454115254
0.846072225449904	5550231.333649126
0.8462837435062666	5553201.508888153
0.8464953144421433	5435886.020632346
0.8467069382707537	5533055.58793416
0.8469186150053215	5665955.3729829015
0.847130344659073	5627993.558649268
0.8473421272452377	5700743.245700375
0.8475539627770492	5713250.859580539
0.8477658512677435	5753054.935864413
0.8479777927305605	5834284.223941867
0.8481897871787432	5864504.253596504
0.848401834625538	5909797.696117406
0.8486139350841944	5922814.04185207
0.8488260885679657	5912119.815732216
0.8490382950901076	5936335.104682717
0.8492505546638802	6022148.632686494
0.8494628673025462	5951770.144854224
0.8496752330193721	6077803.44317013
0.8498876518276269	6027726.352383956
0.8501001237405839	5962233.195943938
0.8503126487715191	5978814.90780813
0.850525226933712	5954505.176346802
0.8507378582404455	5853851.864705488
0.8509505427050057	5655253.713353843
0.8511632803406821	5435894.200748449
0.8513760711607672	4888605.619150001
0.8515889151785576	4025817.063949024
0.8518018124073523	2493026.664321284
0.8520147628604541	641583.0931418216
0.8522277665511693	754252.1495719616
0.8524408234928071	2671134.296108486
0.8526539336986805	4219104.845625285
0.8528670971821053	5159863.21783366
0.8530803139564007	5735054.037758289
0.8532935840348901	6070106.184972923
0.8535069074308987	6396225.911273888
0.8537202841577566	6574746.157638038
0.8539337142287962	6691120.171088953
0.8541471976573534	6784512.764153634
0.8543607344567677	6912982.639505519
0.8545743246403821	7032468.876568366
0.8547879682215422	7060009.775922383
0.8550016652135977	7156862.320175313
0.8552154156299011	7193349.448379591
0.8554292194838088	7256919.408095816
0.8556430767886797	7276362.089831986
0.855856987557877	7410330.028954309
0.8560709518047664	7481477.9841910545
0.8562849695427177	7549464.412970648
0.8564990407851035	7551922.243250565
0.8567131655452999	7642069.587542638
0.8569273438366862	7728527.608920912
0.8571415756726455	7762497.644519112
0.8573558610665638	7758252.492324498
0.8575702000318304	7745116.820217814
0.8577845925818384	7866274.58086039
0.857999038729984	7978113.467460998
0.8582135384896665	8016181.500546647
0.858428091874289	8028988.948178916
0.8586426988972576	8099439.51523267
0.8588573595719821	8118344.268300191
0.8590720739118751	8151928.072563806
0.8592868419303532	8223041.554030766
0.8595016636408359	8284440.615513985
0.8597165390567462	8345392.964414356
0.8599314681915105	8343751.201450317
0.8601464510585584	8362978.287674955
0.860361487671323	8452234.49383849
0.8605765780432408	8488256.361312479
0.8607917221877518	8508996.711239021
0.8610069201182988	8450072.175791578
0.8612221718483286	7700602.311725183
0.8614374773912907	5596998.371452632
0.8616528367606385	6381791.856877082
0.8618682499698288	5513018.689588952
0.8620837170323213	5473207.903787905
0.8622992379615795	6152541.840977059
0.8625148127710699	6139214.654887266
0.8627304414742627	5413993.475299789
0.8629461240846313	7230592.278470336
0.8631618606156526	5663843.090754085
0.8633776510808066	5395904.890032738
0.8635934954935769	5668344.620109422
0.8638093938674504	5986296.199266454
0.8640253462159173	6311228.738657304
0.8642413525524714	5952931.4253851725
0.8644574128906095	6674571.465347438
0.8646735272438323	6787033.561599892
0.8648896956256433	5650173.054720741
0.8651059180495498	7057943.885465136
0.8653221945290621	6478239.327081659
0.8655385250776946	8256597.603161812
0.8657549097089641	7239570.622522776
0.8659713484363913	7186145.931508402
0.8661878412735006	7443614.141027842
0.866404388233819	7569475.197311438
0.8666209893308775	6930770.2111722855
0.8668376445782103	8783755.52229915
0.8670543539893549	7612629.804392089
0.8672711175778525	7470794.095373184
0.8674879353572469	7536606.995283869
0.8677048073410862	8138481.030955433
0.8679217335429217	8496640.011333523
0.8681387139763074	8213263.566332344
0.8683557486548015	7201260.349096779
0.8685728375919655	6952264.406358779
0.8687899808013633	8423939.383069778
0.8690071782965637	8894837.939855795
0.869224430091138	9277790.243458545
0.8694417361986609	8749786.773682669
0.8696590966327107	7088374.924672937
0.869876511406869	7603996.404161063
0.8700939805347206	8347443.405202411
0.8703115040298544	8595676.01439492
0.870529081905862	7795747.525986952
0.8707467141763385	8548435.896074207
0.8709644008548827	7608241.0653390875
0.8711821419550964	7312909.091442037
0.8713999374905854	7422997.397848472
0.871617787474958	8676509.49944926
0.8718356919218269	8434212.60214164
0.8720536508448075	7363280.903474596
0.8722716642575187	8048174.770692299
0.8724897321735832	7585845.6861910615
0.8727078546066265	8961038.360728323
0.8729260315702784	7826358.130909215
0.873144263078171	8570877.444374584
0.8733625491439405	8913348.63237503
0.8735808897812266	7223829.016698714
0.8737992850036719	8273291.778353311
0.874017734824923	8563450.529289512
0.8742362392586293	9178065.259396194
0.874454798318444	9284609.243898014
0.8746734120180236	9342999.269416358
0.8748920803710283	9671507.227954384
0.875110803391121	8759232.416893134
0.8753295810919689	8380873.937218326
0.875548413487242	9981467.254246254
0.8757673005906139	9683523.512993678
0.8759862424157616	10085704.949105987
0.8762052389763657	10162326.758904994
0.8764242902861098	9429359.300897162
0.8766433963586814	10075601.382700717
0.8768625572077712	8674313.484452209
0.8770817728470732	8110758.804686061
0.8773010432902849	10165910.554107925
0.8775203685511077	9684995.391091717
0.8777397486432454	11423664.365089582
0.8779591835804065	10986431.913646808
0.8781786733763015	9338097.673769625
0.8783982180446457	9947428.58148113
0.878617817599157	10522458.905361999
0.8788374720535569	8884839.556818087
0.8790571814215703	9678085.52443447
0.8792769457169257	10016392.076269055
0.879496764953355	10025719.164628027
0.8797166391445934	12098586.030905845
0.8799365683043796	11806493.034390504
0.8801565524464557	10150055.489337208
0.8803765915845676	9349489.197070332
0.8805966857324639	10391352.107065981
0.880816834903897	9310790.997335628
0.881037039112623	10773429.634464651
0.8812572983724012	10648787.575631911
0.8814776126969944	10341049.692690969
0.8816979821001687	11133847.257088736
0.8819184065956938	12481392.278732797
0.8821388861973429	11599206.729430739
0.8823594209188923	10080492.58480771
0.882580010774122	10172382.233588897
0.8828006557768155	10445183.729215086
0.8830213559407598	9823687.785390371
0.8832421112797452	12439806.338126317
0.8834629218075651	10286995.153969891
0.8836837875380171	10043032.011109192
0.8839047084849018	11549222.148047943
0.884125684662023	12846427.267268283
0.8843467160831886	12951809.406046398
0.8845678027622095	12547241.173108736
0.8847889447129001	9255370.558421003
0.8850101419490785	10536040.022579538
0.8852313944845657	11235876.586395841
0.885452702333187	13798413.389896046
0.8856740655087704	12669319.969205588
0.8858954840251476	10311964.00679261
0.8861169578961539	10565683.234174894
0.886338487135628	13706116.367692657
0.886560071757412	13454767.340838252
0.8867817117753515	13053550.109108543
0.8870034072032955	11899700.66176798
0.8872251580550963	9356727.163572324
0.8874469643446101	10396294.690870957
0.8876688260856963	11103942.179026293
0.8878907432922178	13405635.551779004
0.8881127159780409	14109499.510734286
0.8883347441570356	13177842.143796653
0.8885568278430749	9445105.130921636
0.8887789670500358	12581691.559263958
0.8890011617917983	13425954.853572723
0.8892234120822464	14760253.71967932
0.8894457179352669	14050591.187684286
0.8896680793647509	11433830.600062925
0.8898904963845921	9875670.997012436
0.8901129690086883	12597311.061051447
0.8903354972509405	14799713.089880588
0.8905580811252535	14583878.168236572
0.8907807206455347	13589452.80725592
0.8910034158256963	12609562.774062645
0.8912261666796527	10510279.681602202
0.8914489732213227	13321797.395254625
0.8916718354646282	14459617.649483899
0.8918947534234944	12422517.950724402
0.8921177271118502	11242166.278052926
0.8923407565436284	12944548.006530989
0.8925638417327644	9885574.047650313
0.8927869826931977	12281083.042604528
0.8930101794388711	12034601.504357997
0.8932334319837308	11977777.09362178
0.8934567403417267	12031559.04589598
0.8936801045268123	9686575.639747057
0.8939035245529441	6917255.034086501
0.8941270004340824	3348371.76282483
0.894350532184191	752005.8107686683
0.8945741198172371	3730879.318208424
0.8947977633471915	7383959.074249394
0.8950214627880284	10355649.757007366
0.8952452181537254	11308645.173815861
0.8954690294582639	9670822.389384676
0.8956928967156286	12251583.836295
0.8959168199398075	14371260.450670004
0.8961407991447926	15452826.61808047
0.8963648343445789	15227306.770609198
0.896588925553165	12725782.559027784
0.8968130727845534	11675229.51205466
0.8970372760527496	12799623.187736686
0.8972615353717629	14501544.94852619
0.8974858507556059	14015688.479982564
0.8977102222182949	15211424.340715658
0.8979346497738496	16836386.887993675
0.8981591334362931	15194694.65886506
0.8983836732196523	12543280.560155453
0.8986082691379572	15399687.628068307
0.8988329212052417	16548059.798542993
0.8990576294355432	15361198.358521307
0.8992823938429022	15911485.408605775
0.8995072144413631	16844576.73577438
0.8997320912449734	15261610.953903304
0.8999570242677847	15166620.498223914
0.9001820135238516	13573132.929889381
0.9004070590272328	16856097.970782347
0.9006321607919896	17874198.76476413
0.9008573188321878	18086136.19859814
0.9010825331618959	16972067.18739959
0.9013078037951865	15740877.277097708
0.9015331307461353	16384983.338096052
0.9017585140288219	16161629.950028919
0.9019839536573292	18616108.520102825
0.9022094496457435	19742144.268156353
0.9024350020081551	18837445.446480423
0.9026606107586572	19229911.236511853
0.902886275911347	15217262.436298413
0.9031119974803249	15753582.836211534
0.9033377754796951	17376696.294755217
0.903563609923565	19112046.28930518
0.903789500826046	21213757.916505907
0.9040154482012526	21521585.597907566
0.904241452063303	19240748.925948918
0.9044675124263188	17413289.52925676
0.9046936293044254	18553080.288834706
0.9049198027117517	18474303.74280856
0.9051460326624297	20451810.778953783
0.9053723191705955	21433202.913340826
0.9055986622503881	19830051.1705894
0.9058250619159507	20638451.805575136
0.9060515181814298	18048552.826319262
0.9062780310609752	19322535.27745337
0.9065046005687405	19719452.08763145
0.906731226718883	19803979.315575317
0.9069579095255627	21500013.372891646
0.907184649002944	19797153.05579461
0.907411445165195	20328120.12267848
0.9076382980264862	19723722.420627132
0.907865207600993	20312911.38030183
0.9080921739028933	20183664.463321865
0.9083191969463691	18099586.232764952
0.9085462767456058	21245233.92405578
0.9087734133147922	22540569.161121942
0.9090006066681211	20715915.214960236
0.909227856819788	21188354.706287656
0.9094551637839932	20682433.29411942
0.9096825275749393	22042244.56275152
0.9099099482068329	20696826.99438687
0.9101374256938848	21014322.800819654
0.9103649600503083	20937867.322163742
0.9105925512903209	24229477.045404967
0.9108201994281437	19429453.434747193
0.9110479044780008	19480939.69970557
0.9112756664541204	22404404.33171266
0.911503485370734	21968037.371607423
0.9117313612420768	23519868.521125846
0.9119592940823873	20607389.01959819
0.912187283905908	23510784.45101469
0.9124153307268845	24064689.238499504
0.9126434345595664	24335840.5401523
0.9128715954182063	21658254.399227228
0.9130998133170609	19620931.108473446
0.9133280882703902	20829753.189791214
0.913556420292458	24000681.5636009
0.9137848093975312	22551282.353987094
0.9140132555998806	21680493.66394556
0.9142417589137806	24105667.99808457
0.9144703193535092	21398671.542881995
0.9146989369333476	25188798.77409716
