#wavelength	surface flux
0.676892	376939.0409404397
0.678297	400427.5793277359
0.679702	422401.67570731766
0.681109	443046.72154030483
0.682517	461836.6785636693
0.683926	480010.99050269887
0.685337	496396.59694396827
0.686749	510751.70700176305
0.688164	523284.7246065266
0.689581	532645.96782199
0.691	531546.0109258766
0.692422	537068.4592111584
0.693847	532447.7097937333
0.695274	548241.9769943706
0.696705	551116.8920618648
0.698139	551493.0727821826
0.699576	547037.8661403533
0.701017	540080.1982647808
0.702461	531210.625487072
0.70391	522663.8382235891
0.705362	508990.23280683585
0.706819	495160.66035133414
0.70828	480819.2276153873
0.709745	462039.8748409585
0.711216	443731.9146271566
0.71269	424880.6946609405
0.71417	405092.38136873307
0.715655	376879.17233015585
0.717145	349640.5068822623
0.71864	325962.35872779234
0.72014	309648.63976470387
0.721647	291560.0167668012
0.723158	277799.5802873138
0.724676	255079.2272088716
0.726199	232458.58401766708
0.727728	205402.58105281327
0.729264	195817.39392979487
0.730805	176156.05325327997
0.732353	164773.54935410782
0.733907	148158.2317191071
0.735468	128109.03399858384
0.737035	118234.28417898217
0.738609	104542.3787420442
0.74019	91883.1184755908
0.741777	79807.00274107823
0.743372	68929.77230405358
0.744973	58645.965882323406
0.746582	49201.42022098504
0.748197	40693.05726172439
0.74982	33522.01486251222
0.751451	27074.174377924435
0.753088	21577.16930782855
0.754734	16971.22725771331
0.756386	13173.81498812689
0.758047	10104.051794330622
0.759715	7655.560485571006
0.76139	5684.309899668239
0.763074	3995.599372805168
0.764765	2197.0062237731395
0.766464	690.6193845248607
0.768172	1498.4298906739261
0.769887	1035.747627603393
0.77161	3236.104391483281
0.773341	5911.115316930553
0.775081	8742.761484481896
0.776829	12287.32867034945
0.778585	15122.33750203813
0.780349	16067.703214248822
0.782121	29726.414822516785
0.783902	40341.16911269006
0.785691	52537.064264395696
0.787489	67413.58672375524
0.789295	84873.61788164481
0.79111	104394.92151797506
0.792933	113222.24047570943
0.794764	76209.75504602584
0.796604	165968.5715032302
0.798453	220195.83688625137
0.80031	263981.01650472754
0.802176	310297.6742091656
0.804051	362852.70941134484
0.805934	417741.23105988326
0.807826	478557.5923131175
0.809727	542984.3417614438
0.811636	609206.3453669305
0.813554	672893.6568004866
0.81548	767584.2326697002
0.817416	858794.0659927848
0.81936	876149.0351982198
0.821313	1077539.9015042097
0.823274	1203212.5966886051
0.825244	1314139.2443087564
0.827223	1476815.5242520806
0.829211	1590967.1088959265
0.831208	1713350.546834603
0.833213	1943512.144265648
0.835227	2093977.1002810267
0.837249	2187483.4680850697
0.83928	2458257.2558537223
0.841321	2699448.1116074943
0.843369	2916515.861463456
0.845427	3117020.782890138
0.847493	3429715.7452908014
0.849567	3450287.4854359
0.851651	2381724.825947566
0.853742	3711904.9545081984
0.855843	4511807.110899612
0.857952	4877593.35541867
0.86007	5093913.796353178
0.862196	3981277.0236236695
0.864331	4333334.205413483
0.866474	4872219.068721219
0.868626	5119295.063559391
0.870786	5030947.831998677
0.872955	5312999.657230634
0.875132	5063081.458194614
0.877317	6827011.572886059
0.879511	7197879.950431983
0.881713	6687243.534194984
0.883923	7096775.096958285
0.886142	7822696.137320111
0.888369	7350011.536302386
0.890604	8438896.241856359
0.892847	6807452.57011374
0.895099	5916490.037989176
0.897358	9148460.88582139
0.899626	10502712.904116625
0.901901	11883699.151820173
0.904185	13734147.488529881
0.906476	13288189.699480735
0.908776	11754307.965816181
0.911083	13445891.39349304
0.913398	13935747.522565406
0.915721	15880018.961051727
0.918051	16224296.38105123
0.92039	18354132.07152082
0.922736	17970368.711690433
0.925089	16616114.3821762
0.927451	13169987.85619883
0.929819	9555924.236447595
0.932195	7814214.162785504
0.934579	8204195.663131728
0.93697	16058314.511143731
0.939369	18116910.52525819
0.941774	16877018.454722982
0.944187	14633967.212731695
0.946607	18683889.107481636
0.949035	19897071.149731416
0.951469	13991982.86407463
0.953911	16523241.07723362
0.956359	13655378.95440777
0.958814	19076397.176389273
0.961277	13760176.100017192
0.963746	13614278.636061471
0.966222	19256352.011738658
0.968705	21414219.868914682
0.971194	23872781.13248475
0.97369	21892755.992827646
0.976193	27653207.967259184
0.978702	26232429.994722266
0.981217	27778696.793033943
0.983739	23927714.905327372
0.986268	29326644.170781605
0.988802	30805171.06763048
0.991343	26501952.59242659
0.99389	30657586.843410514
0.996444	31247635.479950078
0.999003	20669371.22607423
1.00157	21120406.939270396
1.00414	24167354.358088665
1.00672	25396251.120221514
1.0093	25796313.27402599
1.01189	27345518.46078906
1.01448	32817153.440626692
1.01708	33941397.93948141
1.01969	39391882.1465271
1.0223	39914979.43878045
1.02492	40236629.563234694
1.02754	40406834.23734525
1.03017	47199424.11881737
1.0328	47496293.022979885
1.03544	47900013.4102656
1.03808	56709392.2570446
1.04073	55460118.830263875
1.04339	56224473.5911584
1.04604	53912634.72074378
1.04871	54820485.863828845
1.05138	56387103.690962866
1.05405	60810275.4378684
1.05673	58649498.531952806
1.05941	65465724.633165635
1.0621	63447088.831130326
1.06479	67547577.45627841
1.06749	69420152.83648528
1.07019	75076110.73753966
1.07289	73057010.76464123
1.0756	75359201.37748739
1.07832	75830547.50144841
1.08104	76634804.48372857
1.08376	78934089.65507528
1.08649	71690209.30142967
1.08922	62543810.7712808
1.09195	54889703.787569426
1.09469	50140477.38531615
1.09743	39589789.91503323
1.10018	35601435.29037159
1.10293	28434757.01821147
1.10568	20900487.940357972
1.10844	25729107.208748385
1.1112	20402536.189053543
1.11396	17123081.775885466
1.11673	12912767.575377775
1.1195	18930535.376386277
1.12228	14916720.144397857
1.12505	18839987.403125327
1.12783	24687516.681812625
1.13062	22314473.486466803
1.13341	8923179.633299682
1.1362	11759464.61036586
1.13899	16269612.08580904
1.14178	24498938.139937386
1.14458	18947158.724644933
1.14738	19256556.717047468
1.15019	30564329.972500876
1.153	22652459.960792325
1.1558	17524307.012142904
1.15862	26719586.643143095
1.16143	16311862.683089897
1.16425	11529600.478898104
1.16707	15095320.981466688
1.16989	16906245.02704193
1.17271	25262620.765929196
1.17554	21586822.399999473
1.17837	15273561.60162495
1.1812	32616133.95345575
1.18403	34797892.733535156
1.18686	32648684.470645726
1.1897	37625543.82383121
1.19253	41559264.88816303
1.19537	47291644.60587694
1.19822	46560837.56580195
1.20106	50120638.568786785
1.2039	53605269.07841826
1.20675	60197696.309007674
1.2096	67615296.7415318
1.21245	70174352.10003561
1.2153	72579911.42611246
1.21815	73351669.65705276
1.221	77667558.29308626
1.22385	82935258.00979893
1.22671	85899782.34329155
1.22957	91003105.12959988
1.23242	93242904.28485583
1.23528	89312912.45370507
1.23814	91939127.22610246
1.241	86908294.59497061
1.24387	72250305.66783994
1.24673	95357720.85304661
1.24959	82945429.06671022
1.25245	55189668.94785691
1.25532	92872930.09553589
1.25818	106092772.72251993
1.26105	113337443.09334569
1.26392	98247252.17808183
1.26678	107925854.67009532
1.26965	97913359.71317932
1.27252	111426603.12918738
1.27538	114524190.80341506
1.27825	109453442.32288118
1.28112	110311713.98530044
1.28399	88076897.50847015
1.28686	92799098.90288085
1.28973	90133073.40549146
1.2926	92842410.48092009
1.29546	79051338.23209885
1.29833	71163999.78701536
1.3012	88045946.05851485
1.30407	90768829.59675054
1.30694	74691517.94401583
1.30981	80292669.95598082
1.31267	81838722.7547461
1.31554	66421850.11167487
1.31841	61258983.16164001
1.32128	71650334.45454568
1.32414	49873302.13310592
1.32701	31224899.105559148
1.32987	23631119.810993016
1.33274	15733992.033965988
1.3356	11506158.115607517
1.33847	3202608.016366258
1.34133	2713931.356082995
1.34419	3500408.5194954057
1.34705	2764417.556210106
1.34991	3701573.427327267
1.35277	4219698.148743503
1.35563	1648913.7993722514
1.35849	1704454.7498143231
1.36135	2364917.810383959
1.3642	3631034.029954849
1.36706	3291153.9517138996
1.36991	2924653.4017515616
1.37277	3272372.990989666
1.37562	2345161.17718952
1.37847	1818064.919107516
1.38132	3030449.660849998
1.38417	1480523.2582411333
1.38701	460550.4273578959
1.38986	2259522.353298643
1.39271	3058621.66511915
1.39555	1877445.1081562564
1.39839	3000592.3192062834
1.40123	4170176.195052321
1.40407	3864666.0211880105
1.40691	2773598.405561704
1.40974	2008206.0925480013
1.41258	3304632.3475180357
1.41541	3505321.723101819
1.41824	1600531.5694376573
1.42107	981864.7104821315
1.4239	1096783.8254746762
1.42673	3688284.28651891
1.42955	4911677.308916106
1.43237	3111793.583294025
1.43519	4938836.488991849
1.43801	5601402.07776958
1.44083	4633125.624245702
1.44365	5347747.854835153
1.44646	4662975.115962016
1.44927	6208302.18534486
1.45208	9252745.184822397
1.45489	7199966.809503249
1.45769	11097888.223391177
1.4605	9962763.545231644
1.4633	5962414.342892665
1.4661	9648743.080540597
1.4689	9357097.828436201
1.47169	8806350.789937546
1.47449	8871651.073312396
1.47728	9303410.892013822
1.48007	9382456.078717204
1.48286	10789327.641620249
1.48564	10136837.266027842
1.48842	10847069.224153526
1.4912	12884488.571823375
1.49398	10212697.749962382
1.49676	13681675.502912698
1.49953	14686966.380117448
1.5023	19856441.803115807
1.50507	23174773.15219274
1.50784	19056915.555069398
1.51061	21695983.294332884
1.51337	23404399.727118637
1.51613	18061236.741193797
1.51888	15577028.482201062
1.52164	19380342.030800052
1.52439	24957257.85571949
1.52714	20603887.554085393
1.52989	22235170.27781669
1.53263	27232664.186186947
1.53538	32214084.079586286
1.53812	28866906.919420674
1.54086	25335047.983371817
1.54359	22560212.413300525
1.54632	30177091.21353918
1.54905	32178142.96246818
1.55178	31722191.599526394
1.5545	31582296.06844502
1.55723	34460267.403645515
1.55995	38500512.29550179
1.56266	36161317.14504151
1.56538	41718145.429743856
1.56809	48922649.84277977
1.5708	46021914.945476174
1.57351	46719356.937322795
1.57621	46158315.1301559
1.57891	45410122.88855046
1.58161	50125660.62141729
1.5843	49407498.14854102
1.587	49821512.12427702
1.58969	47187433.607825436
1.59238	43510241.56624493
1.59506	48694291.057452865
1.59774	51098525.85187751
1.60042	46702805.95509493
1.6031	43235592.31464778
1.60577	40071827.5472674
1.60844	36421891.57841862
1.61111	39558232.4078462
1.61378	37996028.92771967
1.61644	35429762.24051094
1.6191	32475792.974679165
1.62176	36498362.1682359
1.62441	36570725.03975432
1.62707	37956509.529449895
1.62971	36117101.54297519
1.63236	38303365.62781081
1.635	44217065.92999163
1.63764	47562250.87121725
1.64028	36558152.03328816
1.64292	36871568.702096984
1.64555	32140249.60068676
1.64818	32884342.923373338
1.65081	41178461.60783361
1.65343	40438536.13265225
1.65605	32451648.71979051
1.65867	32113918.224094696
1.66128	42524153.84274906
1.6639	35086450.41827496
1.66651	11437859.633537643
1.66911	5405935.448918349
1.67172	15678127.209213141
1.67432	25484388.693665452
1.67692	31771095.335406587
1.67951	28950412.91419407
1.68211	24848420.91065745
1.6847	18034226.178420126
1.68728	18363377.723906048
1.68987	18132674.124717284
1.69245	15138926.95417441
1.69503	14117652.02745237
1.6976	14214393.183547297
1.70018	15233225.204558246
1.70275	11524974.518905146
1.70531	10802787.73781544
1.70788	15329534.376497272
1.71044	19652365.768792797
1.713	23493278.847840488
1.71556	24851872.354996867
1.71811	25247633.731397346
1.72066	20218757.001926254
1.72321	12483041.596091783
1.72575	16461439.743906973
1.7283	21400772.388537634
1.73084	21403939.43305485
1.73337	15399630.995266981
1.73591	13867026.526129693
1.73844	15988705.158049341
1.74097	14634849.361789672
1.74349	13876683.052941266
1.74602	16329879.018077185
1.74854	20718997.742547065
1.75105	20686687.84350055
1.75357	15183857.107857516
1.75608	10159214.55875411
1.75859	9700792.972278921
1.7611	9548635.437802136
1.7636	10869270.55435187
1.7661	10498115.214989284
1.7686	9136503.69407484
1.7711	10637039.121402223
1.77359	8823540.542060332
1.77608	6165489.504823327
1.77857	8481049.859337527
1.78105	10279733.198948825
1.78354	7533674.657804741
1.78602	6487467.764442807
1.78849	7901278.249976168
1.79097	6999196.380441449
1.79344	6305158.701821029
1.79591	7522593.70369976
1.79837	10174212.109097028
1.80084	7160870.372617235
1.8033	6364489.882736326
1.80576	6476094.512734929
1.80821	6507294.117451761
1.81067	6565421.956352409
1.81312	7626273.345873043
1.81557	8237642.211368596
1.81801	5390342.854481025
1.82046	4661467.63182252
1.8229	6068414.187649098
1.82533	5396015.05917591
1.82777	4892549.305103628
1.8302	5426212.973779323
1.83263	5145081.052602076
1.83506	4736975.446215717
1.83749	5028206.850156446
1.83991	5574526.761969927
1.84233	6423998.761070809
1.84475	7480210.6090336535
1.84716	6205969.866048018
1.84957	6279931.475749037
1.85198	6930948.357108442
1.85439	5605354.766717647
1.8568	3858839.587304247
1.8592	2751043.686329535
1.8616	3251681.8744889516
1.864	3548552.941234148
1.86639	2994889.460535697
1.86878	2754499.07333478
1.87118	4218041.666263376
1.87356	4695558.748449506
1.87595	4792162.33541371
1.87833	7422613.6596613955
1.88071	9490320.106422836
1.88309	8066350.140606998
1.88547	7304654.236370757
1.88784	8706649.057401823
1.89021	9438752.522684133
1.89258	10679646.59947296
1.89494	12356561.879651569
1.89731	10804012.872469686
1.89967	7941638.906292292
1.90203	7822182.3797714515
1.90439	8082905.950436009
1.90674	10324066.32547891
1.90909	11056917.392462477
1.91144	6836395.421694893
1.91379	6255742.945164077
1.91613	9668191.859576706
1.91848	10750152.00467215
1.92082	8265618.311917284
1.92315	6963140.274118292
1.92549	7626220.477467344
1.92782	7794727.959127699
1.93015	6208897.195388177
1.93248	4881985.114790615
1.93481	4296049.671791307
1.93713	3308798.8626839467
1.93945	3071761.9477687385
1.94177	5457801.352255926
1.94409	7090957.3969813585
1.94641	6899206.466048912
1.94872	7326368.419979352
1.95103	9242115.968373898
1.95334	8864284.96804191
1.95564	6394110.816020038
1.95795	5604126.991789171
1.96025	4708298.220096835
1.96255	4445132.859027375
1.96484	6538503.694169939
1.96714	7994096.511890573
1.96943	7500762.1849281695
1.97172	8249103.350586035
1.97401	8673406.53836136
1.97629	8448423.261368716
1.97858	8909630.590317756
1.98086	7780441.491649387
1.98314	6082650.586644887
1.98541	7219581.445195288
1.98769	9910716.366368754
1.98996	9647850.522567356
1.99223	8673948.771681413
1.9945	9957122.52248257
1.99677	10493137.715606762
1.99903	9717129.555809211
2.00129	9419873.107095614
2.00355	10067923.745770033
2.00581	11262861.697494145
2.00806	11318436.629372068
2.01031	11874945.338503074
2.01256	15097664.93638518
2.01481	16411855.662594803
2.01706	13957233.159956045
2.0193	13619109.483118612
2.02154	16003103.287247205
2.02378	16410343.431984827
2.02602	14149502.605723947
2.02825	13333095.440302782
2.03049	14752887.748952724
2.03272	17251934.270499967
2.03494	17932795.073160324
2.03717	17038373.189978532
2.03939	17003447.431266565
2.04162	18966831.430483885
2.04384	21153461.540997345
2.04605	21343052.65968777
2.04827	19894436.51940733
2.05048	19869037.77843328
2.05269	19590849.705674138
2.0549	17687878.25288551
2.05711	19134869.641751513
2.05931	20739514.957999628
2.06151	20425664.446291365
2.06371	20319526.95843572
2.06591	19878517.915735055
2.06811	20724983.924339686
2.0703	22565641.543236524
2.07249	23740747.717613477
2.07468	23528427.036995836
2.07686	22586697.871381197
2.07905	22794923.278139044
2.08123	23802701.65301846
2.08341	24230484.708228007
2.08559	23738746.688497636
2.08776	23883771.789752647
2.08994	24556464.408329435
2.09211	24534534.53116165
2.09428	25008992.36099533
2.09645	25766632.09721225
2.09861	25012837.830298703
2.10077	23484443.94285893
2.10293	23042880.67547648
2.10509	23749934.485169977
2.10725	23881906.979084853
2.1094	22044457.125583686
2.11155	19321006.224897187
2.1137	18774104.644471794
2.11585	19515901.416195378
2.11799	20405946.50027856
2.12013	21797807.695198584
2.12227	22336327.67720208
2.12441	22476512.887580585
2.12655	22273652.429031834
2.12868	21314031.060254466
2.13081	20918693.22937928
2.13294	20773754.338859178
2.13507	19276831.186754193
2.13719	18162750.75364449
2.13931	19100255.623673856
2.14143	19946920.096843846
2.14355	19188696.719621047
2.14567	17756787.615929335
2.14778	15735647.552490957
2.14989	14401148.45785242
2.152	14642979.599669999
2.1541	14765759.873496037
2.15621	14479123.60277044
2.15831	13858921.710227765
2.16041	12604629.764173467
2.16251	12343683.57260713
2.1646	12754459.552594354
2.1667	12811296.04652949
2.16879	13381107.488157444
2.17087	14194704.980718194
2.17296	13963607.502067903
2.17504	13519792.296832068
2.17713	13538606.011173185
2.1792	12840060.014671495
2.18128	10874779.141969537
2.18336	8700003.27543449
2.18543	7990391.94359798
2.1875	8075772.975032513
2.18957	7739100.407673023
2.19163	7673393.266621607
2.1937	8048916.07962763
2.19576	7303160.802673005
2.19782	5236235.510283196
2.19987	3265571.6521966085
2.20193	2419280.257598093
2.20398	2325623.0378104937
2.20603	2289324.795836647
2.20808	2381916.120955254
2.21012	2571255.606172115
2.21217	2771449.9531639833
2.21421	3271780.608717429
2.21625	3781782.9449634105
2.21828	3913712.395806446
2.22032	4072257.76921891
2.22235	4258232.714145311
2.22438	4134413.994245059
2.22641	3643452.5355208004
2.22843	3471670.411734955
2.23046	3313401.9104819074
2.23248	2703622.0614913874
2.2345	2142885.5641045547
2.23651	1876905.6411793705
2.23853	1866376.359126182
2.24054	2162323.724856562
2.24255	2633696.16820379
2.24456	3059739.4306388358
2.24657	3273961.7466167626
2.24857	3225197.548616109
2.25057	2929880.9768568943
2.25257	2506951.801380527
2.25457	2108244.1177755836
2.25656	1890115.4535835397
2.25856	1816492.5779527354
2.26055	1759696.840784336
2.26254	1525915.025685311
2.26453	1359709.7692584821
2.26651	1437060.1603074681
2.2685	1554677.025981867
2.27048	1597648.0919417804
2.27246	1685737.2641302396
2.27443	1696150.4003378004
2.27641	1736591.6446307113
2.27838	1887462.4737065658
2.28036	1882232.5150981685
2.28233	1699445.2136683716
2.28429	1509892.0653963066
2.28626	1350441.0089533436
2.28823	1212814.668093979
2.29019	1094045.5353453367
2.29215	992945.1855430295
2.29411	978224.9289700147
2.29607	1060814.2273661017
2.29802	1265951.3663123278
2.29998	1571140.5295838532
2.30193	1948743.8511883782
2.30388	2264101.5761222797
2.30583	2418555.1864304086
2.30778	2587297.9804760683
2.30972	2880931.337915268
2.31167	3161677.553289834
2.31361	2866927.085253523
2.31555	2076539.3371621678
2.31749	1321194.397785876
2.31943	1086221.2132843633
2.32137	997897.4084299876
2.32331	858877.8567258661
2.32524	720637.7531548673
2.32718	606849.1203740026
2.32911	553581.3443333755
2.33104	590709.8776804034
2.33297	701976.9528788232
2.3349	900596.2459757383
2.33683	1200602.2143725592
2.33876	1417265.7710306027
2.34068	1504325.7065862105
2.34261	1546024.0113353448
2.34453	1639110.7968408703
2.34646	1773716.5124654092
2.34838	1854180.032613294
2.3503	1773720.3230072034
2.35223	1707370.5736540724
2.35415	1615604.3955474584
2.35607	1437936.0031653165
2.35799	1484738.4853400218
2.35991	1787164.1833991946
2.36183	2114299.4709214903
2.36375	2332970.636454597
2.36566	2492573.493146143
2.36758	2405700.4429683937
2.3695	2148931.51223514
2.37142	1929721.3204624855
2.37334	1782813.3470857446
2.37526	1521607.7229026004
2.37718	1236222.4286429253
2.3791	1097653.4002028394
2.38101	1061925.6296690109
2.38293	1086064.4245505878
2.38485	1245446.8316122815
2.38677	1617976.8051721228
2.3887	1940198.2093721495
2.39062	1945535.5108008042
2.39254	1885260.7384711988
2.39446	2053560.572405468
2.39639	2251803.206290067
2.39831	2236373.287360469
2.40024	2239151.855185482
2.40216	2402220.5072778347
2.40409	2728111.56918951
2.40602	2796028.9268151717
2.40795	2657974.3479936305
2.40989	2739726.833827057
2.41182	3052136.6805390134
2.41376	3182116.072560083
2.4157	3322554.025920835
2.41764	3388626.4898808734
2.41958	3306417.0316136023
2.42152	3092643.2217746526
2.42347	3008586.2596021355
2.42542	3056303.779103842
