#wavelength	surface flux
0.676892	499979.39683113986
0.678297	528839.0057482704
0.679702	555646.8256679977
0.681109	580939.8747588163
0.682517	604358.8096953935
0.683926	626518.8260830785
0.685337	646607.4953069141
0.686749	664591.1111482456
0.688164	680314.4981405896
0.689581	692260.6545186886
0.691	698141.9407310343
0.692422	702253.313807353
0.693847	703878.0853194938
0.695274	713268.1200414248
0.696705	715369.6025570048
0.698139	713190.1625685551
0.699576	706715.3154992235
0.701017	697860.0883808258
0.702461	685757.5957805726
0.70391	673208.1317453197
0.705362	657404.8838088942
0.706819	639442.9018595873
0.70828	619853.9470766658
0.709745	597206.07576873
0.711216	573697.9190633143
0.71269	548792.4651663506
0.71417	523353.5619073742
0.715655	492912.40594760055
0.717145	460384.873571636
0.71864	433257.6514671573
0.72014	408681.5557523862
0.721647	382694.22727986943
0.723158	358115.4599651522
0.724676	330088.6414281952
0.726199	302692.9274883925
0.727728	275003.93030964484
0.729264	253300.58606862227
0.730805	229138.25666477828
0.732353	210097.66650598907
0.733907	189119.99353301935
0.735468	167387.36748942782
0.737035	150481.64725108095
0.738609	132862.7997658034
0.74019	116818.53104340393
0.741777	101784.82337204777
0.743372	88101.71341617306
0.744973	75478.33260341731
0.746582	63963.81169931756
0.748197	53612.62188224007
0.74982	44532.07169125272
0.751451	36453.05542793823
0.753088	29427.07188343895
0.754734	23406.446085607306
0.756386	18325.958234929865
0.758047	14091.390087182826
0.759715	10613.472811213118
0.76139	7758.4816554522085
0.763074	5297.014612785517
0.764765	2917.9262123211465
0.766464	1089.717369467019
0.768172	2127.419259723048
0.769887	1547.0319229560328
0.77161	4254.055455450063
0.773341	7932.718488069084
0.775081	11977.309431252705
0.776829	16977.691391812965
0.778585	20866.751585683174
0.780349	21965.01509214777
0.782121	40414.28071487835
0.783902	54216.02591384761
0.785691	69712.33888703604
0.787489	88121.15976302576
0.789295	109552.65661608765
0.79111	133488.9121760608
0.792933	144380.61648327787
0.794764	98520.9843157907
0.796604	209111.96291431948
0.798453	275351.0192278235
0.80031	328381.52234217734
0.802176	385337.2529192696
0.804051	449252.13513795234
0.805934	518278.5643206267
0.807826	594718.5979434218
0.809727	676984.3176707681
0.811636	764227.103235666
0.813554	853239.4374610109
0.81548	972544.4345074956
0.817416	1086293.8445666437
0.81936	1157355.840308288
0.821313	1364197.7619701133
0.823274	1512439.5554836418
0.825244	1675026.1302957206
0.827223	1861612.8041119808
0.829211	2034464.650828075
0.831208	2214807.065025354
0.833213	2447681.126355367
0.835227	2659241.60034178
0.837249	2869421.4008889613
0.83928	3145671.0183929834
0.841321	3411359.48724874
0.843369	3692087.5995138325
0.845427	3963479.486094362
0.847493	4291234.395483136
0.849567	4436907.840571921
0.851651	3032263.3085765075
0.853742	4644548.097137216
0.855843	5675544.863388907
0.857952	6141168.656061405
0.86007	6414653.403477281
0.862196	5342788.870136423
0.864331	5914926.406602035
0.866474	6580209.337509134
0.868626	7031456.774929521
0.870786	7084819.023195907
0.872955	7431179.166909992
0.875132	7462471.241763879
0.877317	9242349.912847983
0.879511	9825586.943123102
0.881713	9683856.27731279
0.883923	10432219.458636489
0.886142	10956372.528641308
0.888369	10668081.185962621
0.890604	11965851.766053908
0.892847	9828234.868194617
0.895099	8456190.475563359
0.897358	13080791.444664842
0.899626	14897897.459064797
0.901901	16765539.280174948
0.904185	18340816.103313938
0.906476	18326968.47048881
0.908776	18380579.844465785
0.911083	19522480.352707162
0.913398	20233248.7100051
0.915721	21989975.682741
0.918051	22580096.43508968
0.92039	25167697.564815663
0.922736	25765321.86935578
0.925089	24826426.47572307
0.927451	20387795.86313069
0.929819	16650618.300160026
0.932195	15695981.976060806
0.934579	17239675.422213674
0.93697	25672824.949964
0.939369	28352122.10636951
0.941774	28512910.93660623
0.944187	25037865.621263336
0.946607	29564359.043737393
0.949035	29944068.890706103
0.951469	26738733.15692474
0.953911	28535514.013469532
0.956359	25398768.842532746
0.958814	32301871.564484864
0.961277	26255386.53069712
0.963746	26468687.319150906
0.966222	33646283.843609445
0.968705	37559288.174511716
0.971194	40803171.70016788
0.97369	39000003.48616109
0.976193	45312815.9231468
0.978702	45768779.886511855
0.981217	47886051.74083226
0.983739	46713317.30001258
0.986268	52239118.69892787
0.988802	52246789.74469131
0.991343	45483959.30796047
0.99389	49737460.92147942
0.996444	49149988.78875567
0.999003	38177142.43943812
1.00157	37741766.81024137
1.00414	42401066.880745284
1.00672	43446097.69892768
1.0093	46747227.550159395
1.01189	48916726.636057675
1.01448	54048125.92660641
1.01708	55669303.2847493
1.01969	60752042.55339215
1.0223	62589343.86347342
1.02492	63816372.2660757
1.02754	64053807.78634985
1.03017	69258063.6122673
1.0328	71837704.94051342
1.03544	73115065.58192466
1.03808	80230946.317078
1.04073	81205902.63823412
1.04339	81847197.28605472
1.04604	82626113.25008474
1.04871	83244828.92391397
1.05138	84953882.31829494
1.05405	88615641.36368386
1.05673	88189797.89395949
1.05941	92899178.67445394
1.0621	92496550.54081036
1.06479	97563769.76887561
1.06749	99562259.80205882
1.07019	104298895.68802798
1.07289	105156175.36180633
1.0756	108672971.47301391
1.07832	112139108.67296049
1.08104	111890349.33179998
1.08376	116644981.56595592
1.08649	109860667.16496567
1.08922	105457905.86717309
1.09195	98545233.16603708
1.09469	90220386.80661629
1.09743	77974195.34526128
1.10018	67480649.87853482
1.10293	55914621.221195884
1.10568	44002814.29468131
1.10844	46821167.61721714
1.1112	36720958.986222416
1.11396	31510854.968254663
1.11673	28777333.98101867
1.1195	37503831.414526075
1.12228	32606249.26753001
1.12505	40865157.00702619
1.12783	48517171.41516634
1.13062	42829715.971062936
1.13341	19780124.779733017
1.1362	25615513.371079355
1.13899	35978114.94548045
1.14178	43741164.19335004
1.14458	37646757.06003073
1.14738	41182270.95514879
1.15019	57374290.4914331
1.153	44937227.78665132
1.1558	40444002.11751458
1.15862	50264373.06356286
1.16143	35637487.654345706
1.16425	32612587.347994234
1.16707	29432803.6386607
1.16989	33011929.53978946
1.17271	44455839.5035216
1.17554	34748150.188195296
1.17837	29969607.7311828
1.1812	54237556.87077002
1.18403	58604802.980385065
1.18686	63275347.14529446
1.1897	70703525.39623883
1.19253	76861905.2088715
1.19537	83803620.63599601
1.19822	89049006.16160652
1.20106	95015941.8554316
1.2039	97895520.92895807
1.20675	104581918.83891048
1.2096	110124943.42360598
1.21245	113174022.58316922
1.2153	118829084.4880969
1.21815	120149386.70011951
1.221	127254420.12136868
1.22385	131868747.78085747
1.22671	134885006.4803607
1.22957	139351195.76400554
1.23242	141251836.47347018
1.23528	139220408.2190718
1.23814	136794354.1853325
1.241	119641219.9277804
1.24387	100964302.43115349
1.24673	126304014.00462677
1.24959	107128477.64036219
1.25245	74803209.251288
1.25532	118396468.04502593
1.25818	144535680.8172338
1.26105	156484472.46521217
1.26392	156800760.36279422
1.26678	163557336.9830763
1.26965	161891874.58421636
1.27252	167549408.34329438
1.27538	168458720.58466682
1.27825	169413427.82485986
1.28112	167848575.06956446
1.28399	152069904.24446973
1.28686	154544512.56922328
1.28973	153137357.0107639
1.2926	152019767.1686401
1.29546	140207862.3531395
1.29833	134985526.3253415
1.3012	143819968.507333
1.30407	148311816.34985852
1.30694	133954765.3991056
1.30981	140345701.8432079
1.31267	137797384.933416
1.31554	123482932.14332438
1.31841	115416738.00424615
1.32128	122832019.69839694
1.32414	93567153.14155973
1.32701	70958579.45027244
1.32987	52394488.95057137
1.33274	27317598.73425971
1.3356	19367962.035474293
1.33847	5696949.200144026
1.34133	4152646.0023482796
1.34419	5343131.847131537
1.34705	4393375.208969001
1.34991	4892441.755600264
1.35277	5557705.864322063
1.35563	2230665.7451641154
1.35849	2294807.577140519
1.36135	3210916.326039548
1.3642	5439208.568525075
1.36706	5931288.020743422
1.36991	5735492.3370700935
1.37277	5913875.707245586
1.37562	6279609.495125385
1.37847	5930887.791402324
1.38132	4457496.727498518
1.38417	2644947.539263992
1.38701	1402352.9714783991
1.38986	4284671.873476858
1.39271	4845957.118854333
1.39555	2990966.7003144086
1.39839	4777657.688287904
1.40123	5968473.762253298
1.40407	5897544.032909818
1.40691	4849228.8362164395
1.40974	3532707.163924549
1.41258	4926078.854587219
1.41541	5885395.94411086
1.41824	3219854.0922376253
1.42107	2637616.7041256046
1.4239	2616405.3463092176
1.42673	5689983.136253206
1.42955	7741432.913802604
1.43237	5708515.137060503
1.43519	7901801.3604473695
1.43801	8871019.97982698
1.44083	8237706.413539393
1.44365	9993097.081916803
1.44646	8945680.26261108
1.44927	11711787.146810606
1.45208	15704575.35953737
1.45489	11001435.64176664
1.45769	17135103.363457996
1.4605	17490466.999664277
1.4633	10889302.638347305
1.4661	17694416.148956902
1.4689	16791761.70885653
1.47169	18410961.79471445
1.47449	17673109.97436303
1.47728	17651659.51096291
1.48007	17958203.56188253
1.48286	19723661.0940831
1.48564	19098539.673892863
1.48842	19514824.459202494
1.4912	22420317.485415526
1.49398	22161054.81965032
1.49676	25831719.045395467
1.49953	27910433.533742636
1.5023	30287371.547459126
1.50507	34525445.96239716
1.50784	31898857.522667103
1.51061	35461014.23576009
1.51337	36829579.97720691
1.51613	33951037.52672438
1.51888	33656252.470773876
1.52164	38252917.44094094
1.52439	42718717.843514934
1.52714	39921228.67949882
1.52989	42741726.11148688
1.53263	47958534.58115298
1.53538	52919044.658555076
1.53812	52558990.05912187
1.54086	50231466.2058218
1.54359	48638177.377754085
1.54632	56031999.83349825
1.54905	56084715.958233334
1.55178	56104397.62381902
1.5545	59206343.71486996
1.55723	60056865.32676495
1.55995	64071731.04825773
1.56266	63739829.10471747
1.56538	66884201.01333599
1.56809	72941412.32050897
1.5708	72102392.5116324
1.57351	71892194.77740574
1.57621	73105251.66496132
1.57891	73131115.29649709
1.58161	74592205.33399574
1.5843	74688949.48145387
1.587	74637628.72894095
1.58969	72801390.51583613
1.59238	70666417.30095583
1.59506	72788644.75369418
1.59774	73740405.01495966
1.60042	71422541.67662928
1.6031	68443055.95496827
1.60577	64584223.101391606
1.60844	62222508.1327964
1.61111	63648527.08021927
1.61378	61233534.37117577
1.61644	57177759.01186121
1.6191	53322692.0142408
1.62176	56138413.135779284
1.62441	54816889.19175343
1.62707	55412779.67865612
1.62971	50444686.36113125
1.63236	54199466.817519315
1.635	56648780.24562123
1.63764	60397732.4020428
1.64028	53445129.3346812
1.64292	56221827.18903042
1.64555	49980237.53011832
1.64818	54456754.31901693
1.65081	59374321.42301706
1.65343	54960814.27594786
1.65605	50237652.75963042
1.65867	53086342.28584043
1.66128	60798038.31841876
1.6639	51194618.821209475
1.66651	20577831.2076386
1.66911	15999592.383905709
1.67172	34035914.119900905
1.67432	46894234.72955039
1.67692	51554778.62062043
1.67951	50260946.31573292
1.68211	43752089.3730251
1.6847	35964016.97363589
1.68728	38651245.26206367
1.68987	38681458.79120705
1.69245	32950521.775943086
1.69503	31093964.352656286
1.6976	30935817.888552397
1.70018	31634943.161652222
1.70275	27895729.559709933
1.70531	26556395.661384348
1.70788	31649130.830477398
1.71044	34704686.93526391
1.713	36288346.86467205
1.71556	37468399.36047892
1.71811	38108230.815117694
1.72066	35343066.08019938
1.72321	28121862.04227828
1.72575	31569402.85419337
1.7283	35152877.22143849
1.73084	33320146.440034058
1.73337	28679807.91262775
1.73591	27839409.685207605
1.73844	28921654.137020156
1.74097	27540411.87544208
1.74349	25911037.06883357
1.74602	25796044.335743267
1.74854	29716741.141940724
1.75105	28987964.511312004
1.75357	21954941.024774637
1.75608	16527740.694487756
1.75859	18570710.593216814
1.7611	18606495.762882672
1.7636	18063568.513307307
1.7661	16550048.335101264
1.7686	13861276.636195714
1.7711	14999533.701798733
1.77359	14644650.244053535
1.77608	10695338.523222752
1.77857	10957177.59329727
1.78105	12263906.845080746
1.78354	9657598.321514536
1.78602	8077859.257405422
1.78849	10073140.720461814
1.79097	9235851.911438428
1.79344	8124725.207091615
1.79591	9496814.467084454
1.79837	11957413.45779029
1.80084	8310452.094229158
1.8033	7534481.393257477
1.80576	7934365.851205851
1.80821	7714384.948268048
1.81067	7849207.738946441
1.81312	9370084.33883069
1.81557	10030102.099755654
1.81801	7581591.023159827
1.82046	6665368.874615202
1.8229	8079384.690680483
1.82533	7632547.048848929
1.82777	6121897.392043105
1.8302	6353629.5439345045
1.83263	6674994.477355262
1.83506	6530573.422880476
1.83749	6628426.988200961
1.83991	6954419.9653925905
1.84233	7708310.721397533
1.84475	9104582.96907271
1.84716	7910778.694753372
1.84957	8799469.958624009
1.85198	10332933.83434649
1.85439	7819517.401780928
1.8568	5443802.86414966
1.8592	4520981.9417410875
1.8616	4629699.975691805
1.864	4633601.385885333
1.86639	4056364.318123514
1.86878	3575358.988623829
1.87118	4862188.226033155
1.87356	5756381.448367971
1.87595	6562786.323367868
1.87833	9803276.515512628
1.88071	12068654.84847482
1.88309	10663310.02434297
1.88547	9605468.152337994
1.88784	11076913.222057756
1.89021	11479911.96838523
1.89258	12750397.651794508
1.89494	14348173.977195097
1.89731	12431226.18636656
1.89967	9640900.703611033
1.90203	9821740.729333984
1.90439	9889175.578174362
1.90674	12640861.574974583
1.90909	14108198.42105587
1.91144	9182285.729417937
1.91379	7771560.689448141
1.91613	11429353.344568877
1.91848	12615269.41932533
1.92082	9756491.985150531
1.92315	8300143.778818029
1.92549	8938637.28605332
1.92782	9212024.492471253
1.93015	7975978.34170649
1.93248	7194139.399768431
1.93481	6969379.561036598
1.93713	5473930.128519653
1.93945	4494751.752078725
1.94177	7217218.220685666
1.94409	8901891.502196668
1.94641	8017613.899371077
1.94872	8249111.012999541
1.95103	10562539.366245585
1.95334	10247405.752358709
1.95564	7607921.656042255
1.95795	7043268.143600659
1.96025	6544682.456184339
1.96255	6255888.048550839
1.96484	8314008.18057191
1.96714	10079025.241450766
1.96943	10021611.708974065
1.97172	10730198.568597656
1.97401	11064173.243380053
1.97629	11181082.414133506
1.97858	11651261.475269744
1.98086	10049804.385955019
1.98314	9069942.805313934
1.98541	11421174.600583546
1.98769	13376499.45880599
1.98996	11506059.821877295
1.99223	10491923.48952531
1.9945	12801045.720597647
1.99677	13982572.628949972
1.99903	12941480.635883616
2.00129	12523359.829508135
2.00355	13586091.125684688
2.00581	15247602.364643086
2.00806	14735950.387805816
2.01031	14933324.37860737
2.01256	18231972.343024593
2.01481	19335215.09502222
2.01706	17112304.83522941
2.0193	17255581.6332938
2.02154	20219352.58380522
2.02378	21207187.105986975
2.02602	19195489.438028514
2.02825	18088531.358009305
2.03049	19255084.93383486
2.03272	21709214.232496113
2.03494	22821411.40219287
2.03717	22526997.70427447
2.03939	22659297.964584526
2.04162	23968616.70743779
2.04384	25138391.70001291
2.04605	25517559.33543158
2.04827	24818754.412161253
2.05048	24519853.672344532
2.05269	24363248.17383136
2.0549	23628686.554466393
2.05711	24954817.61077113
2.05931	26029504.37144353
2.06151	25821666.873760615
2.06371	26133885.77039433
2.06591	26311880.51795633
2.06811	26845844.98167889
2.0703	27838637.82036588
2.07249	28344606.529874526
2.07468	27899588.536486916
2.07686	27582411.991947606
2.07905	28122784.72532257
2.08123	28636740.38553671
2.08341	28837666.860028733
2.08559	28717937.747332834
2.08776	28707608.38639564
2.08994	28896321.54190593
2.09211	28777857.205237944
2.09428	28839481.140101094
2.09645	29117010.34954617
2.09861	28767667.22502505
2.10077	28010187.71206044
2.10293	27815596.020436056
2.10509	28298599.596332014
2.10725	28424595.56172958
2.1094	27547894.439316843
2.11155	26238361.866773512
2.1137	25948985.903013643
2.11585	26314062.909218285
2.11799	26621681.508065432
2.12013	27090329.447530758
2.12227	27238421.721006613
2.12441	27295737.64171821
2.12655	27168546.546879403
2.12868	26582719.766093493
2.13081	26237828.437635705
2.13294	26110663.614861418
2.13507	25369832.10926104
2.13719	24858606.713954583
2.13931	25330262.685222063
2.14143	25578102.62863552
2.14355	24881692.028559998
2.14567	23745707.63323186
2.14778	22518693.113509983
2.14989	21809362.64760174
2.152	21765291.934034407
2.1541	21634355.90635911
2.15621	21405141.704463527
2.15831	20869487.720900193
2.16041	19846195.996074982
2.16251	19607374.716704898
2.1646	19888525.61732677
2.1667	20038957.75663839
2.16879	20504675.64963815
2.17087	20846689.05121924
2.17296	20369914.757640857
2.17504	19830055.22743566
2.17713	19620872.31518792
2.1792	18791223.76059246
2.18128	16836047.61797342
2.18336	15010757.468370177
2.18543	14989910.074482542
2.1875	15494412.136519592
2.18957	15041215.635901941
2.19163	14554690.7273284
2.1937	14222193.391193349
2.19576	12941259.292624323
2.19782	10550789.629880896
2.19987	8044818.071192729
2.20193	6640686.6767460145
2.20398	6176740.292591345
2.20603	6056630.916812828
2.20808	6431553.19305572
2.21012	6972775.15596653
2.21217	7338209.410019885
2.21421	8083130.7330152495
2.21625	8951715.261087999
2.21828	9391579.096880484
2.22032	9695409.338614263
2.22235	9751680.596461294
2.22438	9215186.433898093
2.22641	8002704.9703620905
2.22843	7249013.727457532
2.23046	7076308.8830915205
2.23248	6776948.347275696
2.2345	6294279.720982532
2.23651	5718156.619709056
2.23853	5383636.968411803
2.24054	5630285.999704356
2.24255	6306635.1139394045
2.24456	6912277.935101258
2.24657	7106477.73017449
2.24857	6978254.472184151
2.25057	6653054.347086679
2.25257	6190194.680819757
2.25457	5581853.574656148
2.25656	5214054.037203357
2.25856	5244316.334478032
2.26055	5222059.252603309
2.26254	4697429.136059336
2.26453	4277447.666752407
2.26651	4394544.9506163355
2.2685	4665919.489720912
2.27048	4826153.909818361
2.27246	5133726.725190765
2.27443	5184987.369496125
2.27641	5159002.616514141
2.27838	5360307.123686352
2.28036	5303451.974614271
2.28233	4902782.895300148
2.28429	4527256.647985281
2.28626	4137629.1116634035
2.28823	3776487.210040393
2.29019	3619056.7948257173
2.29215	3537211.626859465
2.29411	3522882.3114446076
2.29607	3658079.5555389617
2.29802	4074868.7552595297
2.29998	4663348.631092622
2.30193	5342784.660058815
2.30388	5889682.73544715
2.30583	6199996.044364741
2.30778	6592434.592534147
2.30972	7251849.679186696
2.31167	7753607.451230483
2.31361	6961643.916614509
2.31555	5173790.137065989
2.31749	3715577.8370281328
2.31943	3326853.468901157
2.32137	3177645.401411202
2.32331	2853024.0410070876
2.32524	2495509.0502339336
2.32718	2123530.5439757537
2.32911	1942951.0329355574
2.33104	2096676.581397048
2.33297	2420171.433345341
2.3349	2747151.4565086435
2.33683	3162211.8172257873
2.33876	3576584.5772363227
2.34068	3870871.998200208
2.34261	4090298.847970759
2.34453	4278242.148723574
2.34646	4364779.992259513
2.34838	4251771.8526922185
2.3503	3965639.8194072368
2.35223	3922032.9407701963
2.35415	3893461.691505935
2.35607	3628070.0010765614
2.35799	3836302.0542199654
2.35991	4503666.795903898
2.36183	5112863.344236035
2.36375	5580645.103033246
2.36566	6092126.45345666
2.36758	5859450.029632881
2.3695	4904413.884784378
2.37142	4054990.9213121133
2.37334	3777741.9907781337
2.37526	3608797.428692515
2.37718	3400218.8032237403
2.3791	3361179.584342334
2.38101	3390228.1167767337
2.38293	3379804.480709773
2.38485	3461495.650747898
2.38677	3995697.0465930817
2.3887	4715315.2387262285
2.39062	5040260.598594622
2.39254	5056146.751875924
2.39446	5205085.570633074
2.39639	5309403.953476027
2.39831	5057150.808263702
2.40024	4951132.5001997575
2.40216	5148194.872825198
2.40409	5542662.851950023
2.40602	5494178.428049194
2.40795	5305598.338800118
2.40989	5714154.58264772
2.41182	6555234.962028899
2.41376	6794524.83832176
2.4157	6608250.724090598
2.41764	6341196.754268759
2.41958	6292348.8901680475
2.42152	6254176.026266516
2.42347	6201290.949091921
2.42542	6029032.545018317
2.42737	6402685.810865733
2.42932	7153947.030686796
2.43128	7585970.91682456
