#wavelength	surface flux
0.676892	24715.7105368811
0.678297	26064.855764800704
0.679702	27356.636241009615
0.681109	28593.315825015245
0.682517	29724.315105045782
0.683926	30807.582530735486
0.685337	31790.907918915338
0.686749	32626.235199958333
0.688164	33315.21546491498
0.689581	33825.26582317581
0.691	33985.94680791421
0.692422	33512.374426587165
0.693847	33950.27679698719
0.695274	34049.34863423593
0.696705	34069.702019907614
0.698139	33973.05039040721
0.699576	33418.70640861532
0.701017	32787.67608434762
0.702461	31883.564129337836
0.70391	31308.47636690521
0.705362	30296.790704827486
0.706819	29302.57821192596
0.70828	28280.449605989506
0.709745	26922.781111348027
0.711216	25614.34232725513
0.71269	24316.32165714904
0.71417	23029.181236922006
0.715655	20993.936847946017
0.717145	18880.191676362534
0.71864	17292.788995675895
0.72014	16453.29629107023
0.721647	15553.813834874403
0.723158	14927.016925969541
0.724676	13585.022411624332
0.726199	12243.285047856467
0.727728	10655.511169842177
0.729264	10467.133115735603
0.730805	9429.855654523137
0.732353	9226.810856125841
0.733907	8521.915599648746
0.735468	7481.4705227933555
0.737035	7281.091598667594
0.738609	6713.553734979521
0.74019	6228.974771121952
0.741777	5768.36520965197
0.743372	5393.980738415013
0.744973	5006.51868748391
0.746582	4632.847970758126
0.748197	4275.932197796965
0.74982	3997.044208004218
0.751451	3698.5174910446476
0.753088	3408.097593654326
0.754734	3116.1112439914573
0.756386	2807.1277129551154
0.758047	2471.7229821007945
0.759715	2110.9467959637213
0.76139	1743.8027969385982
0.763074	1351.7402004367193
0.764765	767.8969002782994
0.766464	256.47380945408383
0.768172	516.0475224113375
0.769887	374.93499487138786
0.77161	1137.406496272645
0.773341	1939.567886486699
0.775081	2589.4322706721446
0.776829	3275.3508112060363
0.778585	3716.863475912414
0.780349	3695.3983727465065
0.782121	5424.65356727203
0.783902	6352.652106210458
0.785691	7275.687017984077
0.787489	8347.535098566777
0.789295	9522.849747758723
0.79111	10798.774279534457
0.792933	11388.548964968015
0.794764	8883.171234419422
0.796604	14641.908251741777
0.798453	17902.239754890616
0.80031	20598.506697956895
0.802176	23466.476556488044
0.804051	26946.180087984365
0.805934	30441.165714090846
0.807826	34533.36441431638
0.809727	38794.574797698326
0.811636	42876.864711453585
0.813554	45979.95594964341
0.81548	53679.79384439274
0.817416	62366.83246519013
0.81936	69572.25656349417
0.821313	79743.32655714764
0.823274	87050.69997407548
0.825244	96629.7799537022
0.827223	111871.31222694482
0.829211	121559.25023660163
0.831208	130246.7896730069
0.833213	150893.87962843082
0.835227	164504.75458967485
0.837249	172578.03636155798
0.83928	199233.07038712775
0.841321	221484.96176926364
0.843369	243546.16058115548
0.845427	263414.1509563806
0.847493	297434.7843181116
0.849567	305491.4831566201
0.851651	225862.1908123514
0.853742	343350.62774080643
0.855843	412946.04678640264
0.857952	449640.17641632695
0.86007	486218.8855093874
0.862196	497461.09579580964
0.864331	536212.405276688
0.866474	587239.3350246816
0.868626	637389.8672812693
0.870786	676582.2171059997
0.872955	726574.1373316938
0.875132	757867.9949556643
0.877317	825247.5056478566
0.879511	867894.1339219782
0.881713	784885.5593962538
0.883923	745841.8090218252
0.886142	795457.4335467803
0.888369	747258.5630462047
0.890604	811041.0866422347
0.892847	661612.8183818845
0.895099	563099.8205452838
0.897358	901198.6516816115
0.899626	1049585.9892246397
0.901901	1246029.9360173831
0.904185	1510654.8643748949
0.906476	1639315.7478135468
0.908776	1403545.8936196337
0.911083	1622057.5804528934
0.913398	1531434.5470736094
0.915721	1767615.6956048235
0.918051	1717831.8708181446
0.92039	1928443.5815736218
0.922736	1902478.5558046591
0.925089	1585215.6945713896
0.927451	992979.1833592211
0.929819	564717.100261153
0.932195	476432.9215016658
0.934579	513752.495726639
0.93697	1295123.0756281512
0.939369	1614400.313633715
0.941774	1475727.8495768807
0.944187	1198169.9354474258
0.946607	1476252.2434119894
0.949035	1688969.673878017
0.951469	1009858.3144700164
0.953911	1240653.5253059145
0.956359	986037.6224717408
0.958814	1469120.7308147284
0.961277	868822.3258145114
0.963746	1182262.7746671808
0.966222	1572716.8935509475
0.968705	1945909.5260188964
0.971194	2162231.2391424733
0.97369	1910658.1920563912
0.976193	2521559.215914274
0.978702	2384910.922174142
0.981217	2442337.1572931367
0.983739	2035457.6944146785
0.986268	2657107.8357893825
0.988802	2808318.775478236
0.991343	2868327.75744837
0.99389	3350563.0423103315
0.996444	3658785.9844429726
0.999003	3209832.3134358334
1.00157	3855737.370240376
1.00414	4351395.8342998205
1.00672	4833510.576466635
1.0093	4842861.819100106
1.01189	5196835.24509986
1.01448	5590320.544529849
1.01708	5923897.133940242
1.01969	6247320.455657802
1.0223	6446290.9149364345
1.02492	6674015.49929051
1.02754	7005352.343355078
1.03017	7398875.367688445
1.0328	7296344.579768361
1.03544	7813649.682326513
1.03808	8526742.077791328
1.04073	8333989.851871597
1.04339	8707148.65241613
1.04604	8849233.65182378
1.04871	9099214.684313403
1.05138	9357256.845671667
1.05405	9926166.723189231
1.05673	9943177.690528076
1.05941	10411864.858548265
1.0621	10490845.972383548
1.06479	10510523.520202069
1.06749	10618714.883155277
1.07019	10967808.96283077
1.07289	10943332.692469014
1.0756	10925355.808839062
1.07832	10445365.305141902
1.08104	10843289.626124552
1.08376	10846177.004020872
1.08649	9764484.781175816
1.08922	7872952.0001027
1.09195	6667009.0218889285
1.09469	5547473.707544791
1.09743	4512629.441200548
1.10018	3492864.696043615
1.10293	2478778.850265491
1.10568	1715697.1432110043
1.10844	2068051.9781633706
1.1112	1374056.8274936434
1.11396	1141546.1125694562
1.11673	865205.4868686238
1.1195	1175177.7201815806
1.12228	813893.0862004288
1.12505	1343493.9080742523
1.12783	1598400.5828725172
1.13062	1653552.1997079677
1.13341	541939.0647870975
1.1362	719404.5701033303
1.13899	1625263.0559138157
1.14178	2265014.545381584
1.14458	1396351.5696833583
1.14738	1239468.2462002274
1.15019	2199274.68966115
1.153	1469716.655715194
1.1558	1115212.8994863795
1.15862	1774330.883870271
1.16143	929598.1413656501
1.16425	697858.8764901555
1.16707	1187482.368224912
1.16989	1602271.6191476837
1.17271	2355433.6789157456
1.17554	2517354.015686577
1.17837	1867786.0146213204
1.1812	4055961.987950941
1.18403	4306415.65056413
1.18686	3872195.9590881043
1.1897	4817430.383483169
1.19253	5297778.931849349
1.19537	6146557.183437888
1.19822	6410843.398667375
1.20106	7038568.119099735
1.2039	7782628.050396161
1.20675	9059540.808242448
1.2096	9364343.376022441
1.21245	9536037.788374051
1.2153	10288112.702009993
1.21815	9942722.959097901
1.221	10908738.86226616
1.22385	11699059.447228307
1.22671	12258101.12303743
1.22957	13651594.444190018
1.23242	13724706.87523685
1.23528	13745794.64947954
1.23814	14119406.936224915
1.241	14447726.488908796
1.24387	13647632.806802597
1.24673	15510378.34870661
1.24959	14597708.234028451
1.25245	12286195.241846953
1.25532	16223382.061910288
1.25818	17097103.247562308
1.26105	17544548.34017228
1.26392	15436939.963816755
1.26678	16202461.340179553
1.26965	14729872.603744883
1.27252	16212644.958955718
1.27538	16573574.978149738
1.27825	15573964.729682313
1.28112	15049239.670302354
1.28399	11521721.212993944
1.28686	11519381.304788625
1.28973	11316800.471769981
1.2926	11001573.788805738
1.29546	9081951.711991543
1.29833	8520010.897150388
1.3012	10399893.322023684
1.30407	10634228.90645935
1.30694	8940952.688269133
1.30981	9578963.125707367
1.31267	9133220.202786626
1.31554	7234723.801972594
1.31841	6681698.8734848695
1.32128	9057430.30233964
1.32414	6037097.802103582
1.32701	3886584.888946908
1.32987	2248338.004707397
1.33274	1804119.0234437662
1.3356	1445203.6511862716
1.33847	324028.43739356595
1.34133	263213.86301160476
1.34419	355944.11884586484
1.34705	231947.005328875
1.34991	297959.10361876746
1.35277	314440.2676308874
1.35563	118398.09633565249
1.35849	99138.06809812177
1.36135	137225.2022770539
1.3642	258206.4401836665
1.36706	216728.28942074065
1.36991	200209.56889997397
1.37277	222385.5188792301
1.37562	222189.18635574044
1.37847	176799.09347411522
1.38132	209201.810121289
1.38417	83718.54966169802
1.38701	30697.964259886303
1.38986	186224.20943851952
1.39271	284731.87656843493
1.39555	123239.39220767029
1.39839	175159.17883099857
1.40123	248913.68192587784
1.40407	236859.80239982443
1.40691	193130.72696444974
1.40974	139985.10734935716
1.41258	277842.9032454655
1.41541	330633.5224473555
1.41824	145224.82675945025
1.42107	74681.06750445785
1.4239	84418.33449345506
1.42673	354715.0666113068
1.42955	520572.24965444015
1.43237	324009.2681165359
1.43519	572470.4093838746
1.43801	606580.68031048
1.44083	527799.3004005016
1.44365	601119.6814831676
1.44646	513782.4218672516
1.44927	795903.2782829228
1.45208	1281966.5392631793
1.45489	938588.5917026587
1.45769	1423644.2218047436
1.4605	1204202.720589318
1.4633	865329.2700577461
1.4661	1468885.2584162434
1.4689	1350240.2426853452
1.47169	1190224.8323923748
1.47449	1022092.9345823076
1.47728	1009545.4450960151
1.48007	996650.5424047103
1.48286	1248984.2290983764
1.48564	1225308.8327821582
1.48842	1372150.2522464541
1.4912	1488220.1078360754
1.49398	1066541.293679524
1.49676	1401962.779261371
1.49953	1834999.3134552075
1.5023	2429974.5535288807
1.50507	2845106.693016964
1.50784	2604312.8036398506
1.51061	2787859.873830086
1.51337	2714198.861764888
1.51613	2080352.585091891
1.51888	1876578.1511158946
1.52164	2604188.5719248625
1.52439	3305253.3822428896
1.52714	2899243.3204332697
1.52989	3335650.058898563
1.53263	3944423.4132222105
1.53538	4747321.9138041055
1.53812	4692184.692174652
1.54086	3424021.741973213
1.54359	3876722.542541017
1.54632	4968178.202206096
1.54905	4846305.131772562
1.55178	4520228.987714419
1.5545	5114296.344096501
1.55723	6074575.762746235
1.55995	6801644.532331625
1.56266	5981828.74732916
1.56538	8306918.918492544
1.56809	9892320.887471309
1.5708	9218574.83615944
1.57351	8751478.659305777
1.57621	9143776.241959047
1.57891	8935995.994909434
1.58161	10011947.806174349
1.5843	9726461.251353424
1.587	9592501.305840822
1.58969	8917568.224609926
1.59238	7985815.418819567
1.59506	9100451.993939131
1.59774	9620165.026085299
1.60042	8482951.322760679
1.6031	7244109.137987809
1.60577	6597044.337695168
1.60844	5718145.272923668
1.61111	5496134.534634276
1.61378	4795328.168575973
1.61644	4392574.580670919
1.6191	3881624.034569245
1.62176	4540016.277548734
1.62441	4748834.055165195
1.62707	4774877.550975106
1.62971	4781610.38660005
1.63236	4465724.996872901
1.635	5708131.937005742
1.63764	6509124.371822916
1.64028	5311864.505937444
1.64292	4940543.1592585975
1.64555	3747638.9806867405
1.64818	3308638.652647386
1.65081	5201206.14818289
1.65343	5717519.708012203
1.65605	3794080.084746384
1.65867	3755029.1172327143
1.66128	5629688.398054354
1.6639	4383406.484395874
1.66651	1070335.616284886
1.66911	400030.3307222863
1.67172	1595852.419342015
1.67432	2881487.672257795
1.67692	3868647.150002644
1.67951	3217047.354650245
1.68211	2373436.8443841715
1.6847	1598693.1139518884
1.68728	1466708.8154252833
1.68987	1426867.4350030848
1.69245	1115236.8780656043
1.69503	1089979.871131814
1.6976	1024739.0860954686
1.70018	1049677.6295719724
1.70275	754322.2894602028
1.70531	805454.6346539996
1.70788	1350023.5819486873
1.71044	2113386.2559086476
1.713	3052775.977003717
1.71556	3322189.5691436725
1.71811	3284404.20700899
1.72066	2515851.2204513093
1.72321	1460184.1405273597
1.72575	2232905.145213442
1.7283	2801460.8444679347
1.73084	2835646.419687943
1.73337	2005428.2742765758
1.73591	1744747.6587906268
1.73844	2247034.612120179
1.74097	2196205.6572299707
1.74349	2228978.749629112
1.74602	2724791.9888539542
1.74854	3362127.637891266
1.75105	3414748.888509369
1.75357	2515920.892846445
1.75608	1408685.3674014185
1.75859	1248441.2921820935
1.7611	1197596.8300044648
1.7636	1345643.7132201835
1.7661	1432404.7226450278
1.7686	1300933.0160614273
1.7711	1580127.537534467
1.77359	1307980.4738157536
1.77608	886400.8429078924
1.77857	1269010.3085931994
1.78105	1664347.8381434202
1.78354	1169502.1240867798
1.78602	907651.4482893009
1.78849	1112361.3159123864
1.79097	959797.4805577268
1.79344	823456.1506741116
1.79591	1028823.4490995726
1.79837	1506369.246922596
1.80084	1005661.1593095805
1.8033	786529.9666964011
1.80576	815150.7809182309
1.80821	848217.6118497495
1.81067	864614.9186049863
1.81312	1093238.0342003023
1.81557	1146294.493803205
1.81801	703861.4792643439
1.82046	563663.6700582259
1.8229	793630.3441945777
1.82533	699568.4518979635
1.82777	521322.0561470317
1.8302	574273.4045906954
1.83263	578742.9172522749
1.83506	492090.5786400332
1.83749	462560.65796874353
1.83991	561112.9439366724
1.84233	793473.2883758381
1.84475	1124155.295807808
1.84716	833851.9914164409
1.84957	863859.0861664093
1.85198	1169357.289713147
1.85439	890264.5532952743
1.8568	493635.3607642131
1.8592	295557.7055241168
1.8616	378884.4061281807
1.864	440316.67280577397
1.86639	331443.51735721726
1.86878	234305.0402361644
1.87118	376586.91225470556
1.87356	452383.6115496598
1.87595	585634.251863369
1.87833	1234854.494091786
1.88071	1565111.1311884597
1.88309	1232926.6102576284
1.88547	1088892.1462592084
1.88784	1340391.2023998536
1.89021	1437307.6259195784
1.89258	1661440.0207091433
1.89494	2117768.295746666
1.89731	1823451.611415443
1.89967	1140026.103401817
1.90203	1101814.704368058
1.90439	1055247.5632807915
1.90674	1258867.896879202
1.90909	1199225.0608543404
1.91144	534069.4945378486
1.91379	476135.4138304438
1.91613	972672.0709729155
1.91848	1148802.5028511924
1.92082	763447.5570979028
1.92315	628554.5018324935
1.92549	738175.5726873098
1.92782	731197.2603354149
1.93015	536807.7522789482
1.93248	354878.011644481
1.93481	335921.67941453727
1.93713	334339.8622675852
1.93945	349519.2486080373
1.94177	675682.2366468981
1.94409	814558.5563056724
1.94641	708903.4438573513
1.94872	660743.9258591176
1.95103	803158.2956577127
1.95334	840921.3432374377
1.95564	685490.7899574327
1.95795	687554.3759459171
1.96025	580545.9046773777
1.96255	522231.2018183306
1.96484	859184.5974992006
1.96714	1161265.98108324
1.96943	1120037.4586911516
1.97172	1169484.2008790406
1.97401	1146833.9837801056
1.97629	1095704.9536812294
1.97858	1167174.738312706
1.98086	944829.1098488
1.98314	679382.7855397498
1.98541	995620.9544706772
1.98769	1519128.7256141086
1.98996	1446622.2351989502
1.99223	1294716.7593054536
1.9945	1652995.8435110927
1.99677	1939169.9656093305
1.99903	1923824.893038124
2.00129	1838846.1334117197
2.00355	1680701.3625913823
2.00581	1739088.2009822696
2.00806	1975578.6768886952
2.01031	2144615.9981571916
2.01256	2510338.6478748242
2.01481	2647356.6701327297
2.01706	2327365.12885281
2.0193	2232530.9664804004
2.02154	2561541.440223212
2.02378	2864335.3953558365
2.02602	2700331.3784550284
2.02825	2374635.127104857
2.03049	2439990.424769074
2.03272	2806993.081924962
2.03494	3053959.1735101487
2.03717	2972610.9492880893
2.03939	2901037.318320006
2.04162	3516855.7518385937
2.04384	4148333.2015275643
2.04605	4290520.3218074255
2.04827	3997057.9000563174
2.05048	3868662.8371144976
2.05269	3917398.3565242686
2.0549	3659869.363089952
2.05711	3740693.615081366
2.05931	3908077.33316403
2.06151	4139372.549357133
2.06371	4435943.496597046
2.06591	4390914.058355307
2.06811	4355635.745488418
2.0703	4684013.504692851
2.07249	5123632.9377044
2.07468	5287648.258376554
2.07686	5270497.881506304
2.07905	5208105.820591422
2.08123	5040564.924916399
2.08341	5000560.296220277
2.08559	5097523.2442663275
2.08776	5221869.133463278
2.08994	5293382.520020124
2.09211	5165563.892079337
2.09428	5108520.812537894
2.09645	5216465.682823553
2.09861	5108652.509130407
2.10077	4836622.983771966
2.10293	4819519.86022661
2.10509	5049609.577859587
2.10725	5119566.846162552
2.1094	4757744.8408232285
2.11155	4204906.139974729
2.1137	4066367.2417567438
2.11585	4219020.465935362
2.11799	4425639.711833802
2.12013	4671494.394497236
2.12227	4683243.802936807
2.12441	4629533.351344376
2.12655	4574694.596541085
2.12868	4436799.623133209
2.13081	4344317.1705417605
2.13294	4206956.493390755
2.13507	3850810.62943274
2.13719	3646716.6807879624
2.13931	3915079.376137083
2.14143	4092297.708125809
2.14355	3783079.8990526907
2.14567	3324567.278711883
2.14778	2885412.8933191975
2.14989	2675728.1965051303
2.152	2768350.500871832
2.1541	2772252.4390457417
2.15621	2638513.9214001177
2.15831	2398064.6899371543
2.16041	1909470.9702681277
2.16251	1606016.8180699765
2.1646	1738826.0062440524
2.1667	1970632.6593827046
2.16879	2184399.9487481364
2.17087	2409213.4621614465
2.17296	2449263.6297419663
2.17504	2445047.0304498496
2.17713	2526939.314452401
2.1792	2379143.5265335045
2.18128	1940957.2691338547
2.18336	1545045.9356138809
2.18543	1493158.4637645949
2.1875	1521927.1633533326
2.18957	1355623.7439828953
2.19163	1183455.5978446195
2.1937	1118689.9085334092
2.19576	967550.4581862973
2.19782	654170.5642241517
2.19987	342989.84876355133
2.20193	218964.8899065112
2.20398	234863.79510618694
2.20603	264134.7322325219
2.20808	287014.3871842284
2.21012	289266.9034038201
2.21217	288331.7826727823
2.21421	364027.48250516783
2.21625	453135.3591975639
2.21828	462717.42934349884
2.22032	447886.67464853276
2.22235	476314.1304923085
2.22438	511687.9929275779
2.22641	455372.6162209695
2.22843	378113.6927675886
2.23046	311733.66579176084
2.23248	230685.75807424344
2.2345	170510.59628737363
2.23651	140107.20849955574
2.23853	145366.8001264183
2.24054	195994.77912400986
2.24255	254764.68815292465
2.24456	289667.4929815231
2.24657	287857.41279791243
2.24857	252977.74990284484
2.25057	202397.9057202736
2.25257	147618.3392975724
2.25457	108465.25941725243
2.25656	103361.59014254811
2.25856	121343.22914530644
2.26055	129415.66838843135
2.26254	120983.90280961513
2.26453	124589.43007021408
2.26651	146840.85293547474
2.2685	151828.18265115903
2.27048	141484.05726217816
2.27246	157658.96998951794
2.27443	169352.1283634487
2.27641	172625.13403321238
2.27838	192620.89100934332
2.28036	199131.06445508375
2.28233	171598.382962165
2.28429	141528.68186137683
2.28626	118022.22417681804
2.28823	95301.1628623947
2.29019	74611.45703969173
2.29215	62068.44612436456
2.29411	66549.55237855169
2.29607	83726.9641866056
2.29802	106898.90672475708
2.29998	140001.38374474086
2.30193	192651.01562172244
2.30388	243919.9236585343
2.30583	269017.87440980173
2.30778	296416.4720669298
2.30972	372498.90731593635
2.31167	467233.024018058
2.31361	444457.88958800863
2.31555	296339.9916767516
2.31749	133959.25122551856
2.31943	73649.75038707517
2.32137	65787.16710300633
2.32331	64624.04342915993
2.32524	57078.3591257865
2.32718	47079.43597423911
2.32911	38870.920552824806
2.33104	35882.34936947271
2.33297	47978.59793356659
2.3349	83061.62579372463
2.33683	127918.07662428444
2.33876	148439.37752967898
2.34068	144996.51871790373
2.34261	135054.7540878446
2.34453	132511.65632552907
2.34646	146447.6285556416
2.34838	174136.07267006833
2.3503	185532.3988970759
2.35223	187023.8142125019
2.35415	176176.65818960976
2.35607	162510.57201347474
2.35799	190277.81050408096
2.35991	241362.05436974252
2.36183	276859.03339136863
2.36375	288568.3141278856
2.36566	290892.50759525533
2.36758	247698.1520979144
2.3695	190235.2415059671
2.37142	159161.41049247843
2.37334	159776.9220973111
2.37526	150780.15218236594
2.37718	131856.55414982894
2.3791	123187.07423215987
2.38101	126043.55514043696
2.38293	137591.24754519833
2.38485	157472.46137401302
2.38677	200195.64320670711
2.3887	243893.95528186974
2.39062	254948.44909070834
2.39254	251968.14826490395
2.39446	263864.7566377579
2.39639	279260.02585880336
2.39831	284598.6159242327
2.40024	322460.71853082406
2.40216	372987.8798490729
2.40409	416746.5236884169
2.40602	387701.4494793653
2.40795	331147.07368564233
2.40989	335354.7345384974
2.41182	410465.3839004328
2.41376	462381.85484944395
2.4157	500122.5797179281
2.41764	519222.15167224786
2.41958	514265.1847345776
2.42152	479381.631256698
2.42347	449404.38840025134
2.42542	448726.91440169717
