#wavelength	surface flux
0.676892	16882.03859534063
0.678297	17633.965596686943
0.679702	18354.085386195053
0.681109	19043.273804151006
0.682517	19682.49552849491
0.683926	20287.869032937077
0.685337	20837.343592530775
0.686749	21322.411451435957
0.688164	21734.640851080218
0.689581	21938.973986795452
0.691	21975.324319409592
0.692422	21928.717681491045
0.693847	22145.722047952968
0.695274	22266.411317620004
0.696705	22340.51398346284
0.698139	22299.40225181723
0.699576	22091.320983306035
0.701017	21846.23747705693
0.702461	21485.97091918562
0.70391	21184.189368892556
0.705362	20721.552114754133
0.706819	20242.180787435733
0.70828	19727.535701518627
0.709745	19100.061046896393
0.711216	18482.57458670525
0.71269	17818.810555615524
0.71417	17186.01861522338
0.715655	16306.374593697385
0.717145	15249.37661759071
0.71864	14490.364487600706
0.72014	14000.516012752989
0.721647	13444.131658920556
0.723158	12887.66548729214
0.724676	12127.291436306461
0.726199	11396.89466835216
0.727728	10651.006513669185
0.729264	10291.944710567304
0.730805	9679.039192811073
0.732353	9445.243479614895
0.733907	9012.932053422086
0.735468	8437.503348031329
0.737035	8125.2569096785755
0.738609	7699.561845920412
0.74019	7324.936738506674
0.741777	6951.707403631032
0.743372	6605.012523382904
0.744973	6242.529004488296
0.746582	5867.8238480052905
0.748197	5499.316990880636
0.74982	5152.664267788158
0.751451	4788.838101167111
0.753088	4415.262530920401
0.754734	4030.1719970115287
0.756386	3631.1943909125257
0.758047	3207.04352752707
0.759715	2759.530545585989
0.76139	2302.383518483016
0.763074	1824.719222116331
0.764765	1112.1781812482805
0.766464	392.1737958501437
0.768172	795.8827651076439
0.769887	569.7366908215491
0.77161	1585.6178122299543
0.773341	2565.469808560868
0.775081	3367.7406455973587
0.776829	4201.699935941408
0.778585	4668.0508586211245
0.780349	4532.362237184708
0.782121	6845.185913295709
0.783902	8059.108988060935
0.785691	9165.397911212833
0.787489	10370.562360255242
0.789295	11654.500680569949
0.79111	12995.801524523114
0.792933	13547.137028801528
0.794764	10571.611492825194
0.796604	16735.403040994133
0.798453	19791.123169508563
0.80031	22147.75135646821
0.802176	24640.096532171017
0.804051	27420.742593310275
0.805934	30314.49679467934
0.807826	33543.33900089078
0.809727	36852.537968695826
0.811636	40176.38873298178
0.813554	43079.69394993926
0.81548	48493.01164094215
0.817416	54215.826624409536
0.81936	59824.18635838467
0.821313	66249.27534189665
0.823274	70980.1401747942
0.825244	78202.57379359986
0.827223	86283.59082244878
0.829211	93146.49699906984
0.831208	99879.98136192185
0.833213	110056.9255041685
0.835227	118838.2696249401
0.837249	127609.19096751307
0.83928	140023.808711723
0.841321	151130.89407445514
0.843369	163894.58016037324
0.845427	176751.09320343516
0.847493	193073.2949363854
0.849567	203774.56292426138
0.851651	161551.5278697813
0.853742	222795.16569858626
0.855843	261699.59720001215
0.857952	283028.36755322985
0.86007	304477.5773975223
0.862196	321468.5634277247
0.864331	343838.1778022111
0.866474	369207.1015657345
0.868626	395475.44670638355
0.870786	418958.1416127389
0.872955	444751.82711000275
0.875132	468928.6306751942
0.877317	494749.4343231154
0.879511	519513.56744871254
0.881713	515300.24856048
0.883923	519384.48459010886
0.886142	537338.6157794986
0.888369	538527.4953400875
0.890604	568090.5571542139
0.892847	496338.7597285345
0.895099	440770.2366636786
0.897358	623963.1143717343
0.899626	699222.3524798125
0.901901	794216.7364120707
0.904185	895780.4066285855
0.906476	954989.3498424295
0.908776	907199.5179261477
0.911083	992136.0035041225
0.913398	983292.2187044689
0.915721	1058176.5614178062
0.918051	1060234.4889268517
0.92039	1149243.6699217905
0.922736	1185914.8187596835
0.925089	1102272.0206748042
0.927451	789209.857207192
0.929819	540418.4009222134
0.932195	480573.85486272146
0.934579	558910.6684419769
0.93697	936942.7621433057
0.939369	1118163.2113946537
0.941774	1132078.1506102397
0.944187	911865.241869731
0.946607	1044458.4743669922
0.949035	1070939.7538960755
0.951469	929264.0380042193
0.953911	977153.1158607433
0.956359	832192.623900032
0.958814	1130669.6576932662
0.961277	855436.2418039371
0.963746	963955.0795204361
0.966222	1235836.4049646452
0.968705	1479671.3096418497
0.971194	1599155.9710062868
0.97369	1475637.7214068
0.976193	1727669.742435215
0.978702	1772878.1012325792
0.981217	1820184.7788013695
0.983739	1766193.2713853912
0.986268	1993532.4055690297
0.988802	2060136.259191774
0.991343	2211420.593011202
0.99389	2364090.1312537757
0.996444	2490777.3127414407
0.999003	2508226.8709306032
1.00157	2724777.04972583
1.00414	2918483.617677699
1.00672	3052223.7417247677
1.0093	3098758.4374639415
1.01189	3188401.2241854263
1.01448	3259846.3907991885
1.01708	3319051.387155176
1.01969	3367598.529208302
1.0223	3478582.1380231543
1.02492	3578365.8426353936
1.02754	3606139.4170787986
1.03017	3646488.530380937
1.0328	3647242.0605152934
1.03544	3837006.9306912604
1.03808	3979580.464642865
1.04073	4051145.4061749377
1.04339	4171239.3887477024
1.04604	4291604.356571875
1.04871	4365862.749175379
1.05138	4481794.868110942
1.05405	4634869.59164033
1.05673	4716132.8135924805
1.05941	4761214.785339435
1.0621	4822573.968355704
1.06479	4823881.74178877
1.06749	4856696.46617358
1.07019	4855921.006142284
1.07289	4835158.887364689
1.0756	4833507.513911817
1.07832	4765762.984931118
1.08104	4790789.9269304015
1.08376	4819592.74727276
1.08649	4581581.613844458
1.08922	4262410.240689316
1.09195	3993962.8021476036
1.09469	3607093.469712825
1.09743	3223842.0034217313
1.10018	2708785.248605825
1.10293	2189402.0518707763
1.10568	1674515.2011558772
1.10844	1674186.4028985486
1.1112	1231181.5274867113
1.11396	1008201.6551173644
1.11673	868235.4274288894
1.1195	1143009.710378024
1.12228	935876.7162081205
1.12505	1313101.6524517685
1.12783	1403477.1751793833
1.13062	1458582.4891761597
1.13341	649170.7714152759
1.1362	921128.3918048453
1.13899	1874146.9091278801
1.14178	2061957.8457786704
1.14458	1326320.6719066668
1.14738	1292164.13099895
1.15019	1868306.6745086426
1.153	1432924.5755670806
1.1558	1275053.1295371489
1.15862	1652005.0518679363
1.16143	1192839.1022670541
1.16425	1244204.748474887
1.16707	1425110.6186203305
1.16989	1894569.1483548474
1.17271	2356268.09384647
1.17554	2407317.81861142
1.17837	2360225.969908702
1.1812	3356359.200742061
1.18403	3418975.709238241
1.18686	3480419.007583161
1.1897	3830471.2346903468
1.19253	4143993.8847692036
1.19537	4462073.4771924
1.19822	4608374.161816234
1.20106	4832641.289614118
1.2039	5084646.268723762
1.20675	5444022.204535196
1.2096	5407543.648176335
1.21245	5496781.4208642645
1.2153	5798810.817456449
1.21815	5804731.421916782
1.221	6107220.83112566
1.22385	6296226.074493817
1.22671	6527776.751739912
1.22957	6927897.940894245
1.23242	6974308.994976974
1.23528	7082930.085122293
1.23814	7122427.706541786
1.241	7185866.7833182225
1.24387	7094550.612176579
1.24673	7466377.58693978
1.24959	7261682.0815895675
1.25245	6850765.085172104
1.25532	7577024.9573966395
1.25818	7885668.951186242
1.26105	8071668.71180969
1.26392	7978610.432292775
1.26678	8062217.050967165
1.26965	8038808.943302122
1.27252	8089643.156408334
1.27538	8115283.68324307
1.27825	8007442.269230939
1.28112	7802338.992658863
1.28399	7113129.462987296
1.28686	6981420.796521004
1.28973	6919405.422372996
1.2926	6636165.979234374
1.29546	6210576.670032511
1.29833	6198631.5153589435
1.3012	6411531.120023524
1.30407	6517446.3715126375
1.30694	6001849.174817438
1.30981	6302709.685654783
1.31267	5898122.917182675
1.31554	5419929.745852107
1.31841	5078282.425079897
1.32128	5831403.620211413
1.32414	4788867.263060497
1.32701	4011314.9940475877
1.32987	2685485.551572753
1.33274	1827518.3167385382
1.3356	1647348.573466119
1.33847	478577.55017129774
1.34133	313967.81504486885
1.34419	358195.7793631098
1.34705	249368.93931115948
1.34991	258316.55412151845
1.35277	266300.8289002544
1.35563	109695.15434748321
1.35849	92469.82914421427
1.36135	124343.59471337116
1.3642	255951.58671541463
1.36706	259892.39864726024
1.36991	273256.2183554856
1.37277	293663.0309992377
1.37562	403497.985226278
1.37847	394580.299062678
1.38132	210554.6796950373
1.38417	111851.82482125923
1.38701	73240.88607337559
1.38986	237798.23052862595
1.39271	269766.8600533786
1.39555	134115.46459038838
1.39839	222886.7129381812
1.40123	281253.734360146
1.40407	304723.71096028195
1.40691	266505.3124457569
1.40974	201348.3348022437
1.41258	305380.33063531236
1.41541	380756.9524102729
1.41824	215803.694119274
1.42107	164515.83368464262
1.4239	163721.69744582634
1.42673	393639.68132941914
1.42955	562613.9044435965
1.43237	400471.4553383062
1.43519	662627.5846356661
1.43801	716891.5968986277
1.44083	686689.1416738321
1.44365	802975.9846981819
1.44646	720789.0227356381
1.44927	1032652.0752702093
1.45208	1427677.7933285928
1.45489	1074784.0965526304
1.45769	1630452.6364538728
1.4605	1654367.9939500606
1.4633	1145087.483902657
1.4661	1702412.10951501
1.4689	1515266.7086728336
1.47169	1529853.5927060845
1.47449	1368831.0364916387
1.47728	1206218.8703626064
1.48007	1227181.6419014342
1.48286	1512194.0236006142
1.48564	1473829.6061439689
1.48842	1435094.0873516882
1.4912	1606993.2927782931
1.49398	1576088.207087153
1.49676	1704322.8442503607
1.49953	2281023.9943205016
1.5023	2349948.0688652904
1.50507	2636469.491851568
1.50784	2545511.519380538
1.51061	2566034.293530201
1.51337	2358143.202032531
1.51613	2371689.288144272
1.51888	2480419.982720004
1.52164	2836193.675842482
1.52439	3085719.1110518137
1.52714	3141559.3701290884
1.52989	3561361.8827488185
1.53263	3810637.610231991
1.53538	4131028.5173933976
1.53812	4354279.161293475
1.54086	3745413.7927367412
1.54359	4172991.076636827
1.54632	4524609.56349577
1.54905	4483554.881270601
1.55178	4393335.823739963
1.5545	4943141.244750933
1.55723	5324817.2827444365
1.55995	5688414.131187043
1.56266	5669008.197722128
1.56538	6514599.9589730315
1.56809	6991714.677436272
1.5708	7018678.695336505
1.57351	6897178.608097064
1.57621	7244082.668267294
1.57891	7206897.117247449
1.58161	7434449.259460603
1.5843	7444419.481135078
1.587	7473243.159693634
1.58969	7271649.080873822
1.59238	6958443.999951689
1.59506	7219043.25395368
1.59774	7343447.305570469
1.60042	6999144.725169616
1.6031	6602977.2031613905
1.60577	6191599.68971321
1.60844	5824454.322303214
1.61111	5709777.572857227
1.61378	5320876.8015014995
1.61644	4798924.74981602
1.6191	4322729.623273561
1.62176	4459319.360431066
1.62441	4327770.340303088
1.62707	4247903.331346472
1.62971	3859281.401374323
1.63236	3960609.9272495946
1.635	4342517.385179965
1.63764	4818691.073742851
1.64028	4527767.38461021
1.64292	4661105.415404284
1.64555	3998294.4032379547
1.64818	4070441.074476188
1.65081	4697151.905516693
1.65343	4543653.2316388255
1.65605	3943612.981264653
1.65867	4512586.872000372
1.66128	5451175.823213408
1.6639	4173585.158835129
1.66651	1235627.1474771122
1.66911	985189.4279242151
1.67172	2730300.6257924396
1.67432	3976631.9522385253
1.67692	4352070.179541721
1.67951	4081002.304928841
1.68211	3341662.310485591
1.6847	2683066.176465579
1.68728	2792004.829867478
1.68987	2803619.5711182244
1.69245	2234230.517938865
1.69503	2152280.2109509483
1.6976	2065188.3679400722
1.70018	2041534.9158812047
1.70275	1736995.8962971412
1.70531	1688262.7606668198
1.70788	2286557.8095262544
1.71044	2774786.7467308342
1.713	3231018.2567856936
1.71556	3502621.7270208993
1.71811	3656809.4742163126
1.72066	3402753.8726519016
1.72321	2737364.385851712
1.72575	3220658.374414084
1.7283	3484027.4494756106
1.73084	3408942.0408419697
1.73337	3080848.3267700286
1.73591	2995075.2025699858
1.73844	3292687.1001957087
1.74097	3350087.279622765
1.74349	3342723.6109575774
1.74602	3410403.841391456
1.74854	3743565.615584277
1.75105	3683126.771219938
1.75357	2825855.7997188875
1.75608	2015758.9693546442
1.75859	2212192.9938005423
1.7611	2192092.8857297073
1.7636	2109741.821381015
1.7661	1996449.3053927035
1.7686	1739638.34334483
1.7711	1880079.5684279248
1.77359	1782126.2681564598
1.77608	1319537.8869628361
1.77857	1371826.4906613645
1.78105	1552079.2148032845
1.78354	1190651.1432027775
1.78602	934679.650853371
1.78849	1173426.305409907
1.79097	1016810.5526579651
1.79344	861915.0365055975
1.79591	1031085.4176844318
1.79837	1323897.6453337127
1.80084	838581.343409129
1.8033	668360.9269201631
1.80576	743006.6958035602
1.80821	749664.9556141736
1.81067	740338.9198604753
1.81312	896687.9395516808
1.81557	933783.239059945
1.81801	699781.735499581
1.82046	578397.1802884232
1.8229	804552.44891168
1.82533	791627.1104009106
1.82777	486660.4265605342
1.8302	459738.37272689387
1.83263	550758.5702558962
1.83506	511415.95232388796
1.83749	438936.40241512394
1.83991	489618.97217542527
1.84233	673168.6777868014
1.84475	1004119.3271482039
1.84716	790104.6715568643
1.84957	858095.6663328281
1.85198	1153321.069027514
1.85439	845155.3510066966
1.8568	506637.6455187958
1.8592	359335.96070395433
1.8616	400210.7579775957
1.864	431754.2045860912
1.86639	341253.06586738373
1.86878	229597.211041334
1.87118	301984.37548183225
1.87356	413994.9109135815
1.87595	610177.4723069379
1.87833	1171748.94269583
1.88071	1469535.2571104292
1.88309	1237385.5420064533
1.88547	1069370.6006927523
1.88784	1238694.3770352672
1.89021	1248706.0246225074
1.89258	1405864.044330117
1.89494	1745531.8148769266
1.89731	1470836.665653061
1.89967	946146.158290395
1.90203	949053.0072668105
1.90439	860240.4795337156
1.90674	985462.7508807919
1.90909	1034311.4146576873
1.91144	557769.5111156057
1.91379	464627.8752217376
1.91613	821757.3791560056
1.91848	937390.5024104833
1.92082	657815.6484188616
1.92315	560490.4308513524
1.92549	619946.4555686993
1.92782	620325.5262587902
1.93015	499286.67100839305
1.93248	406519.73999325524
1.93481	416281.4049701457
1.93713	373277.0853799836
1.93945	349057.9072273091
1.94177	602531.0596282169
1.94409	700882.4594420213
1.94641	569769.5311941958
1.94872	513318.5323479738
1.95103	656458.3171221468
1.95334	694103.7264704438
1.95564	589221.622736416
1.95795	636726.0771941085
1.96025	609082.0378791075
1.96255	568105.8522018228
1.96484	835024.4258957229
1.96714	1095768.5616257412
1.96943	1055765.8300529208
1.97172	1008586.2455703248
1.97401	1000105.4853714235
1.97629	1086896.6175872746
1.97858	1180706.9635184412
1.98086	980415.4134763927
1.98314	835069.3991111434
1.98541	1157366.2843108207
1.98769	1487387.5181465358
1.98996	1299232.1338460182
1.99223	1147098.6708727933
1.9945	1462245.4423688077
1.99677	1760396.7295556136
1.99903	1788685.3687814851
2.00129	1765904.9654424337
2.00355	1679119.7035642567
2.00581	1694116.9429013052
2.00806	1822759.5665705623
2.01031	1952074.0936384648
2.01256	2209023.089350098
2.01481	2243411.939308498
2.01706	1998798.1852272174
2.0193	1962425.5655658913
2.02154	2231914.376209852
2.02378	2451496.8765525515
2.02602	2310997.9755477565
2.02825	1996716.904924804
2.03049	2003924.508138681
2.03272	2337769.8272510436
2.03494	2616053.5547354156
2.03717	2662888.2911519506
2.03939	2653473.8632879686
2.04162	2930195.5594563335
2.04384	3205166.952829291
2.04605	3302751.8797252052
2.04827	3235066.4107745388
2.05048	3208252.619181306
2.05269	3287053.2141059497
2.0549	3307732.2654780154
2.05711	3335121.0795106385
2.05931	3372783.5494251037
2.06151	3517986.7355356966
2.06371	3676386.764448291
2.06591	3693924.5139547386
2.06811	3668889.8360419185
2.0703	3763830.48440369
2.07249	3913644.7406859226
2.07468	3978100.649934138
2.07686	4020155.041181046
2.07905	4037980.620427715
2.08123	3992603.3397006104
2.08341	3994308.8565953937
2.08559	4031326.277209231
2.08776	4061454.195544011
2.08994	4092057.9604646945
2.09211	4053975.0096799904
2.09428	4008643.586424054
2.09645	4029848.2283658986
2.09861	4025468.3988991664
2.10077	3966773.95950209
2.10293	3970650.382883295
2.10509	4046307.890440087
2.10725	4070193.609882893
2.1094	3980550.1126892236
2.11155	3840656.113356177
2.1137	3805475.2920445655
2.11585	3843400.2344721416
2.11799	3869355.936750974
2.12013	3896211.0747309974
2.12227	3872561.705351086
2.12441	3853560.8836816344
2.12655	3843030.80792543
2.12868	3786367.3530145744
2.13081	3729555.037246512
2.13294	3671705.0770632476
2.13507	3541477.8918189392
2.13719	3470210.045632459
2.13931	3568168.7271652427
2.14143	3610477.1225612466
2.14355	3474382.9983760025
2.14567	3268981.8227901324
2.14778	3064958.717422635
2.14989	2958669.5831099274
2.152	2940133.458846333
2.1541	2865902.253564346
2.15621	2784000.1856949115
2.15831	2681176.5342318676
2.16041	2388025.8054742957
2.16251	2167476.17267404
2.1646	2239318.4302244424
2.1667	2390012.921084087
2.16879	2500638.368839726
2.17087	2588709.387886206
2.17296	2565403.909536133
2.17504	2503821.5561196995
2.17713	2471933.7913868786
2.1792	2304832.621900605
2.18128	1990872.1882095472
2.18336	1788022.7742949487
2.18543	1881808.2978450302
2.1875	1971688.4265173292
2.18957	1814685.7819851155
2.19163	1602322.000845444
2.1937	1447826.564756581
2.19576	1277652.17679522
2.19782	994227.2710077575
2.19987	666191.9565847426
2.20193	499588.2887120522
2.20398	502338.8730835807
2.20603	555335.6812647742
2.20808	587240.4630238778
2.21012	578001.2578776601
2.21217	556221.1248742754
2.21421	632340.636769879
2.21625	765211.1107774905
2.21828	827109.0379718157
2.22032	803438.955933785
2.22235	801497.0253154404
2.22438	826015.4942254841
2.22641	712904.8119989532
2.22843	528221.6867937199
2.23046	424145.05952057644
2.23248	415731.0405479425
2.2345	419627.41832931276
2.23651	385761.92268373776
2.23853	376063.6339344445
2.24054	419063.3667370669
2.24255	468568.47282212443
2.24456	483257.7240728361
2.24657	441880.5542506652
2.24857	381891.4123311709
2.25057	339629.93377645465
2.25257	292514.42108683835
2.25457	234312.89155573025
2.25656	216536.68067519923
2.25856	269658.8829187554
2.26055	320682.0516622183
2.26254	309664.20332498907
2.26453	272167.61155156454
2.26651	273243.14559217775
2.2685	300654.64669576753
2.27048	327089.68951082916
2.27246	379348.5850523083
2.27443	399923.41422224033
2.27641	387246.0599759026
2.27838	396039.3986339938
2.28036	393229.294591626
2.28233	341757.21200454014
2.28429	292303.8437515556
2.28626	258111.76440547098
2.28823	234705.9954740567
2.29019	220838.37788514583
2.29215	206474.14244535763
2.29411	205894.59008881226
2.29607	228401.69796833346
2.29802	266748.88205957273
2.29998	309545.7368708702
2.30193	376206.9595076411
2.30388	449395.55475618737
2.30583	506201.53878907755
2.30778	577168.8132792368
2.30972	708458.9909544309
2.31167	814412.4680293149
2.31361	725713.9752389516
2.31555	469256.00552717573
2.31749	235163.79641201804
2.31943	159962.0979502246
2.32137	164835.2216514778
2.32331	172380.68798056906
2.32524	159551.75092233147
2.32718	133389.49921471428
2.32911	117121.81525006116
2.33104	120071.05431877876
2.33297	145192.47232723533
2.3349	183272.29594349387
2.33683	223106.19044834946
2.33876	245224.13382575958
2.34068	250094.25805790527
2.34261	251924.20959122258
2.34453	256221.7973496589
2.34646	269864.63695099595
2.34838	290947.1679506407
2.3503	293673.2897160588
2.35223	299718.6199807455
2.35415	295936.613097265
2.35607	282119.5702353333
2.35799	334633.772161618
2.35991	424918.94111618446
2.36183	486728.175939813
2.36375	522603.2520182052
2.36566	551438.4904654324
2.36758	481567.5766540378
2.3695	347907.115952241
2.37142	253570.82871132265
2.37334	244983.11010798597
2.37526	265143.4946054024
2.37718	279079.16932868084
2.3791	298210.61920467945
2.38101	317520.8261463099
2.38293	328152.7496969238
2.38485	329217.1006183513
2.38677	369663.03403727803
2.3887	447754.7580790726
2.39062	510348.10247140675
2.39254	531592.8528053125
2.39446	541757.6204162843
2.39639	548811.4069319407
2.39831	544377.3113391504
2.40024	591996.871627031
2.40216	649848.0901430656
2.40409	670767.9067332398
2.40602	591028.3002076482
2.40795	527584.8086108556
2.40989	604956.6044020865
2.41182	777553.4625258568
2.41376	842059.8775051346
2.4157	791517.960544572
2.41764	743182.475510614
2.41958	770698.0605958339
2.42152	808358.1035209922
2.42347	794160.2278310823
2.42542	737019.6957016558
2.42737	753553.0510216639
