#wavelength	surface flux
0.8	700693.2585751746
0.8002000000000001	712345.9350792821
0.8004000500000003	725042.081837221
0.8006001500125003	737462.703084585
0.8008003000500035	750157.2839541467
0.8010005001250161	762723.2680367558
0.8012007502500472	776315.8943458175
0.8014010504376099	788138.0849155482
0.8016014007002193	800602.3891957188
0.8018018010503944	814254.2150397596
0.8020022515006572	826398.5912648301
0.8022027520635323	840386.9377537117
0.8024033027515483	854201.8150475066
0.8026039035772362	866636.7368810427
0.8028045545531306	880700.0989861038
0.8030052556917691	893692.0391630239
0.803206007005692	908336.0662357358
0.8034068085074435	921503.957139777
0.8036076602095705	937569.5191085214
0.8038085621246229	952262.0572010498
0.8040095142651542	967172.5116859574
0.8042105166437206	978586.0904154949
0.8044115692728815	994308.5517522381
0.8046126721651998	1008634.976043966
0.8048138253332411	1025414.6602702666
0.8050150287895745	1042156.1523158357
0.805216282546772	1056152.5023115522
0.8054175866174087	1068388.633674924
0.8056189410140631	1085676.422803461
0.8058203457493168	1100254.434674993
0.8060218008357541	1118759.6838374932
0.8062233062859632	1128333.5223559707
0.8064248621125346	1147583.9629535696
0.806626468328063	1166531.1926141242
0.8068281249451449	1181088.5456509895
0.8070298319763813	1195664.5831034554
0.8072315894343755	1209751.1363671653
0.8074333973317341	1230082.040883877
0.8076352556810671	1249150.8706349744
0.8078371644949874	1264089.6949445093
0.8080391237861113	1285746.3454139137
0.8082411335670578	1296747.3600437804
0.8084431938504498	1312687.490908733
0.8086453046489125	1331179.4694747063
0.8088474659750746	1346195.9919296799
0.8090496778415686	1363211.4639347224
0.809251940261029	1369526.7609539703
0.8094542532460944	1403038.8866677992
0.8096566168094059	1421684.4325250546
0.8098590309636085	1439568.709108953
0.8100614957213493	1440007.14733342
0.8102640110952797	1467864.9540976372
0.8104665770980536	1484293.6712111074
0.8106691937423283	1507113.3722860443
0.8108718610407639	1520532.0565436925
0.8110745790060241	1535938.5231501132
0.8112773476507757	1561378.0129375872
0.8114801669876885	1574160.4949494705
0.8116830370294355	1589403.620061284
0.8118859577886929	1636743.5260139413
0.8120889292781401	1642370.078374546
0.8122919515104597	1649736.2707893886
0.8124950244983374	1659790.8005140394
0.8126981482544621	1705266.655823965
0.8129013227915257	1728852.680065643
0.8131045481222237	1745144.38704895
0.8133078242592543	1748009.1336444991
0.8135111512153191	1769705.6858598476
0.813714529003123	1785189.0254157188
0.8139179576353739	1823381.6233941326
0.8141214371247829	1842617.0580529964
0.8143249674840641	1840607.5763008809
0.814528548725935	1889645.0728881669
0.8147321808631167	1923955.7293478916
0.8149358639083326	1930789.263887413
0.8151395978743097	1921409.6835722255
0.8153433827737784	1993928.0132587235
0.8155472186194719	1997023.5853144403
0.8157511054241268	2019276.5405209167
0.815955043200483	2058032.165912416
0.8161590319612831	2087866.320861314
0.8163630717192736	2057068.6624782374
0.8165671624872033	2118718.190199053
0.8167713042778252	2149616.83965421
0.8169754971038948	2187601.7119600326
0.8171797409781707	2157633.308596853
0.8173840359134155	2237855.991422676
0.8175883819223938	2255392.749251069
0.8177927790178745	2269102.674379479
0.8179972272126291	2246008.99628983
0.8182017265194322	2153069.2064471846
0.8184062769510622	2094810.0542539277
0.8186108785203001	2320665.35293896
0.8188155312399301	2351087.7212578277
0.8190202351227402	2350766.6019301303
0.819224990181521	2222952.2859570524
0.8194297964290664	1837851.4072032499
0.8196346538781738	2089874.3644837535
0.8198395625416434	2411834.140682958
0.8200445224322789	2498410.5382755194
0.820249533562887	2565974.664959634
0.8204545959462778	2610122.6837262376
0.8206597095952644	2642289.858703678
0.8208648745226633	2677950.8353390316
0.8210700907412941	2706741.9555317312
0.8212753582639793	2739473.222852558
0.8214806771035456	2772345.4152850374
0.8216860472728215	2802669.868440062
0.8218914687846397	2826266.1456759167
0.822096941651836	2858850.2057323945
0.822302465887249	2890901.530278053
0.8225080415037209	2921211.6478311964
0.8227136685140968	2899495.8185954965
0.8229193469312254	2845401.5756113906
0.8231250767679583	2854787.446641092
0.8233308580371503	2968817.0971821914
0.8235366907516598	3010723.9583377857
0.8237425749243477	3068784.189822728
0.8239485105680789	3096229.781548974
0.824154497695721	3145048.8943185434
0.824360536320145	3158898.973176721
0.8245666264542252	3159660.7899367977
0.8247727681108388	3260570.706497167
0.8249789613028664	3290650.47064733
0.8251852060431922	3326654.404606292
0.825391502344703	3370476.1757011795
0.8255978502202894	3401112.882578108
0.8258042496828445	3415329.1928494
0.8260107007452654	3462869.3428912074
0.8262172034204517	3453289.081496562
0.8264237577213068	3507381.0558709353
0.8266303636607373	3546222.897824497
0.8268370212516525	3599130.2868431825
0.8270437305069654	3631050.415917347
0.8272504914395923	3659122.856966377
0.8274573040624523	3672623.3865452637
0.8276641683884679	3709692.599723164
0.8278710844305652	3742282.700868418
0.8280780522016729	3801840.35073668
0.8282850717147234	3813688.255892105
0.8284921429826521	3862178.065352709
0.8286992660183978	3904785.4405596564
0.8289064408349024	3905957.0919416198
0.8291136674451112	3923809.2054158743
0.8293209458619727	3989336.5789203974
0.8295282760984382	3989567.829299364
0.829735658167463	3962581.235376474
0.8299430920820048	4094310.1863711434
0.8301505778550254	4143624.581639475
0.8303581154994891	4172917.5507947393
0.8305657050283641	4221500.443801258
0.8307733464546212	4196714.979348671
0.8309810397912352	4298791.213331306
0.8311887850511829	4351224.332535754
0.8313965822474458	4334254.96958566
0.8316044313930077	4416443.707483789
0.8318123325008561	4443925.394769929
0.8320202855839813	4457225.624966978
0.8322282906553774	4514318.947535255
0.8324363477280413	4516416.298550944
0.8326444568149735	4627742.313058422
0.8328526179291771	4673837.289498708
0.8330608310836596	4674095.62915998
0.8332690962914304	4675220.912132159
0.8334774135655034	4732523.235653321
0.833685782918895	4774381.988943129
0.8338942043646247	4859217.489596642
0.834102677915716	4820635.659256411
0.834311203585195	4925881.268245495
0.8345197813860912	4982271.129581292
0.8347284113314379	5042005.442264093
0.8349370934342709	5077800.410535627
0.8351458277076294	5018453.4570475845
0.8353546141645565	5139011.966968024
0.8355634528180977	5100561.369754487
0.8357723436813022	5153626.940362105
0.8359812867672226	5129551.225434924
0.8361902820889144	5312854.500552003
0.8363993296594368	5184465.4917931575
0.8366084294918518	5373129.704950051
0.8368175815992247	5402716.148016743
0.8370267859946247	5408983.484639941
0.8372360426911234	5520761.380556484
0.8374453517017962	5580276.035336251
0.8376547130397217	5534549.2228036905
0.8378641267179816	5547920.631753569
0.8380735927496613	5700958.240444345
0.8382831111478488	5763309.928576201
0.8384926819256358	5808364.973660084
0.8387023050961173	5794187.001264241
0.8389119806723914	5818506.141888459
0.8391217086675596	5964338.229350626
0.8393314890947265	6030542.215269348
0.8395413219670003	6042932.96271187
0.8397512072974922	6084997.664152766
0.8399611450993165	6064774.522258005
0.8401711353855914	6138696.583430476
0.8403811781694378	6225933.6369185895
0.8405912734639802	6205136.7949899025
0.8408014212823464	6228268.151726323
0.8410116216376671	6340790.129390174
0.8412218745430766	6429363.4541843515
0.8414321800117124	6493503.236774592
0.8416425380567154	6477863.512355
0.8418529486912297	6546496.408431622
0.8420634119284025	6460431.407723105
0.8422739277813847	6636041.579479437
0.8424844962633302	6700017.67378205
0.842695117387396	6799243.921741007
0.8429057911667428	6829930.5272394745
0.8431165176145345	6800154.471349618
0.8433272967439382	6914767.897835818
0.8435381285681244	6919093.244966268
0.8437490131002665	6957815.140424087
0.8439599503535415	7075459.131642951
0.84417094034113	7062373.389269318
0.8443819830762154	7045842.306247321
0.8445930785719846	7180192.017638176
0.8448042268416277	7248310.436545349
0.8450154278983382	7281210.5000095675
0.8452266817553128	7326601.6947289
0.8454379884257517	7355766.693524817
0.8456493479228583	7307325.463559769
0.845860760259839	7508140.4458504645
0.846072225449904	7598031.502965816
0.8462837435062666	7619395.147906615
0.8464953144421433	7548179.6355849905
0.8467069382707537	7652364.639377171
0.8469186150053215	7774333.828312914
0.847130344659073	7769263.43762911
0.8473421272452377	7852772.098668479
0.8475539627770492	7881142.73685804
0.8477658512677435	7941095.979965972
0.8479777927305605	8025963.064196484
0.8481897871787432	8070639.815177417
0.848401834625538	8127966.798823083
0.8486139350841944	8153527.839395281
0.8488260885679657	8158033.65734313
0.8490382950901076	8195307.782974787
0.8492505546638802	8286434.863890995
0.8494628673025462	8254292.5813180385
0.8496752330193721	8352989.461459828
0.8498876518276269	8308112.814777459
0.8501001237405839	8242926.75393585
0.8503126487715191	8246011.64176244
0.850525226933712	8196635.899342712
0.8507378582404455	8053430.8103089025
0.8509505427050057	7781701.268657137
0.8511632803406821	7424039.184782868
0.8513760711607672	6679057.75973065
0.8515889151785576	5454241.748905553
0.8518018124073523	3364323.61138635
0.8520147628604541	899404.01001778
0.8522277665511693	1049852.857421029
0.8524408234928071	3604015.79506914
0.8526539336986805	5717587.334250429
0.8528670971821053	7036081.041654911
0.8530803139564007	7854179.255492822
0.8532935840348901	8362151.362506075
0.8535069074308987	8786103.828650221
0.8537202841577566	9052390.24824617
0.8539337142287962	9232130.765944669
0.8541471976573534	9374741.888174742
0.8543607344567677	9535406.539993122
0.8545743246403821	9705545.250380155
0.8547879682215422	9787113.276773894
0.8550016652135977	9905628.529567586
0.8552154156299011	9977716.641698297
0.8554292194838088	10067572.13154898
0.8556430767886797	10133087.084347267
0.855856987557877	10274323.81334331
0.8560709518047664	10372485.687885113
0.8562849695427177	10459665.14263728
0.8564990407851035	10485217.942374248
0.8567131655452999	10608421.44682138
0.8569273438366862	10714081.686873537
0.8571415756726455	10772755.735373128
0.8573558610665638	10766058.1341273
0.8575702000318304	10800999.674285278
0.8577845925818384	10942609.682158213
0.857999038729984	11075618.607790722
0.8582135384896665	11143835.933612775
0.858428091874289	11187885.29688699
0.8586426988972576	11275263.389738753
0.8588573595719821	11300942.194787532
0.8590720739118751	11370711.595064238
0.8592868419303532	11453594.794027837
0.8595016636408359	11542466.676040981
0.8597165390567462	11622384.66904847
0.8599314681915105	11641741.431051271
0.8601464510585584	11673021.388352115
0.860361487671323	11784684.140960693
0.8605765780432408	11841375.168579746
0.8607917221877518	11866083.901852475
0.8610069201182988	11781106.510609826
0.8612221718483286	10721472.37843807
0.8614374773912907	7834363.143999714
0.8616528367606385	8936283.035651013
0.8618682499698288	7778970.870436522
0.8620837170323213	7672094.285173949
0.8622992379615795	8650357.467470994
0.8625148127710699	8511091.825608883
0.8627304414742627	7543977.985851998
0.8629461240846313	10065970.521962926
0.8631618606156526	7871222.178151769
0.8633776510808066	7739981.643520402
0.8635934954935769	8042056.273189796
0.8638093938674504	8526229.90787576
0.8640253462159173	8882885.23670925
0.8642413525524714	8371823.375348591
0.8644574128906095	9436626.634834414
0.8646735272438323	9556967.67748591
0.8648896956256433	8022775.725347459
0.8651059180495498	10107188.982810782
0.8653221945290621	9108621.551681105
0.8655385250776946	11566928.309406621
0.8657549097089641	10223373.281169413
0.8659713484363913	10144656.773554105
0.8661878412735006	10533845.054952184
0.866404388233819	10755332.95100804
0.8666209893308775	9902364.333831022
0.8668376445782103	12340213.652992964
0.8670543539893549	10747610.111624552
0.8672711175778525	10671791.270135067
0.8674879353572469	10621022.381357536
0.8677048073410862	11543263.865982594
0.8679217335429217	11969153.81462653
0.8681387139763074	11671735.678392766
0.8683557486548015	10425496.593136366
0.8685728375919655	9934064.682188893
0.8687899808013633	12001789.585488226
0.8690071782965637	12471798.913856316
0.869224430091138	13046589.933798062
0.8694417361986609	12437662.49450253
0.8696590966327107	10073888.673915079
0.869876511406869	10821111.87933561
0.8700939805347206	11854928.585578157
0.8703115040298544	12251595.390529836
0.870529081905862	11159515.137989528
0.8707467141763385	12049128.931504987
0.8709644008548827	10791604.170631887
0.8711821419550964	10702169.151738364
0.8713999374905854	10868781.692814983
0.871617787474958	12648818.511075035
0.8718356919218269	12163227.03420965
0.8720536508448075	10880640.342460858
0.8722716642575187	11450208.253642336
0.8724897321735832	10955379.78827583
0.8727078546066265	12798301.407671172
0.8729260315702784	11369911.055299798
0.873144263078171	12439392.398789702
0.8733625491439405	12826582.214624625
0.8735808897812266	10682105.478983518
0.8737992850036719	11975382.305058954
0.874017734824923	12285260.691380007
0.8742362392586293	13448942.620985407
0.874454798318444	13388527.471434714
0.8746734120180236	13333130.71889625
0.8748920803710283	13885823.846678374
0.875110803391121	12781917.935105605
0.8753295810919689	11935565.503849642
0.875548413487242	14098747.457371505
0.8757673005906139	13850305.954983339
0.8759862424157616	14580648.850436693
0.8762052389763657	14583426.214038845
0.8764242902861098	13530341.028546795
0.8766433963586814	14639873.14180245
0.8768625572077712	12588814.628283478
0.8770817728470732	11804227.043174634
0.8773010432902849	14643151.639515297
0.8775203685511077	13986440.901221614
0.8777397486432454	16524746.66229224
0.8779591835804065	15819049.479850601
0.8781786733763015	13678472.253451357
0.8783982180446457	14438946.508158937
0.878617817599157	15088467.864751277
0.8788374720535569	12732091.84932728
0.8790571814215703	14078783.440127218
0.8792769457169257	14829145.406575814
0.879496764953355	14534956.633000482
0.8797166391445934	17349024.85399614
0.8799365683043796	17093753.219195172
0.8801565524464557	14822039.590113059
0.8803765915845676	13789858.90565422
0.8805966857324639	15137264.626831176
0.880816834903897	13558537.808338528
0.881037039112623	15572645.389787994
0.8812572983724012	15370960.773157885
0.8814776126969944	15098032.334185166
0.8816979821001687	16247650.980145087
0.8819184065956938	18217921.454647534
0.8821388861973429	17290815.7541242
0.8823594209188923	14906293.592002938
0.882580010774122	14875736.94651824
0.8828006557768155	15249644.49352117
0.8830213559407598	14646325.211488627
0.8832421112797452	18232519.84539607
0.8834629218075651	15191655.159126638
0.8836837875380171	14815893.473884849
0.8839047084849018	17004244.793916486
0.884125684662023	18915357.249571346
0.8843467160831886	19044112.704254173
0.8845678027622095	18439496.88566443
0.8847889447129001	13717909.601565218
0.8850101419490785	15429382.745759923
0.8852313944845657	16305745.983724765
0.885452702333187	20134928.143135883
0.8856740655087704	18850680.22482764
0.8858954840251476	15205992.20439593
0.8861169578961539	15388008.309984555
0.886338487135628	19973150.003740985
0.886560071757412	19882592.98603077
0.8867817117753515	19301397.907414146
0.8870034072032955	17785808.185610097
0.8872251580550963	14035000.504517794
0.8874469643446101	15490701.765227789
0.8876688260856963	16850098.93963647
0.8878907432922178	19953398.899548966
0.8881127159780409	20858439.138773363
0.8883347441570356	19503620.465908367
0.8885568278430749	14059268.766373482
0.8887789670500358	18536429.540814053
0.8890011617917983	19972014.13263846
0.8892234120822464	21618506.229987968
0.8894457179352669	20602417.924322434
0.8896680793647509	17116744.622305658
0.8898904963845921	14730476.307894317
0.8901129690086883	18545512.74116683
0.8903354972509405	21853246.768864885
0.8905580811252535	21607913.11952904
0.8907807206455347	20289779.566043075
0.8910034158256963	18995457.239490077
0.8912261666796527	15509273.056064956
0.8914489732213227	20062726.335350536
0.8916718354646282	21597544.499692086
0.8918947534234944	19130180.17007559
0.8921177271118502	17414255.36536841
0.8923407565436284	19299262.454742398
0.8925638417327644	14930262.124345375
0.8927869826931977	18209150.954700354
0.8930101794388711	18262491.573265325
0.8932334319837308	17783832.81168626
0.8934567403417267	17750495.795230243
0.8936801045268123	14465486.703986987
0.8939035245529441	9998123.432642551
0.8941270004340824	4802439.543005637
0.894350532184191	1168100.4846974914
0.8945741198172371	5340593.526887794
0.8947977633471915	10752256.923666297
0.8950214627880284	15091095.958277356
0.8952452181537254	16551429.709090265
0.8954690294582639	14411053.373335857
0.8956928967156286	18752206.214060497
0.8959168199398075	21656234.956690762
0.8961407991447926	23033599.645798344
0.8963648343445789	22890219.615307745
0.896588925553165	20110180.576554403
0.8968130727845534	17719067.561281115
0.8970372760527496	19070756.743532747
0.8972615353717629	22104508.17887529
0.8974858507556059	21477293.94284957
0.8977102222182949	23066468.66058046
0.8979346497738496	25129742.54166753
0.8981591334362931	22530807.778056595
0.8983836732196523	19084935.06652255
0.8986082691379572	23033542.275715068
0.8988329212052417	25355992.042763047
0.8990576294355432	23909564.075099237
0.8992823938429022	24748884.75979045
0.8995072144413631	25593436.73346929
0.8997320912449734	22715792.75847264
0.8999570242677847	22425755.464644272
0.9001820135238516	20578953.50278542
0.9004070590272328	25258387.191664487
0.9006321607919896	27092530.912259795
0.9008573188321878	27661097.523567475
0.9010825331618959	26382458.32610209
0.9013078037951865	23245346.59710793
0.9015331307461353	24246491.487449504
0.9017585140288219	24234809.04709655
0.9019839536573292	28325409.034076896
0.9022094496457435	29475043.77330235
0.9024350020081551	28657803.777935594
0.9026606107586572	28657135.279789057
0.902886275911347	23117575.95043991
0.9031119974803249	23476584.54081206
0.9033377754796951	25786219.490046922
0.903563609923565	28380655.142929655
0.903789500826046	31605397.463286705
0.9040154482012526	31973965.213118926
0.904241452063303	28554695.821915403
0.9044675124263188	25866122.895819534
0.9046936293044254	27443286.00574476
0.9049198027117517	27401183.782334745
0.9051460326624297	30446978.35349179
0.9053723191705955	31988869.90329461
0.9055986622503881	29796651.594665114
0.9058250619159507	30754078.50112527
0.9060515181814298	26684457.33835891
0.9062780310609752	28721784.989690796
0.9065046005687405	29044368.440765046
0.906731226718883	29263592.03581883
0.9069579095255627	31746421.324693456
0.907184649002944	30279352.76568985
0.907411445165195	30922282.835397325
0.9076382980264862	29323381.42188109
0.907865207600993	30144685.060431864
0.9080921739028933	30471401.70082182
0.9083191969463691	27708193.660435077
0.9085462767456058	31727262.01125936
0.9087734133147922	33897429.62915914
0.9090006066681211	31509914.394142184
0.909227856819788	31732877.833643135
0.9094551637839932	30795497.85307603
0.9096825275749393	33053200.646717627
0.9099099482068329	30837179.904452182
0.9101374256938848	31639385.9294111
0.9103649600503083	31302464.5140023
0.9105925512903209	36256710.83074789
0.9108201994281437	30781196.79542116
0.9110479044780008	30257023.55532454
0.9112756664541204	33392753.2415271
0.911503485370734	32715578.23129872
0.9117313612420768	34881808.82442458
0.9119592940823873	31305442.048441384
0.912187283905908	35426489.1000883
0.9124153307268845	36386204.51756138
0.9126434345595664	36635908.75829877
0.9128715954182063	32621420.803050384
0.9130998133170609	31452040.752855677
0.9133280882703902	31659235.55974554
0.913556420292458	36096092.444950484
0.9137848093975312	34442055.00050475
0.9140132555998806	32856540.64909783
0.9142417589137806	36093953.068044245
0.9144703193535092	32539299.673625663
