#wavelength	surface flux
0.676892	1097882.1164697486
0.678297	1164000.706074894
0.679702	1225537.5731591026
0.681109	1284198.098954346
0.682517	1334666.7944363735
0.683926	1387552.7158806403
0.685337	1430436.7051811563
0.686749	1469951.3861543816
0.688164	1505866.2125040968
0.689581	1535280.6811920325
0.691	1536037.2744638955
0.692422	1553455.470530076
0.693847	1531468.5246439686
0.695274	1584165.221845779
0.696705	1594568.4622076484
0.698139	1590723.4901442411
0.699576	1579374.5538944735
0.701017	1561085.006793004
0.702461	1539447.1955267233
0.70391	1512889.1332945402
0.705362	1470190.0007019239
0.706819	1426918.0258944982
0.70828	1389210.6594942675
0.709745	1338915.4943871335
0.711216	1291425.9335812556
0.71269	1239287.7914554998
0.71417	1185267.7163390885
0.715655	1120692.9595625526
0.717145	1052401.7025361534
0.71864	993815.9881069569
0.72014	942968.3836260601
0.721647	888186.1027028236
0.723158	839076.2332053429
0.724676	777965.0770105507
0.726199	717229.243262689
0.727728	651633.0472744189
0.729264	608821.0081034033
0.730805	554275.6474263504
0.732353	513203.077110006
0.733907	464521.44677967695
0.735468	411679.12533016625
0.737035	374815.1246816928
0.738609	333257.08423163416
0.74019	294503.3288943265
0.741777	257545.91501761982
0.743372	223326.08127198802
0.744973	191068.93801527616
0.746582	161098.7102500048
0.748197	133726.51402762366
0.74982	109546.89843297601
0.751451	87687.63194736952
0.753088	68596.43541968906
0.754734	52246.202062033124
0.756386	38578.448455597965
0.758047	27489.522797718317
0.759715	18843.411115865758
0.76139	12392.253791422789
0.763074	7732.822048998878
0.764765	4002.9113323654433
0.766464	1312.7798151014965
0.768172	2739.8539042383045
0.769887	1927.2807744661743
0.77161	5960.014146740705
0.773341	11983.55530146323
0.775081	20044.257800207517
0.776829	31273.53925212519
0.778585	40570.26665953137
0.780349	43809.24749957442
0.782121	89026.1414458596
0.783902	123857.78262027295
0.785691	162835.52772526297
0.787489	208833.49344520003
0.789295	261679.68643462152
0.79111	319631.2851577056
0.792933	344621.5658506157
0.794764	228540.69035782805
0.796604	495341.67363307875
0.798453	648812.7703721499
0.80031	768461.1554089189
0.802176	893604.2129130017
0.804051	1032492.5580108269
0.805934	1180199.5529213313
0.807826	1341059.671259494
0.809727	1511385.8476609976
0.811636	1692222.910310803
0.813554	1874704.8355302506
0.81548	2114344.263822133
0.817416	2303165.644445442
0.81936	2282760.149889129
0.821313	2872121.282160956
0.823274	3203750.5491592395
0.825244	3508872.6847200464
0.827223	3885464.5777482623
0.829211	4210335.402594949
0.831208	4553451.343239083
0.833213	5045893.882817692
0.835227	5444094.61005257
0.837249	5802992.9952618815
0.83928	6376979.367910993
0.841321	6919227.786772569
0.843369	7443011.183439496
0.845427	7913864.840380678
0.847493	8549430.932440829
0.849567	8712574.727159938
0.851651	5804958.443215563
0.853742	9062606.050170837
0.855843	11134141.556864318
0.857952	11981086.7200952
0.86007	12287460.156702455
0.862196	8455656.13647742
0.864331	9327953.247115668
0.866474	10663325.059841104
0.868626	11227204.403022548
0.870786	10735276.884439593
0.872955	11210257.605781812
0.875132	10474371.489116535
0.877317	15251032.161036756
0.879511	16180336.949207937
0.881713	15381125.29320153
0.883923	17164935.42509313
0.886142	18659839.894223686
0.888369	17635995.14398912
0.890604	20730857.780123826
0.892847	16755100.205880588
0.895099	14589442.83477284
0.897358	22130286.158248268
0.899626	25669797.267286945
0.901901	28914602.32828229
0.904185	32669574.177746892
0.906476	30395471.759793937
0.908776	29358078.027559903
0.911083	31735153.897485286
0.913398	34064965.994516
0.915721	38327899.341504134
0.918051	39871127.7007808
0.92039	45401238.57196258
0.922736	45259390.51366249
0.925089	43462501.14084346
0.927451	37040037.20066414
0.929819	29441357.489636734
0.932195	27131878.430044103
0.934579	28789382.586353812
0.93697	45054290.002945565
0.939369	48461745.83187644
0.941774	47812479.17863061
0.944187	41986838.34995673
0.946607	51986243.51600288
0.949035	53298352.05068902
0.951469	44517216.21266375
0.953911	47548145.1018261
0.956359	41319343.79464482
0.958814	53312436.187868245
0.961277	42196048.82188948
0.963746	39567430.61360008
0.966222	53894767.339089304
0.968705	59243546.98225895
0.971194	65719213.00788235
0.97369	62322607.38522151
0.976193	73921699.58108453
0.978702	72588114.03339382
0.981217	77799219.36347063
0.983739	72961242.14807421
0.986268	84125332.10951759
0.988802	83467569.07101405
0.991343	62355219.48334971
0.99389	70441768.54746212
0.996444	70357376.97707531
0.999003	46841923.27931068
1.00157	44300977.5723851
1.00414	51323819.39319214
1.00672	51916987.48143678
1.0093	55026417.67432372
1.01189	57107995.29867759
1.01448	68952777.14537668
1.01708	70128507.74241365
1.01969	81400231.57855651
1.0223	83170572.86797017
1.02492	83280901.08650081
1.02754	81091031.35553767
1.03017	94509505.4134556
1.0328	98354198.1988066
1.03544	97893342.23159957
1.03808	114182442.945775
1.04073	114498876.32074013
1.04339	113476365.63201435
1.04604	110256807.57099204
1.04871	109094941.84692764
1.05138	110476993.22638704
1.05405	117984017.64345604
1.05673	114059115.24576707
1.05941	125460460.34189658
1.0621	123083035.67888047
1.06479	132786413.29440214
1.06749	136381086.98547822
1.07019	149145462.3772257
1.07289	146485838.47484213
1.0756	154535248.56736818
1.07832	162018173.00904086
1.08104	158808475.4713103
1.08376	170178156.73404205
1.08649	155085100.0896111
1.08922	149487563.16228253
1.09195	138875097.46744522
1.09469	135387128.34210786
1.09743	109569604.3202428
1.10018	100570775.71875724
1.10293	83856262.28424145
1.10568	66069439.24157668
1.10844	77363717.02064976
1.1112	65014771.79332244
1.11396	55970153.36186501
1.11673	47452872.183434285
1.1195	65111579.52089122
1.12228	54641496.88833949
1.12505	65480909.889059305
1.12783	81902011.30395783
1.13062	71544139.33726867
1.13341	33920287.98860411
1.1362	42217487.34432313
1.13899	47193587.04647471
1.14178	66971757.56300167
1.14458	62101176.21237082
1.14738	67180134.73370367
1.15019	97460012.19153869
1.153	76634502.17484191
1.1558	65280015.29778663
1.15862	87731053.511136
1.16143	59490445.935193345
1.16425	46963848.71007538
1.16707	43497447.849261366
1.16989	47495822.75284786
1.17271	68350299.92598821
1.17554	50697948.02648553
1.17837	39191659.04274425
1.1812	77637368.30418392
1.18403	82753089.84710854
1.18686	86577650.9537204
1.1897	97787185.45662656
1.19253	106133954.17486678
1.19537	114874918.2854157
1.19822	119456016.98832299
1.20106	128661677.68144086
1.2039	132300739.76785614
1.20675	141442886.4438361
1.2096	154318339.68562606
1.21245	161874595.77170998
1.2153	168462659.08564937
1.21815	168438806.95942238
1.221	180184412.77088723
1.22385	190654396.19104204
1.22671	196435350.87540975
1.22957	201139999.88997504
1.23242	206898551.24816
1.23528	198193997.8079376
1.23814	197423281.03351188
1.241	170679189.93829295
1.24387	136558487.3334521
1.24673	188175910.51542145
1.24959	156879958.3401295
1.25245	98103532.56386264
1.25532	174503437.49692366
1.25818	213428662.59729737
1.26105	233573405.93538147
1.26392	220316991.06804827
1.26678	237873340.27128184
1.26965	228572260.8744147
1.27252	245676635.50415087
1.27538	247396611.75906283
1.27825	244837337.30725783
1.28112	247991937.14583555
1.28399	215961404.99882507
1.28686	224962190.0397372
1.28973	219778902.8378973
1.2926	223792536.44533053
1.29546	201069306.47511694
1.29833	188552715.98355058
1.3012	214478613.69816545
1.30407	221284219.89454585
1.30694	192772712.01503634
1.30981	206808173.44803193
1.31267	208490305.65482917
1.31554	183107600.486117
1.31841	169515523.3423248
1.32128	184436376.9273364
1.32414	137555680.6622559
1.32701	96541494.81359214
1.32987	78806690.56299865
1.33274	43554509.90536331
1.3356	30097291.803770028
1.33847	9379119.836127542
1.34133	7570582.352019935
1.34419	10091440.264431238
1.34705	8394147.714818534
1.34991	10141278.052776428
1.35277	12028147.158308702
1.35563	4795894.301757871
1.35849	5145549.837406895
1.36135	7272544.897091238
1.3642	10734327.355553342
1.36706	10942858.02280213
1.36991	10253496.166302096
1.37277	10722098.389035374
1.37562	9034535.894299049
1.37847	7598114.288982837
1.38132	8725995.980748173
1.38417	5060109.246385847
1.38701	2001996.9539408584
1.38986	7591926.762455498
1.39271	8970026.084668837
1.39555	6057626.774336449
1.39839	9760624.5585589
1.40123	12570235.277861305
1.40407	11698419.509644292
1.40691	8866966.245711403
1.40974	6449855.839615936
1.41258	9500473.27241518
1.41541	10323569.55941506
1.41824	5103236.563392805
1.42107	3851819.1337876176
1.4239	3943379.9301830693
1.42673	10134941.988383055
1.42955	13318219.186008152
1.43237	9402780.428206291
1.43519	13224645.867113283
1.43801	15087583.256023852
1.44083	13290708.359131776
1.44365	15740077.28259174
1.44646	13977144.122892879
1.44927	17794722.100828122
1.45208	23536958.0768969
1.45489	17549119.168544963
1.45769	26752055.894158535
1.4605	25322764.35029842
1.4633	15070663.293079887
1.4661	24300677.410806168
1.4689	24050095.665659998
1.47169	24535599.617314756
1.47449	24238205.771506906
1.47728	24857495.262291856
1.48007	25520106.44089058
1.48286	28508219.02119765
1.48564	26432237.915029336
1.48842	27218352.73833151
1.4912	31920645.205122136
1.49398	28571740.345998876
1.49676	35762864.370425835
1.49953	37794892.94198698
1.5023	45272463.68576966
1.50507	52283364.273674116
1.50784	45110449.900369324
1.51061	50259923.44133749
1.51337	54170697.082726054
1.51613	45294945.59285336
1.51888	41697273.950427234
1.52164	48674779.471050486
1.52439	58395863.117950685
1.52714	51439181.62187467
1.52989	55017292.036404975
1.53263	64497097.90690058
1.53538	73183862.10270621
1.53812	69850608.51547597
1.54086	64622732.91402845
1.54359	59333376.080964625
1.54632	73331005.8620379
1.54905	75357801.39048237
1.55178	76143364.08794352
1.5545	77787701.66079469
1.55723	79174978.7418335
1.55995	86097404.31529361
1.56266	84715244.84797172
1.56538	90462434.93595907
1.56809	102040977.82780594
1.5708	100154436.8343295
1.57351	101401692.81662478
1.57621	101487067.08139789
1.57891	100619189.66512437
1.58161	105444334.30444361
1.5843	105833911.09596795
1.587	107297201.16901407
1.58969	103903313.57932281
1.59238	99414638.75027147
1.59506	105803283.63208283
1.59774	108565904.52196848
1.60042	104648667.5644196
1.6031	100959650.69116955
1.60577	95486848.13664885
1.60844	91573927.35166977
1.61111	97335775.42378363
1.61378	94886047.32943006
1.61644	88826061.25657557
1.6191	83474160.94521074
1.62176	90239906.57331625
1.62441	89129520.7926992
1.62707	90976204.03678608
1.62971	83696465.75944507
1.63236	90553757.95007609
1.635	96742897.76640263
1.63764	101528892.29352109
1.64028	84150795.87802094
1.64292	87621022.0202462
1.64555	79477032.33474189
1.64818	86861080.02950671
1.65081	95818701.69203573
1.65343	89623881.96255645
1.65605	82125560.19819497
1.65867	83598125.99824806
1.66128	96523423.23794709
1.6639	83929897.05574076
1.66651	36890840.06189138
1.66911	26756584.447473373
1.67172	53280640.77873976
1.67432	72754335.78705774
1.67692	81694278.57231438
1.67951	78798822.5140151
1.68211	69941019.3825325
1.6847	56593294.803969
1.68728	60638632.57655395
1.68987	59515014.065838136
1.69245	51071510.59293944
1.69503	48778724.56104573
1.6976	49391879.01405126
1.70018	51336400.82542143
1.70275	43733532.915812075
1.70531	40536529.90046046
1.70788	48982183.14834063
1.71044	54209110.96150536
1.713	56791786.191984266
1.71556	58821678.72304798
1.71811	60486397.34069616
1.72066	53166689.16882853
1.72321	37927524.434812754
1.72575	44494328.8825225
1.7283	53540662.41470302
1.73084	51109937.59901032
1.73337	40726592.59335512
1.73591	39478395.35916678
1.73844	42032823.921478875
1.74097	38875349.41151934
1.74349	35647239.644134484
1.74602	37250271.80139751
1.74854	45501776.237714775
1.75105	44774183.45106347
1.75357	33446255.18325258
1.75608	25149177.646876562
1.75859	26947427.29858314
1.7611	27063591.247926973
1.7636	27976111.48393955
1.7661	25594325.266665053
1.7686	21943454.971809536
1.7711	24261027.3928936
1.77359	22049905.580541607
1.77608	15830855.949359814
1.77857	18351652.252913233
1.78105	20970760.248840444
1.78354	16182834.772115383
1.78602	14221741.934742535
1.78849	17420250.31194497
1.79097	15694651.168618537
1.79344	14222312.27456043
1.79591	16778259.683278203
1.79837	21415883.546287175
1.80084	15187658.47918548
1.8033	14223514.286720624
1.80576	14677503.657723324
1.80821	14171110.863985231
1.81067	14284462.835173968
1.81312	16424179.593237516
1.81557	17946045.514186647
1.81801	13059365.634649837
1.82046	11306787.861874543
1.8229	13550298.47487761
1.82533	12478209.286642803
1.82777	11242995.346931806
1.8302	12161903.86391297
1.83263	11904074.939472059
1.83506	11568077.60453845
1.83749	12393437.71979786
1.83991	13056337.942494446
1.84233	14145425.366100743
1.84475	15741535.11624573
1.84716	13534868.202363288
1.84957	14631758.0155628
1.85198	16257004.815246422
1.85439	12630258.247878924
1.8568	8992629.14523777
1.8592	7072022.248902387
1.8616	7652040.858615039
1.864	8087681.9322628295
1.86639	7339972.057986522
1.86878	6828024.812279278
1.87118	9595229.554415863
1.87356	10785727.828871142
1.87595	11071545.910616534
1.87833	15507696.288938474
1.88071	19339046.485386662
1.88309	17096702.817170292
1.88547	15705689.300264187
1.88784	18443014.143067095
1.89021	19739530.221806187
1.89258	21738657.294890977
1.89494	23715753.471236516
1.89731	20766999.275192473
1.89967	16642360.598423375
1.90203	16711611.71099205
1.90439	17292977.016374823
1.90674	22168184.699403375
1.90909	24346512.11351007
1.91144	16246187.085271632
1.91379	14540728.134531634
1.91613	20744661.502160765
1.91848	22544578.331574224
1.92082	18036738.427584544
1.92315	15483505.846189605
1.92549	16754774.967374247
1.92782	17447441.343478188
1.93015	14771348.045051768
1.93248	12847552.098065643
1.93481	11763054.941261394
1.93713	8796001.020516016
1.93945	7366900.887705871
1.94177	12047784.179895647
1.94409	15321360.623788761
1.94641	14513961.629094042
1.94872	15221373.999458712
1.95103	19263528.75804798
1.95334	18631275.307657644
1.95564	13628068.04594368
1.95795	12003039.122421162
1.96025	10573789.710359821
1.96255	10204640.872919222
1.96484	13872730.363410784
1.96714	16362743.950769741
1.96943	15477955.917897187
1.97172	17001736.763035327
1.97401	17996380.151960727
1.97629	17773406.527363732
1.97858	18566127.495071348
1.98086	16234162.838278873
1.98314	13592157.685515165
1.98541	16299765.118643275
1.98769	20455836.208924327
1.98996	18728264.80010148
1.99223	16792354.73937104
1.9945	19435128.343803097
1.99677	20465051.675029717
1.99903	18792013.902780294
2.00129	18040892.73374657
2.00355	19599412.84374148
2.00581	22444302.673428763
2.00806	21914746.377469257
2.01031	22004050.774362884
2.01256	27428316.81476437
2.01481	29656351.84570523
2.01706	25487037.31022052
2.0193	25231536.242542997
2.02154	29940680.122093752
2.02378	30870986.96986215
2.02602	26799155.786420356
2.02825	25352780.09398606
2.03049	27918027.7487966
2.03272	32242434.5009571
2.03494	33306533.27280147
2.03717	32137239.68479845
2.03939	32828841.86362247
2.04162	35434830.74459762
2.04384	37654173.66085868
2.04605	37660864.481374905
2.04827	35559260.4953151
2.05048	35611340.81335795
2.05269	35508561.324332304
2.0549	32983694.807802644
2.05711	35253037.73422298
2.05931	37557794.44219968
2.06151	37064520.65085053
2.06371	37451292.594625786
2.06591	37381948.813815355
2.06811	38689041.981532894
2.0703	41031639.812826104
2.07249	42158808.50480403
2.07468	41263317.050492786
2.07686	39986072.214285
2.07905	40881823.2753054
2.08123	42747558.47073579
2.08341	43677057.5162878
2.08559	43191977.57448732
2.08776	43198464.398114584
2.08994	43952248.98474518
2.09211	43999040.61480699
2.09428	44487652.61021814
2.09645	45301150.93026745
2.09861	44450643.73754599
2.10077	42671309.479229815
2.10293	42272954.21223995
2.10509	43408680.75047001
2.10725	43685298.65393102
2.1094	41453906.3563795
2.11155	38164928.848659925
2.1137	37569202.19504166
2.11585	38533461.64699454
2.11799	39430714.82277514
2.12013	40985784.6362701
2.12227	41798235.100734845
2.12441	42070715.94063253
2.12655	41745333.68817089
2.12868	40427438.29660071
2.13081	39950957.97265999
2.13294	40122072.45915591
2.13507	38645116.27835201
2.13719	37412692.598198086
2.13931	38339025.07053179
2.14143	39108745.81046618
2.14355	38241224.718682684
2.14567	36582663.636016816
2.14778	34193622.03312006
2.14989	32562007.22454729
2.152	32549970.34377668
2.1541	32422993.57277489
2.15621	32098620.838420413
2.15831	31374222.424803533
2.16041	29946931.050656654
2.16251	29786028.331841715
2.1646	30136258.817273024
2.1667	30179374.99509066
2.16879	31033667.885710526
2.17087	31785310.86743314
2.17296	31017893.997437537
2.17504	30142359.642066818
2.17713	29882681.14312397
2.1792	28467656.96919644
2.18128	24912366.180491142
2.18336	21315825.719592486
2.18543	20697296.520276777
2.1875	21286867.532262802
2.18957	20716219.3152221
2.19163	20517507.528167967
2.1937	20959299.211756594
2.19576	19376705.39356566
2.19782	15412203.337309953
2.19987	11280973.24101945
2.20193	9030756.27348471
2.20398	8250640.658594596
2.20603	7861324.168983425
2.20808	8160830.51165693
2.21012	8767428.060070956
2.21217	9337967.834204404
2.21421	10693069.703379622
2.21625	12154072.144679347
2.21828	12724956.945918692
2.22032	13203968.040779585
2.22235	13421519.589522632
2.22438	12638921.959917843
2.22641	10943146.563076245
2.22843	10204913.830835763
2.23046	10088466.655906858
2.23248	9360120.778159702
2.2345	8481026.280663686
2.23651	7667985.646166325
2.23853	7238579.743897525
2.24054	7737988.470210316
2.24255	8941035.137293404
2.24456	10068792.762417017
2.24657	10523730.123968804
2.24857	10338743.647439094
2.25057	9802364.927697228
2.25257	9177128.24994743
2.25457	8278900.418268329
2.25656	7414072.93339412
2.25856	6945192.221405627
2.26055	6733117.410498405
2.26254	6030230.876536469
2.26453	5433535.880972315
2.26651	5487768.048340259
2.2685	5751865.960994016
2.27048	5922695.176415811
2.27246	6285304.227724847
2.27443	6384319.408492274
2.27641	6492732.206128134
2.27838	6853848.584937271
2.28036	6688773.435824526
2.28233	6041515.246063775
2.28429	5513665.562292122
2.28626	5087939.383991982
2.28823	4726254.47370584
2.29019	4504759.874551566
2.29215	4351206.388299293
2.29411	4296148.035062905
2.29607	4389454.541444383
2.29802	4869211.775428968
2.29998	5720775.609697884
2.30193	6756289.635997091
2.30388	7565679.688707774
2.30583	8005690.219565386
2.30778	8564523.833065946
2.30972	9253129.52490378
2.31167	9523194.222856697
2.31361	8333277.805280761
2.31555	6336601.727574253
2.31749	4783939.294876699
2.31943	4413582.263324855
2.32137	4134399.449871025
2.32331	3570453.038474392
2.32524	3019655.5752728297
2.32718	2532660.587256512
2.32911	2288621.5705849905
2.33104	2439274.2475354094
2.33297	2826120.900459239
2.3349	3334817.6931328294
2.33683	4059986.9813361038
2.33876	4689660.658703567
2.34068	5094814.115131631
2.34261	5402512.345750775
2.34453	5739552.061130762
2.34646	5952302.904781266
2.34838	5849856.037902702
2.3503	5429775.219967566
2.35223	5281272.017337957
2.35415	5155688.538728502
2.35607	4730766.120778805
2.35799	4910573.814815427
2.35991	5792501.538755002
2.36183	6687574.510242138
2.36375	7258654.638848038
2.36566	7684164.193879857
2.36758	7408929.312933626
2.3695	6577417.611373416
2.37142	5873385.35840137
2.37334	5460129.85380806
2.37526	4869417.250462064
2.37718	4241180.5383384805
2.3791	3982194.1705440497
2.38101	3912406.8651624206
2.38293	3869224.5551250447
2.38485	4115344.0377022154
2.38677	5019164.569618373
2.3887	5991329.099448076
2.39062	6187935.388622344
2.39254	6022136.30502258
2.39446	6225614.223383925
2.39639	6483333.548321428
2.39831	6265615.874490509
2.40024	6110828.025339648
2.40216	6326677.917440103
2.40409	6989569.775037284
2.40602	7210232.0528705735
2.40795	7089304.916658551
2.40989	7541047.777919193
2.41182	8469389.868555596
2.41376	8762709.886063796
2.4157	8793179.579172628
2.41764	8633925.515650839
2.41958	8427398.502701528
2.42152	8128675.963769236
2.42347	8062587.5142284855
2.42542	7998926.380612233
2.42737	8640283.500076042
