#wavelength	surface flux
0.676892	8335.773632391545
0.678297	8732.58356824554
0.679702	9109.486159543336
0.681109	9470.331857193629
0.682517	9788.327592028634
0.683926	10098.054456507978
0.685337	10373.066254423924
0.686749	10601.429902696633
0.688164	10782.510617730308
0.689581	10906.793517379596
0.691	10924.267486410308
0.692422	10655.979828575484
0.693847	10825.469139094748
0.695274	10821.753317840683
0.696705	10857.05212248308
0.698139	10851.187804295545
0.699576	10672.566259071384
0.701017	10495.356193451973
0.702461	10220.77519806898
0.70391	10132.345216603682
0.705362	9859.594546866789
0.706819	9616.062143695974
0.70828	9382.432401923885
0.709745	9000.264845894882
0.711216	8674.113201007374
0.71269	8339.780889001844
0.71417	8038.756437925457
0.715655	7408.550458992293
0.717145	6671.43548824627
0.71864	6162.2743172260725
0.72014	6025.291146189712
0.721647	5888.590326785757
0.723158	5846.479881703122
0.724676	5447.144136971822
0.726199	5014.761254880043
0.727728	4469.7950048268885
0.729264	4606.4234598513185
0.730805	4264.8653336517755
0.732353	4471.146632382256
0.733907	4321.142538046271
0.735468	3904.2306586267387
0.737035	4005.3156845742856
0.738609	3831.6661174285273
0.74019	3699.51343856648
0.741777	3555.1089885137994
0.743372	3450.028594724419
0.744973	3296.76771614432
0.746582	3116.968930029485
0.748197	2925.2375228477486
0.74982	2784.47913484306
0.751451	2603.82242400489
0.753088	2415.9564091333937
0.754734	2220.007801020867
0.756386	2008.288156962854
0.758047	1772.000226915163
0.759715	1496.242128773754
0.76139	1160.2371129961848
0.763074	776.1812869028684
0.764765	429.73440059763556
0.766464	154.63867170809652
0.768172	329.68885644983857
0.769887	230.10854386492642
0.77161	632.3775763659231
0.773341	1211.8216794411971
0.775081	1807.823217400321
0.776829	2352.529878155464
0.778585	2629.104294208246
0.780349	2493.3134257420256
0.782121	3859.691547633855
0.783902	4510.683036342113
0.785691	5116.9768058142645
0.787489	5820.085563880211
0.789295	6548.62961742485
0.79111	7314.971735258204
0.792933	7597.535608789605
0.794764	5864.366808990995
0.796604	9309.114696469502
0.798453	10961.126747171918
0.80031	12193.612967817779
0.802176	13423.202457218464
0.804051	14949.46138330422
0.805934	16276.739181858522
0.807826	17896.610134319824
0.809727	19354.302512760027
0.811636	20492.613969569207
0.813554	20763.713730763357
0.81548	23951.382295365944
0.817416	27513.120885087596
0.81936	30525.991293195486
0.821313	33953.118735888245
0.823274	35346.20605784415
0.825244	38816.92412253264
0.827223	44805.48192879143
0.829211	47902.628528737645
0.831208	50030.851789290646
0.833213	57368.77285120646
0.835227	61858.359493477314
0.837249	64209.19051838949
0.83928	74002.88069745671
0.841321	81437.5189360114
0.843369	89089.1625435188
0.845427	95709.93540029427
0.847493	108412.64824299014
0.849567	112041.24283191087
0.851651	88242.41796617214
0.853742	126811.43575465387
0.855843	149183.08533934745
0.857952	161123.41690415578
0.86007	174516.98945972207
0.862196	183270.72144475573
0.864331	196339.56451059273
0.866474	214670.54949493837
0.868626	234103.1145627631
0.870786	251777.11841152507
0.872955	272096.66045565536
0.875132	287274.4052479108
0.877317	301920.619121034
0.879511	316335.1716399319
0.881713	276765.3497359794
0.883923	253026.55610090046
0.886142	270926.9866731092
0.888369	250842.78531455016
0.890604	272237.1478748365
0.892847	223465.2988455563
0.895099	191271.184138102
0.897358	298490.1005217147
0.899626	352556.8857794522
0.901901	435889.618035054
0.904185	559649.7818263524
0.906476	622792.6957385914
0.908776	522788.6353922371
0.911083	598419.8239301126
0.913398	549387.6103514124
0.915721	648447.2407752394
0.918051	619273.0129289393
0.92039	705616.4934818265
0.922736	704410.591130823
0.925089	556882.5095752138
0.927451	308178.9008919346
0.929819	151204.72818209257
0.932195	134222.47747207378
0.934579	143659.1368034876
0.93697	400167.7797979901
0.939369	543674.8311531905
0.941774	488083.53626880894
0.944187	374647.91457678843
0.946607	446508.6517970723
0.949035	533340.0977643927
0.951469	310424.84430217405
0.953911	361334.76766680664
0.956359	287265.81785175414
0.958814	437848.1256954527
0.961277	238775.20263418288
0.963746	383646.7971482266
0.966222	495860.28594880784
0.968705	675099.58407254
0.971194	750994.168872989
0.97369	656080.478897099
0.976193	863525.1865576034
0.978702	826724.3272835594
0.981217	837335.5770090646
0.983739	701176.3905371658
0.986268	944062.9725953424
0.988802	980300.3976578724
0.991343	1042559.2276932491
0.99389	1226687.310530752
0.996444	1392020.8971608256
0.999003	1344387.310189332
1.00157	1696076.775228067
1.00414	1929972.3383628305
1.00672	2176333.579161539
1.0093	2146263.633171199
1.01189	2292979.6019786336
1.01448	2383163.336710573
1.01708	2506095.8361327164
1.01969	2522621.880513348
1.0223	2662434.5585054317
1.02492	2807391.1724659014
1.02754	2961939.056391433
1.03017	3022388.5118743363
1.0328	2908323.5936299744
1.03544	3284966.1220613094
1.03808	3494328.7601206363
1.04073	3446485.606942626
1.04339	3617150.172637485
1.04604	3813420.623176029
1.04871	3869875.833036232
1.05138	3969146.3554029535
1.05405	4219846.768041618
1.05673	4309171.581370054
1.05941	4415316.889778461
1.0621	4520115.504127748
1.06479	4434417.413780121
1.06749	4454935.131967268
1.07019	4550176.2665533805
1.07289	4584873.586995623
1.0756	4537890.184817513
1.07832	4287769.629417403
1.08104	4455501.639816589
1.08376	4485977.1722657
1.08649	3974584.2926731315
1.08922	3160373.6529310695
1.09195	2661206.251203094
1.09469	2184339.097766657
1.09743	1785558.826059519
1.10018	1283035.1394288903
1.10293	860287.800587514
1.10568	584719.3600260614
1.10844	677015.1319919594
1.1112	413369.6654139738
1.11396	336338.00224000996
1.11673	249121.42985406818
1.1195	322545.65242272307
1.12228	206498.02691975352
1.12505	389187.39548353193
1.12783	447727.0496760452
1.13062	500031.9924029929
1.13341	157512.75550299336
1.1362	205907.34297368806
1.13899	541923.8089152873
1.14178	738479.8283301556
1.14458	418688.6476524998
1.14738	347813.0880931885
1.15019	626129.9797535222
1.153	399336.39653401636
1.1558	304949.0069395789
1.15862	494375.65163858596
1.16143	242712.35774705454
1.16425	192330.26423147556
1.16707	344385.21449040313
1.16989	522709.46376012365
1.17271	775022.3245856038
1.17554	902893.9136620202
1.17837	706126.039000652
1.1812	1461604.0891809752
1.18403	1571366.61008807
1.18686	1434136.5708066511
1.1897	1843708.9061234011
1.19253	2060710.437038117
1.19537	2379413.658116038
1.19822	2488729.681258253
1.20106	2798610.1707616136
1.2039	3173797.5059274645
1.20675	3712076.006829418
1.2096	3560850.9140232266
1.21245	3655537.801365927
1.2153	4049716.8527725176
1.21815	3721238.9369387
1.221	4280777.377517183
1.22385	4678435.585263327
1.22671	4960239.37953838
1.22957	5827241.26265463
1.23242	5839666.748419544
1.23528	5984084.073036698
1.23814	6037544.098717816
1.241	6391604.188656812
1.24387	6311583.260880819
1.24673	6931509.9107358325
1.24959	6642671.528470665
1.25245	6095962.213295574
1.25532	7425959.502466895
1.25818	7712809.92079627
1.26105	7950111.618766993
1.26392	7134397.383764008
1.26678	7377570.767415933
1.26965	6729558.990510648
1.27252	7209787.864839233
1.27538	7235256.221038532
1.27825	6694166.293136786
1.28112	6332994.228616239
1.28399	4777238.637555374
1.28686	4530802.81087796
1.28973	4446039.173110441
1.2926	4234316.064312243
1.29546	3505512.4132839767
1.29833	3408279.178679142
1.3012	4027982.268115776
1.30407	4036083.062126782
1.30694	3475957.04676526
1.30981	3655136.690745637
1.31267	3366746.8190068556
1.31554	2664164.6818013918
1.31841	2415943.18099068
1.32128	3571539.363211624
1.32414	2337165.822949893
1.32701	1558657.073582115
1.32987	762922.7766341408
1.33274	674552.6573584413
1.3356	594415.6959820463
1.33847	107307.699404381
1.34133	79224.03524074754
1.34419	113328.25822737417
1.34705	59145.91066767972
1.34991	72727.52146453885
1.35277	64809.33589832353
1.35563	24613.293426070246
1.35849	17035.8642677153
1.36135	26520.817077388627
1.3642	58764.70341359144
1.36706	38562.1339333245
1.36991	37167.48087273384
1.37277	40905.430798406334
1.37562	61123.50476945771
1.37847	49884.9101319327
1.38132	44772.540477085335
1.38417	14506.889498863378
1.38701	6690.738971949382
1.38986	41856.882784676534
1.39271	77514.48723795339
1.39555	28056.190453997562
1.39839	28915.250894868128
1.40123	45279.13903690353
1.40407	50027.3254506721
1.40691	44771.818753647225
1.40974	28363.604276108108
1.41258	61064.891263527745
1.41541	89094.38758070901
1.41824	39564.05754998768
1.42107	14841.424910774078
1.4239	19101.28270232687
1.42673	99108.28113786779
1.42955	169519.15613587465
1.43237	103746.41666826034
1.43519	189866.3357780444
1.43801	189080.33745206674
1.44083	156220.70574115068
1.44365	189482.23610221557
1.44646	159240.2241892842
1.44927	284188.5112790537
1.45208	477668.48091079213
1.45489	337145.56085613644
1.45769	522937.4141012633
1.4605	435418.518059317
1.4633	324458.0630781371
1.4661	543270.6230517064
1.4689	486399.90475172736
1.47169	376950.15399476193
1.47449	289935.67239634367
1.47728	259861.66052581972
1.48007	256769.9464977208
1.48286	396879.1874894336
1.48564	382039.96248867706
1.48842	393075.5719216784
1.4912	437497.5789828654
1.49398	286365.5621334128
1.49676	401355.8945642246
1.49953	580328.1926369553
1.5023	712753.1239007427
1.50507	848222.901989387
1.50784	816501.7024444157
1.51061	708303.7364212794
1.51337	603963.8426186322
1.51613	515597.36602666887
1.51888	521017.59231285576
1.52164	731655.8629892693
1.52439	957001.3748222914
1.52714	861131.9787306249
1.52989	1118864.4202126432
1.53263	1270352.8860246302
1.53538	1496390.6361927318
1.53812	1675007.1480884724
1.54086	1157631.6428659742
1.54359	1417659.4705009193
1.54632	1575580.6969926776
1.54905	1477881.0870607502
1.55178	1446988.672577034
1.5545	1797220.0873992993
1.55723	2269553.7928197905
1.55995	2609727.210944448
1.56266	2294785.7531768614
1.56538	3543180.883266856
1.56809	4243570.49846562
1.5708	4018596.32294226
1.57351	3684759.7736068973
1.57621	4094897.520654388
1.57891	3917992.6608994408
1.58161	4453055.630304177
1.5843	4335033.214641621
1.587	4326940.148886918
1.58969	4007254.209008271
1.59238	3478500.1420104187
1.59506	4072300.2052595764
1.59774	4358030.749546545
1.60042	3808590.7574189007
1.6031	3168775.226741301
1.60577	2878610.234453512
1.60844	2428538.5944383484
1.61111	2198782.3358034324
1.61378	1829351.3179219181
1.61644	1612043.6937879892
1.6191	1408805.4337270511
1.62176	1653961.9113051097
1.62441	1769871.639162771
1.62707	1749119.8697915033
1.62971	1779158.433602176
1.63236	1455305.736016015
1.635	1944139.5317752603
1.63764	2360038.4869807875
1.64028	2027556.701688968
1.64292	1753589.9082933485
1.64555	1245797.070878169
1.64818	1008160.9365099424
1.65081	1729179.1019825642
1.65343	2030207.1166893702
1.65605	1318019.2984750343
1.65867	1347855.4189454606
1.66128	2040160.2922380522
1.6639	1474802.5169117828
1.66651	306436.58693367086
1.66911	119415.7139230772
1.67172	557872.4227170127
1.67432	1036060.7421674001
1.67692	1385029.4166910055
1.67951	1082052.5072680258
1.68211	711263.9246724708
1.6847	471590.8951664926
1.68728	417946.75433755975
1.68987	407189.7932444411
1.69245	284591.9096578341
1.69503	296262.17175686004
1.6976	260481.4986434337
1.70018	249714.70055670803
1.70275	180114.67625003672
1.70531	207079.95586098373
1.70788	382969.5248887637
1.71044	698464.0908704732
1.713	1108982.0301354304
1.71556	1229382.131270759
1.71811	1210933.7125665839
1.72066	909052.3403288511
1.72321	506745.61000648385
1.72575	833229.2826886787
1.7283	1020217.5060807467
1.73084	1029064.2685223301
1.73337	708333.7732721135
1.73591	604611.3106133816
1.73844	860672.0668434782
1.74097	894716.8240375682
1.74349	943522.7434729019
1.74602	1164195.0481260382
1.74854	1436598.8282856348
1.75105	1466721.4694695778
1.75357	1056912.465410248
1.75608	501938.4502888281
1.75859	415022.42775241786
1.7611	394339.12791928597
1.7636	446530.53150414425
1.7661	505106.9177910876
1.7686	458359.39621997223
1.7711	578802.044399776
1.77359	469728.5834227213
1.77608	298091.47397395055
1.77857	476566.6428204453
1.78105	661915.8064723419
1.78354	437772.5540134577
1.78602	294546.3788241706
1.78849	365530.2792137785
1.79097	313499.65385849786
1.79344	252897.33353670605
1.79591	337087.7255692551
1.79837	540388.2584735014
1.80084	333185.1791280459
1.8033	212138.6481454197
1.80576	224794.3547706288
1.80821	244570.06247301915
1.81067	251855.8617150757
1.81312	331836.5928314796
1.81557	341581.7455975832
1.81801	199801.82582834197
1.82046	153252.73412163655
1.8229	241121.42848124824
1.82533	209051.54132597204
1.82777	121113.41949303544
1.8302	126949.19324694993
1.83263	134736.1269238351
1.83506	106770.86424144612
1.83749	91059.94108573522
1.83991	123643.57840374616
1.84233	221748.45673710835
1.84475	369513.03024741146
1.84716	249979.90367379828
1.84957	247207.73572514468
1.85198	375138.7887533066
1.85439	265309.77108525054
1.8568	127546.20647571406
1.8592	67464.41435829598
1.8616	92278.13581663331
1.864	114043.95167552646
1.86639	83466.12395524938
1.86878	48452.183553555944
1.87118	74282.09083167175
1.87356	96321.57590977229
1.87595	158236.22224639295
1.87833	405616.070791912
1.88071	514837.9817249833
1.88309	379473.59360331454
1.88547	318667.0009896873
1.88784	404900.4413606685
1.89021	431538.480688069
1.89258	507327.0657999515
1.89494	721690.3903445827
1.89731	620895.1307472399
1.89967	335772.075078705
1.90203	300526.50930707227
1.90439	259975.04724029102
1.90674	291031.7990144943
1.90909	274723.9338300028
1.91144	106452.54548523057
1.91379	89889.38898517717
1.91613	213388.88679838518
1.91848	250326.86422490256
1.92082	149260.0259682858
1.92315	120049.75747449885
1.92549	139155.0746512519
1.92782	134598.56837815352
1.93015	98193.48601841996
1.93248	65303.24359987059
1.93481	67946.51147732732
1.93713	72867.1945182069
1.93945	79007.65947944408
1.94177	148701.68611512872
1.94409	165645.79778660156
1.94641	131649.7906929493
1.94872	106324.90070845134
1.95103	129180.98428961395
1.95334	154421.86208924538
1.95564	155629.9589170066
1.95795	176348.34109206268
1.96025	145004.1411593471
1.96255	122596.1925495701
1.96484	208425.14245976286
1.96714	294233.0732849252
1.96943	279636.6268122893
1.97172	278470.96446209535
1.97401	267145.76855928986
1.97629	263810.3875301934
1.97858	297722.56228254625
1.98086	236866.55066757769
1.98314	163910.69057678938
1.98541	261258.25948087295
1.98769	407779.4592437243
1.98996	369580.8690516078
1.99223	315522.8360430858
1.9945	438391.30419177504
1.99677	568028.1804633074
1.99903	609280.3955216771
2.00129	583439.7366965846
2.00355	515857.86585955153
2.00581	548640.8884033612
2.00806	652446.3605401112
2.01031	653744.0940576368
2.01256	696130.0268525636
2.01481	713340.1267538276
2.01706	609279.7670339985
2.0193	569208.9208745948
2.02154	682934.3555115327
2.02378	817471.0109161272
2.02602	783089.5757499427
2.02825	648678.3291787558
2.03049	675894.35228548
2.03272	848475.6993108008
2.03494	937134.4051970178
2.03717	880317.8674487257
2.03939	871350.4514281972
2.04162	1114645.1356934514
2.04384	1362197.367748202
2.04605	1449086.382835737
2.04827	1365070.1296936783
2.05048	1341147.3499087205
2.05269	1402413.5648649172
2.0549	1337165.854447295
2.05711	1308067.254474264
2.05931	1331683.313011123
2.06151	1507707.6690960594
2.06371	1706945.6244997114
2.06591	1698708.7220732474
2.06811	1638915.9016079705
2.0703	1771437.9139840165
2.07249	2002447.586944738
2.07468	2123618.7140272735
2.07686	2171093.2243745294
2.07905	2138726.4304578616
2.08123	2012038.1056202725
2.08341	1986805.9592666067
2.08559	2059214.0281752658
2.08776	2126217.501006609
2.08994	2165879.641490133
2.09211	2092815.774301888
2.09428	2013226.3880095023
2.09645	2037475.7661124126
2.09861	2018655.2053489885
2.10077	1930154.5647193477
2.10293	1955176.8041442572
2.10509	2087605.985885618
2.10725	2133311.2453587134
2.1094	1983473.8346991106
2.11155	1755534.485703969
2.1137	1698912.8090752927
2.11585	1760166.7672709317
2.11799	1835751.5957371574
2.12013	1920844.3956078142
2.12227	1907507.616607858
2.12441	1869689.1739629451
2.12655	1842243.7927318283
2.12868	1785340.3382572008
2.13081	1736439.4226766096
2.13294	1670834.135049604
2.13507	1534711.0491492227
2.13719	1460077.5171313316
2.13931	1569067.0062025033
2.14143	1623478.0952160168
2.14355	1465214.1776522223
2.14567	1257784.4665687848
2.14778	1085604.9328882357
2.14989	1007252.7276932346
2.152	1030193.6509838079
2.1541	1013630.4121977628
2.15621	944838.945998825
2.15831	842102.4308047432
2.16041	638288.0552073448
2.16251	480781.2072438357
2.1646	503260.9554376947
2.1667	596862.757880177
2.16879	691709.7158927518
2.17087	789446.4564558199
2.17296	814711.948708947
2.17504	816849.3130252529
2.17713	839346.2518867137
2.1792	761097.9463645039
2.18128	591673.603440137
2.18336	476720.1026644927
2.18543	496767.8408079533
2.1875	514377.29028556525
2.18957	429383.50438865746
2.19163	343317.36609116895
2.1937	311506.51498542883
2.19576	265309.3102754946
2.19782	172758.81701647944
2.19987	81345.69443465835
2.20193	46762.420636887866
2.20398	55330.11979604535
2.20603	68741.89435070523
2.20808	74986.43390618243
2.21012	69808.37896672096
2.21217	67783.91918888336
2.21421	94236.03731137383
2.21625	120429.40374555471
2.21828	116275.99578101267
2.22032	101644.45290747612
2.22235	105780.54580978504
2.22438	121308.37677720774
2.22641	106283.33383210911
2.22843	71947.55281176293
2.23046	47410.67196708229
2.23248	36697.583926848114
2.2345	34544.367597108634
2.23651	30503.524370999115
2.23853	29610.92821812592
2.24054	40666.37547272904
2.24255	53529.02936446601
2.24456	57308.72133221585
2.24657	50414.54970197593
2.24857	39779.0932689272
2.25057	31210.348072592184
2.25257	22887.024074674864
2.25457	16222.45650046438
2.25656	15672.399438123135
2.25856	22251.104348167435
2.26055	27608.765900732968
2.26254	27234.929222494484
2.26453	26550.20774709057
2.26651	29066.225670754397
2.2685	29157.622280456602
2.27048	28316.04966390806
2.27246	35813.29785264487
2.27443	40963.275539715505
2.27641	40676.702026279316
2.27838	43470.153740895264
2.28036	44078.73393872024
2.28233	36499.807134536175
2.28429	29591.824058539147
2.28626	24814.15844012836
2.28823	20039.3985404824
2.29019	15297.321182799447
2.29215	12503.7154889236
2.29411	13797.063629749762
2.29607	17927.224495624865
2.29802	22265.2234790869
2.29998	27614.975271242027
2.30193	38746.14669655028
2.30388	51940.8071780093
2.30583	61414.20041654067
2.30778	75922.65254132618
2.30972	108967.52578590569
2.31167	144535.78300210653
2.31361	137161.91074272804
2.31555	88127.84975950464
2.31749	34789.419536048335
2.31943	14269.05975143809
2.32137	11868.863019173525
2.32331	12930.729052340066
2.32524	11754.40770547029
2.32718	9394.982878503703
2.32911	7227.852905817667
2.33104	6170.323541089602
2.33297	9352.810052491717
2.3349	18764.510925506976
2.33683	29149.22294357729
2.33876	31867.52755262697
2.34068	28516.171358893804
2.34261	24642.085355741874
2.34453	23372.171336837077
2.34646	27307.969322523935
2.34838	36617.911832495374
2.3503	41838.390843217785
2.35223	43059.10029624187
2.35415	40625.90002909005
2.35607	40099.843100636506
2.35799	53160.44823875963
2.35991	70395.39565251555
2.36183	78376.24357774737
2.36375	76668.27680041423
2.36566	72358.4499946711
2.36758	56624.164234159005
2.3695	39098.57035424042
2.37142	30341.339588049184
2.37334	32041.09460793543
2.37526	33817.87301285461
2.37718	32741.954306494205
2.3791	32778.8499493795
2.38101	34982.93189293944
2.38293	38584.88824554586
2.38485	41711.589260046785
2.38677	50116.43933311356
2.3887	61978.72653959865
2.39062	68945.24552337284
2.39254	71672.03976800032
2.39446	74418.5449015416
2.39639	77023.85453063049
2.39831	80290.7025327226
2.40024	99175.67825873029
2.40216	119502.53194482044
2.40409	130424.95828264293
2.40602	113933.86905685204
2.40795	92209.3113807032
2.40989	94345.71335862965
2.41182	122608.05969675216
2.41376	141318.3515985811
2.4157	148101.77705788566
2.41764	149199.06688386356
2.41958	148452.81577704265
2.42152	141812.49528940162
2.42347	132841.02820070583
2.42542	130175.84329968385
2.42737	142347.40124065615
