#wavelength	surface flux
0.8	41652.719905831065
0.8002000000000001	42374.5304597811
0.8004000500000003	43101.20907751632
0.8006001500125003	43736.95627963662
0.8008003000500035	44458.25035697676
0.8010005001250161	45043.88831746483
0.8012007502500472	45990.4002109486
0.8014010504376099	46614.56810632187
0.8016014007002193	47184.79521781033
0.8018018010503944	48072.14825596499
0.8020022515006572	48593.83376920221
0.8022027520635323	49503.93577117765
0.8024033027515483	50310.229522762835
0.8026039035772362	50841.95394492806
0.8028045545531306	51949.58830602915
0.8030052556917691	52446.7591837349
0.803206007005692	53439.82639370689
0.8034068085074435	54037.22385870954
0.8036076602095705	55141.794322157766
0.8038085621246229	56038.85740432186
0.8040095142651542	57013.15007459389
0.8042105166437206	57462.646772001164
0.8044115692728815	58413.04988726151
0.8046126721651998	59145.95833743016
0.8048138253332411	60384.76664594845
0.8050150287895745	61533.79448048009
0.805216282546772	62328.77568293914
0.8054175866174087	62795.88482672718
0.8056189410140631	63992.15558445573
0.8058203457493168	64763.15061220104
0.8060218008357541	66090.42065191509
0.8062233062859632	66093.30850929698
0.8064248621125346	67705.61411296812
0.806626468328063	68899.93023775064
0.8068281249451449	69658.06906859836
0.8070298319763813	70465.17162258475
0.8072315894343755	71226.88541255363
0.8074333973317341	72757.81516908619
0.8076352556810671	73909.85469504728
0.8078371644949874	74799.77685087267
0.8080391237861113	76388.51294978936
0.8082411335670578	76571.88803454085
0.8084431938504498	77656.25520498259
0.8086453046489125	78708.43016641072
0.8088474659750746	79373.39373364032
0.8090496778415686	80571.62998225476
0.809251940261029	79857.78926511719
0.8094542532460944	83315.30374235476
0.8096566168094059	84187.59355484172
0.8098590309636085	85218.25551236515
0.8100614957213493	83830.08383669902
0.8102640110952797	86408.18098889584
0.8104665770980536	87177.85121475178
0.8106691937423283	89206.2685192949
0.8108718610407639	89276.38106698214
0.8110745790060241	89603.96501874589
0.8112773476507757	91900.02186000673
0.8114801669876885	92566.52585070912
0.8116830370294355	92793.61517722873
0.8118859577886929	98481.51367781399
0.8120889292781401	97072.5653872044
0.8122919515104597	96156.40090834218
0.8124950244983374	95562.22158010567
0.8126981482544621	101123.2638203769
0.8129013227915257	102868.71928507333
0.8131045481222237	103911.65970274058
0.8133078242592543	102021.91065987994
0.8135111512153191	103589.05889885007
0.813714529003123	103228.78906713889
0.8139179576353739	107695.48431924089
0.8141214371247829	109047.87759547208
0.8143249674840641	105852.94284215092
0.814528548725935	112627.66506580036
0.8147321808631167	115794.49281751811
0.8149358639083326	114435.8686250474
0.8151395978743097	109586.717720371
0.8153433827737784	120675.24599932942
0.8155472186194719	117788.50415424193
0.8157511054241268	119774.83745496595
0.815955043200483	124464.25584963139
0.8161590319612831	127527.85166008813
0.8163630717192736	119219.80167403791
0.8165671624872033	127089.0570760261
0.8167713042778252	130365.07747432358
0.8169754971038948	135076.53495073083
0.8171797409781707	125953.26122916125
0.8173840359134155	139401.27731059858
0.8175883819223938	141742.22402760625
0.8177927790178745	141783.31561540495
0.8179972272126291	137883.90793238115
0.8182017265194322	144719.4702502627
0.8184062769510622	140686.39471909814
0.8186108785203001	150030.7508835695
0.8188155312399301	147626.55106758935
0.8190202351227402	151573.60718898027
0.819224990181521	150265.62950212773
0.8194297964290664	148672.41158030118
0.8196346538781738	153847.15546622267
0.8198395625416434	160949.74493411244
0.8200445224322789	158568.50269659827
0.820249533562887	163769.79823635874
0.8204545959462778	167440.7585787431
0.8206597095952644	169386.5575307713
0.8208648745226633	171159.13807352763
0.8210700907412941	172870.36677906688
0.8212753582639793	175225.99428038482
0.8214806771035456	178037.72464098057
0.8216860472728215	180228.66520570134
0.8218914687846397	181318.66550450737
0.822096941651836	183581.25355737875
0.822302465887249	185780.9932007607
0.8225080415037209	188117.12592155754
0.8227136685140968	181624.41306869153
0.8229193469312254	168045.09373377237
0.8231250767679583	165178.5474309427
0.8233308580371503	181941.71799904158
0.8235366907516598	189206.1262084976
0.8237425749243477	196382.37362965455
0.8239485105680789	197726.14257074794
0.824154497695721	203749.5782622532
0.824360536320145	202779.88493105466
0.8245666264542252	196813.74727817767
0.8247727681108388	215835.33704357763
0.8249789613028664	217381.24728239287
0.8251852060431922	220582.57995633417
0.825391502344703	224405.21880811173
0.8255978502202894	226766.57123376167
0.8258042496828445	224779.84311971033
0.8260107007452654	231007.27675646555
0.8262172034204517	225660.9769945552
0.8264237577213068	232958.3060103725
0.8266303636607373	236074.31005946393
0.8268370212516525	242937.75735467213
0.8270437305069654	245279.3139287121
0.8272504914395923	246964.26439353233
0.8274573040624523	244225.17539607745
0.8276641683884679	246296.90126043704
0.8278710844305652	249774.66141688495
0.8280780522016729	257238.10396535962
0.8282850717147234	256812.6356508342
0.8284921429826521	261106.84868520038
0.8286992660183978	266967.68258990784
0.8289064408349024	263133.9453360479
0.8291136674451112	261716.02439650084
0.8293209458619727	272511.1676697579
0.8295282760984382	268299.02051306615
0.829735658167463	258004.18312088028
0.8299430920820048	280608.0684213611
0.8301505778550254	284599.28797903954
0.8303581154994891	286411.4091245224
0.8305657050283641	290700.40490977577
0.8307733464546212	280486.9759681681
0.8309810397912352	299245.786630579
0.8311887850511829	304398.85445074196
0.8313965822474458	295165.869298313
0.8316044313930077	307475.54174563964
0.8318123325008561	308113.96711479814
0.8320202855839813	306488.15458791575
0.8322282906553774	313704.92166211316
0.8324363477280413	308531.4799657022
0.8326444568149735	329024.8385238788
0.8328526179291771	332835.6174307826
0.8330608310836596	327578.4241502993
0.8332690962914304	322112.9585441391
0.8334774135655034	328995.2483630567
0.833685782918895	334025.7398437789
0.8338942043646247	346911.9313319675
0.834102677915716	331344.42976792104
0.834311203585195	350628.8458587595
0.8345197813860912	356883.3607594592
0.8347284113314379	365000.3525151329
0.8349370934342709	367077.6889328681
0.8351458277076294	350726.1968496494
0.8353546141645565	370528.8610913649
0.8355634528180977	356605.25211876776
0.8357723436813022	364436.83656294766
0.8359812867672226	354209.2920216844
0.8361902820889144	387654.926993008
0.8363993296594368	355518.2272772285
0.8366084294918518	388510.0214240868
0.8368175815992247	388896.49507567537
0.8370267859946247	385601.2631821829
0.8372360426911234	403369.9152914209
0.8374453517017962	409683.3282597708
0.8376547130397217	394988.04938245006
0.8378641267179816	391995.4318112495
0.8380735927496613	418901.91282270616
0.8382831111478488	427859.50001834455
0.8384926819256358	431486.75838371884
0.8387023050961173	423508.08076276194
0.8389119806723914	424280.40140050807
0.8391217086675596	447731.3777352642
0.8393314890947265	455774.17454912164
0.8395413219670003	452555.9625289075
0.8397512072974922	455530.14912469115
0.8399611450993165	445317.310868795
0.8401711353855914	456966.08229485224
0.8403811781694378	469066.28562772257
0.8405912734639802	460422.5304868391
0.8408014212823464	458742.31054011284
0.8410116216376671	476310.00055498746
0.8412218745430766	489417.7935760795
0.8414321800117124	497038.9056200644
0.8416425380567154	487741.99953671976
0.8418529486912297	497571.69468130614
0.8420634119284025	475025.7711278949
0.8422739277813847	506401.09302569815
0.8424844962633302	514546.48210572836
0.842695117387396	527003.564229751
0.8429057911667428	528094.1591270675
0.8431165176145345	518483.39307117125
0.8433272967439382	534764.8410930914
0.8435381285681244	534656.8859546517
0.8437490131002665	539375.6949263242
0.8439599503535415	555509.7548137737
0.84417094034113	547330.0229717811
0.8443819830762154	539504.9099012631
0.8445930785719846	563766.4725194742
0.8448042268416277	570895.8613321452
0.8450154278983382	571637.8374135443
0.8452266817553128	576942.4224657954
0.8454379884257517	579644.8410940195
0.8456493479228583	566597.3567708352
0.845860760259839	599838.7535920471
0.846072225449904	612698.3261453086
0.8462837435062666	610506.1635802254
0.8464953144421433	592372.6312639547
0.8467069382707537	609409.1938071945
0.8469186150053215	628252.4349701637
0.847130344659073	622753.5608242393
0.8473421272452377	633865.2422131302
0.8475539627770492	635534.1066126873
0.8477658512677435	641128.7571259546
0.8479777927305605	653820.5572940488
0.8481897871787432	658641.3250699193
0.848401834625538	665745.5440129396
0.8486139350841944	667758.9610776945
0.8488260885679657	663922.833840349
0.8490382950901076	668359.0564827791
0.8492505546638802	684397.7728682042
0.8494628673025462	677688.7935948191
0.8496752330193721	695940.5274614106
0.8498876518276269	688004.8420286978
0.8501001237405839	680678.1248648221
0.8503126487715191	687562.3144028819
0.850525226933712	688222.855435819
0.8507378582404455	681254.1558888642
0.8509505427050057	661582.7462759434
0.8511632803406821	641252.355306249
0.8513760711607672	582506.547500673
0.8515889151785576	490507.9678866069
0.8518018124073523	315579.1059158917
0.8520147628604541	98416.96412278291
0.8522277665511693	112398.23830898237
0.8524408234928071	339369.71569538134
0.8526539336986805	518127.9530145924
0.8528670971821053	623635.5699045482
0.8530803139564007	687456.2421988415
0.8532935840348901	724505.5222668345
0.8535069074308987	762507.5924186091
0.8537202841577566	782848.8278131005
0.8539337142287962	793247.6550044059
0.8541471976573534	805203.2629397372
0.8543607344567677	827748.1862165802
0.8545743246403821	840957.6404239556
0.8547879682215422	845053.7479635482
0.8550016652135977	855735.2864299273
0.8552154156299011	860828.8617451536
0.8554292194838088	867831.4526135629
0.8556430767886797	873944.1031701709
0.855856987557877	891902.9881698672
0.8560709518047664	903696.7520871331
0.8562849695427177	911629.5929649988
0.8564990407851035	909127.0194991364
0.8567131655452999	923989.6888196496
0.8569273438366862	937932.6243783737
0.8571415756726455	943762.7677069571
0.8573558610665638	948321.3926444754
0.8575702000318304	943702.9067673942
0.8577845925818384	960495.4081114965
0.857999038729984	976675.966981269
0.8582135384896665	981852.1509120722
0.858428091874289	983943.3890688433
0.8586426988972576	995388.7483148987
0.8588573595719821	999868.5429980233
0.8590720739118751	1008836.8982469088
0.8592868419303532	1017536.6972553127
0.8595016636408359	1029449.3705877316
0.8597165390567462	1037964.9475672644
0.8599314681915105	1037873.6926446161
0.8601464510585584	1043954.6601256173
0.860361487671323	1055321.00646404
0.8605765780432408	1062487.8061777614
0.8607917221877518	1067867.7845068858
0.8610069201182988	1073423.0594129602
0.8612221718483286	1053931.1048518117
0.8614374773912907	1001342.618106974
0.8616528367606385	1029618.7264232235
0.8618682499698288	1011700.1515538373
0.8620837170323213	1005874.2622862298
0.8622992379615795	1039463.98874798
0.8625148127710699	1036613.554778885
0.8627304414742627	1030298.0286746895
0.8629461240846313	1096130.1102910035
0.8631618606156526	1053691.4661880273
0.8633776510808066	1052217.7038301725
0.8635934954935769	1067996.736185859
0.8638093938674504	1085342.944485257
0.8640253462159173	1099018.4795549235
0.8642413525524714	1092799.9867416814
0.8644574128906095	1127287.7097894603
0.8646735272438323	1137348.8651594077
0.8648896956256433	1105735.4434517252
0.8651059180495498	1158405.0133529683
0.8653221945290621	1144148.902121468
0.8655385250776946	1217217.8902828728
0.8657549097089641	1184286.9257573765
0.8659713484363913	1195591.1254540153
0.8661878412735006	1219479.7399495372
0.866404388233819	1228380.9012132622
0.8666209893308775	1214669.728383584
0.8668376445782103	1280144.5657262786
0.8670543539893549	1245029.7822781168
0.8672711175778525	1257560.704689499
0.8674879353572469	1259514.228493384
0.8677048073410862	1296416.7436180273
0.8679217335429217	1317265.797941065
0.8681387139763074	1305657.671311191
0.8683557486548015	1284114.447492411
0.8685728375919655	1286636.2547383306
0.8687899808013633	1348412.6732317614
0.8690071782965637	1373240.36512258
0.869224430091138	1393151.8404239507
0.8694417361986609	1382360.2342782472
0.8696590966327107	1320046.253693755
0.869876511406869	1357325.4742199224
0.8700939805347206	1400125.5785263411
0.8703115040298544	1415495.1872694124
0.870529081905862	1394703.0523701243
0.8707467141763385	1424937.5941666493
0.8709644008548827	1394300.2847750734
0.8711821419550964	1399500.2346130433
0.8713999374905854	1415670.3478930264
0.871617787474958	1476096.1410676758
0.8718356919218269	1475702.1276055921
0.8720536508448075	1441278.4099266287
0.8722716642575187	1461065.8903364686
0.8724897321735832	1459219.6042208103
0.8727078546066265	1521393.998440586
0.8729260315702784	1492331.171127688
0.873144263078171	1518741.4749797033
0.8733625491439405	1546436.0785072157
0.8735808897812266	1490342.9284401995
0.8737992850036719	1536161.273632474
0.874017734824923	1541026.6609511627
0.8742362392586293	1595242.3758214451
0.874454798318444	1600196.5342391084
0.8746734120180236	1617835.5535404526
0.8748920803710283	1636260.3109624928
0.875110803391121	1600200.1615877815
0.8753295810919689	1584463.2794294641
0.875548413487242	1659497.2099679743
0.8757673005906139	1652630.8171785555
0.8759862424157616	1688131.5653228255
0.8762052389763657	1692671.795828913
0.8764242902861098	1667519.2343501819
0.8766433963586814	1725625.3447554696
0.8768625572077712	1661914.6573143038
0.8770817728470732	1637228.4454042788
0.8773010432902849	1732786.7794191572
0.8775203685511077	1717803.1538601038
0.8777397486432454	1816780.3126179676
0.8779591835804065	1780382.9052520646
0.8781786733763015	1698734.6569763294
0.8783982180446457	1763941.642854017
0.878617817599157	1798917.0121528613
0.8788374720535569	1729797.3463971913
0.8790571814215703	1782552.4142880915
0.8792769457169257	1825083.0511850258
0.879496764953355	1808640.2373674111
0.8797166391445934	1887015.8290712768
0.8799365683043796	1883582.939671796
0.8801565524464557	1809858.6860763
0.8803765915845676	1788607.856419424
0.8805966857324639	1839027.3066459794
0.880816834903897	1753726.4982142253
0.881037039112623	1818433.3197723092
0.8812572983724012	1825291.027595066
0.8814776126969944	1805967.0330228794
0.8816979821001687	1818303.620967063
0.8819184065956938	1841401.9199331698
0.8821388861973429	1774280.4507831885
0.8823594209188923	1701232.3911948556
0.882580010774122	1705761.002445694
0.8828006557768155	1710579.7798679555
0.8830213559407598	1671576.6144056488
0.8832421112797452	1754439.1509523764
0.8834629218075651	1679495.2387448438
0.8836837875380171	1681673.8150359236
0.8839047084849018	1752754.3817555672
0.884125684662023	1830725.0860491206
0.8843467160831886	1875115.1138490138
0.8845678027622095	1902507.288576508
0.8847889447129001	1773748.529192014
0.8850101419490785	1867292.0440429186
0.8852313944845657	1909993.2832796746
0.885452702333187	2016031.709420674
0.8856740655087704	1981601.5274037903
0.8858954840251476	1877344.2355248283
0.8861169578961539	1856592.9249829913
0.886338487135628	1969111.2763557623
0.886560071757412	1941468.47405526
0.8867817117753515	1859578.6092254415
0.8870034072032955	1765234.3803641966
0.8872251580550963	1628869.6165462653
0.8874469643446101	1670921.5192662159
0.8876688260856963	1718633.7609105585
0.8878907432922178	1841799.7712853493
0.8881127159780409	1896252.7168056483
0.8883347441570356	1902695.95866054
0.8885568278430749	1765476.8311703913
0.8887789670500358	1951763.7262127828
0.8890011617917983	1977161.903969175
0.8892234120822464	2094994.1389132494
0.8894457179352669	2089259.4762381986
0.8896680793647509	1982702.2512979251
0.8898904963845921	1869873.0899003353
0.8901129690086883	2012328.528754797
0.8903354972509405	2080644.2446344236
0.8905580811252535	2085598.7317838918
0.8907807206455347	2023248.0864675608
0.8910034158256963	1931835.3579161935
0.8912261666796527	1832558.2578686161
0.8914489732213227	1946237.3447748767
0.8916718354646282	1989122.335831749
0.8918947534234944	1879756.8547812726
0.8921177271118502	1794514.7582172828
0.8923407565436284	1901558.4018615421
0.8925638417327644	1698045.3337972595
0.8927869826931977	1819148.8466524505
0.8930101794388711	1737466.5532898859
0.8932334319837308	1656223.1123126105
0.8934567403417267	1634440.8557168269
0.8936801045268123	1270723.3617045297
0.8939035245529441	1051168.9006279737
0.8941270004340824	524058.63368932175
0.894350532184191	129896.72491785811
0.8945741198172371	540780.5720937735
0.8947977633471915	1047650.811833874
0.8950214627880284	1392353.8234243894
0.8952452181537254	1672890.5630719585
0.8954690294582639	1633901.1411548469
0.8956928967156286	1626080.4068600575
0.8959168199398075	1979444.533354744
0.8961407991447926	2159862.5211579236
0.8963648343445789	2091080.327683197
0.896588925553165	1802565.713698269
0.8968130727845534	1952535.2271315695
0.8970372760527496	2238689.2343810005
0.8972615353717629	2143662.7387324357
0.8974858507556059	2034775.6300979734
0.8977102222182949	2341877.546618822
0.8979346497738496	2580078.637791921
0.8981591334362931	2452984.425098854
0.8983836732196523	2169484.4281895217
0.8986082691379572	2528043.476368173
0.8988329212052417	2321747.4472109918
0.8990576294355432	2083815.0100933642
0.8992823938429022	2124298.1872388576
0.8995072144413631	2390571.2380910916
0.8997320912449734	2685343.6119415397
0.8999570242677847	2702773.826595938
0.9001820135238516	2363455.970589083
0.9004070590272328	2680938.814057241
0.9006321607919896	2772960.239729675
0.9008573188321878	2718690.3078885977
0.9010825331618959	2562658.1455207285
0.9013078037951865	2823343.148845292
0.9015331307461353	2893820.4100341806
0.9017585140288219	2822880.3505688794
0.9019839536573292	2805426.506702085
0.9022094496457435	3237917.371636438
0.9024350020081551	3005132.9757397487
0.9026606107586572	3097925.3327698316
0.902886275911347	2887187.74006987
0.9031119974803249	3078450.846494031
0.9033377754796951	3155159.6394504034
0.903563609923565	3317166.8980493443
0.903789500826046	3433139.354616171
0.9040154482012526	3506023.188439109
0.904241452063303	3331107.0271400795
0.9044675124263188	3222777.6389751136
0.9046936293044254	3388386.5339464583
0.9049198027117517	3369827.2499737917
0.9051460326624297	3523988.1079501705
0.9053723191705955	3568684.532509392
0.9055986622503881	3472887.1603960413
0.9058250619159507	3612667.5630458896
0.9060515181814298	3510150.1228240808
0.9062780310609752	3501549.617900538
0.9065046005687405	3487838.299388625
0.906731226718883	3572235.1389111956
0.9069579095255627	3731593.1244498244
0.907184649002944	3369949.3406117843
0.907411445165195	3371850.1268837466
0.9076382980264862	3540831.5732451635
0.907865207600993	3738643.5480079576
0.9080921739028933	3519045.281050299
0.9083191969463691	3300640.43060372
0.9085462767456058	3855509.582272244
0.9087734133147922	3707944.4598066784
0.9090006066681211	3397648.9990574634
0.909227856819788	3757656.29808903
0.9094551637839932	3759821.5384792206
0.9096825275749393	3757697.695983184
0.9099099482068329	3813326.285497847
0.9101374256938848	3696608.752718442
0.9103649600503083	3777575.2924807733
0.9105925512903209	4030492.4680260145
0.9108201994281437	3004202.376010174
0.9110479044780008	3259779.933128318
0.9112756664541204	4003835.2795125134
0.911503485370734	4046620.651115563
0.9117313612420768	4099468.9634156795
0.9119592940823873	3800970.2933007516
0.912187283905908	3855579.843929436
0.9124153307268845	4184621.5718394583
0.9126434345595664	4226120.1150635835
0.9128715954182063	3897792.486776494
0.9130998133170609	3004938.9543806766
0.9133280882703902	3450401.8041065196
0.913556420292458	4024204.3046043417
0.9137848093975312	3579541.0803841483
0.9140132555998806	3756711.511653674
0.9142417589137806	4277433.099902041
