#wavelength	surface flux
0.676892	777116.9721459623
0.678297	824391.847837962
0.679702	869180.6387857477
0.681109	911115.8052239489
0.682517	947557.8229953671
0.683926	984907.4838986935
0.685337	1016123.393473654
0.686749	1043850.9376432437
0.688164	1068739.9781759856
0.689581	1087508.487292594
0.691	1077657.2985366571
0.692422	1096482.5664849835
0.693847	1075426.9962429137
0.695274	1120723.6828711114
0.696705	1128445.4967265776
0.698139	1128698.8744118789
0.699576	1122543.2523123024
0.701017	1109690.2938986286
0.702461	1097089.0519564047
0.70391	1080831.8622428544
0.705362	1051117.827471966
0.706819	1023610.3237029342
0.70828	998171.9272517212
0.709745	960542.2915789442
0.711216	929136.314113871
0.71269	892614.3848447928
0.71417	855071.6298740635
0.715655	805693.0682848594
0.717145	755872.8906674851
0.71864	710502.6311559521
0.72014	678572.065955114
0.721647	641646.2784560747
0.723158	612720.6563796633
0.724676	567898.3630987155
0.726199	523033.9759546291
0.727728	469299.1518433825
0.729264	447064.0247937911
0.730805	406625.02588125796
0.732353	380251.7658227586
0.733907	344577.98095966247
0.735468	302791.2337325105
0.737035	279912.1625682176
0.738609	250054.63049669962
0.74019	221900.50324892846
0.741777	194868.54561445143
0.743372	169912.0557700093
0.744973	146025.6997381237
0.746582	123671.13207088833
0.748197	103134.21583197055
0.74982	85248.08533621849
0.751451	68786.99303062864
0.753088	54357.37046727337
0.754734	41909.02783181774
0.756386	31389.06065025342
0.758047	22748.162291220277
0.759715	15895.525232596072
0.76139	10634.189198642047
0.763074	6648.163275543445
0.764765	3339.0468413111607
0.766464	1048.3317445291577
0.768172	2223.75569356485
0.769887	1556.0936869727798
0.77161	5054.7951642276075
0.773341	10340.459245992617
0.775081	17102.211984311216
0.776829	26215.2745133191
0.778585	33631.530708364684
0.780349	36038.899326796294
0.782121	71599.23887343801
0.783902	98467.53965009851
0.785691	128354.2208538407
0.787489	163725.4077132661
0.789295	204209.9625829049
0.79111	248365.30288310308
0.792933	267360.3041364072
0.794764	178402.8272670314
0.796604	381328.9919729079
0.798453	497271.7706871381
0.80031	588090.1420841056
0.802176	682337.1998050493
0.804051	787142.2303931939
0.805934	897846.1754776299
0.807826	1018015.5453164149
0.809727	1143829.1400081038
0.811636	1275796.1319798047
0.813554	1406986.5247249615
0.81548	1581790.7682388988
0.817416	1726517.991148198
0.81936	1688566.6368274686
0.821313	2141909.8684645216
0.823274	2394206.905542908
0.825244	2597575.629497766
0.827223	2884143.5543632023
0.829211	3093441.7548721833
0.831208	3326415.1832068902
0.833213	3724794.232985329
0.835227	3991376.1803143034
0.837249	4168971.3990834947
0.83928	4627339.089551779
0.841321	5042618.725648822
0.843369	5402553.120515972
0.845427	5720539.348096426
0.847493	6217881.192221312
0.849567	6235808.800369682
0.851651	4269710.655198907
0.853742	6596774.578061824
0.855843	7988345.227570325
0.857952	8559639.813937804
0.86007	8827311.49468977
0.862196	6254309.96914305
0.864331	6781743.958674136
0.866474	7722842.434963074
0.868626	7975550.804474812
0.870786	7691450.2304603765
0.872955	8057686.543103965
0.875132	7422102.766869814
0.877317	10734422.364147099
0.879511	11271230.168532094
0.881713	10512568.863514405
0.883923	11504348.03223903
0.886142	12816419.136175813
0.888369	12055327.253666356
0.890604	14073830.677540665
0.892847	11450625.573386926
0.895099	10040660.386765061
0.897358	14977660.57775437
0.899626	17175326.545181338
0.901901	19103383.79459799
0.904185	22176908.49368326
0.906476	20631685.31945324
0.908776	18499240.396666568
0.911083	20867845.772375517
0.913398	22453854.261564236
0.915721	25697870.479346752
0.918051	26639393.464372832
0.92039	29985596.90224708
0.922736	29105713.416470118
0.925089	27547779.071252756
0.927451	23254845.159496512
0.929819	17692380.902737726
0.932195	14874473.12569553
0.934579	15265191.951559389
0.93697	27233472.02565207
0.939369	29725518.570138432
0.941774	28247276.014674734
0.944187	24605900.410941683
0.946607	31558354.598030392
0.949035	33087998.795314055
0.951469	24959716.685518656
0.953911	28132045.13854976
0.956359	23793058.943141297
0.958814	31832486.689102277
0.961277	24492169.138131414
0.963746	22407123.328041278
0.966222	31899289.863167495
0.968705	34735333.045396306
0.971194	38796113.03332629
0.97369	36146373.082565695
0.976193	44351123.55502784
0.978702	42552154.69648255
0.981217	45660293.77540748
0.983739	40030602.19238233
0.986268	48022174.58060398
0.988802	49556216.70848771
0.991343	39164045.65294494
0.99389	45147371.064589806
0.996444	45994968.477461554
0.999003	28976002.53140843
1.00157	28492296.464418333
1.00414	32437266.249338448
1.00672	33475199.976120915
1.0093	33921144.750456475
1.01189	35772433.93577175
1.01448	43978189.71028126
1.01708	44435468.23014948
1.01969	53221873.2276608
1.0223	54084895.17935134
1.02492	54126909.21254224
1.02754	52600881.230587885
1.03017	63535760.553995155
1.0328	64175424.064012714
1.03544	64570342.976435095
1.03808	77320782.25881189
1.04073	76174535.947665
1.04339	76149591.46973164
1.04604	71952898.84241797
1.04871	71632771.54908183
1.05138	73269506.84146851
1.05405	79356256.58271818
1.05673	75350157.9898523
1.05941	85269420.1989711
1.0621	82211813.45129319
1.06479	88731607.59293996
1.06749	91739703.20259403
1.07019	101509409.78281139
1.07289	98117591.23214458
1.0756	102398048.34698367
1.07832	104970701.5560429
1.08104	104655164.32435834
1.08376	109592111.6440126
1.08649	99154349.32704115
1.08922	89972883.49042451
1.09195	80381699.14082412
1.09469	77351195.01265581
1.09743	60428195.92725155
1.10018	57310238.25652297
1.10293	47816765.237796076
1.10568	36790634.243397
1.10844	45079622.907165505
1.1112	38027287.52752859
1.11396	32366807.659559634
1.11673	24551983.741495144
1.1195	35818555.642824106
1.12228	29397637.708497807
1.12505	34159406.223692335
1.12783	45537086.14131878
1.13062	39982874.90063396
1.13341	18235259.628785424
1.1362	23629175.43517898
1.13899	26964626.766177107
1.14178	40664696.42639485
1.14458	34677620.086052336
1.14738	36833194.64018599
1.15019	54505538.64894838
1.153	42153368.65805763
1.1558	33374362.312869143
1.15862	49140015.646410085
1.16143	32415363.527421016
1.16425	22963124.995622426
1.16707	26778968.497102696
1.16989	28698632.884628046
1.17271	42210809.37169549
1.17554	33845893.1990056
1.17837	24199758.81255608
1.1812	48787712.72984683
1.18403	52135659.47751386
1.18686	50428326.956651
1.1897	56806332.561550915
1.19253	62655192.26799224
1.19537	69753760.74084716
1.19822	67558562.66364574
1.20106	72623811.89155114
1.2039	77005692.5727015
1.20675	84909492.20087476
1.2096	95470805.73354037
1.21245	100310405.6615903
1.2153	103433011.22584862
1.21815	104182330.3269896
1.221	109808936.57661198
1.22385	117766372.2513499
1.22671	121726649.82860759
1.22957	126825294.28734683
1.23242	131117750.47957043
1.23528	123700892.17354311
1.23814	127085067.62469596
1.241	117793668.06995621
1.24387	96306096.14813143
1.24673	131012484.44732855
1.24959	112170090.64095762
1.25245	71675057.6910356
1.25532	124786496.38548435
1.25818	144593489.10463652
1.26105	156703938.42380056
1.26392	135374657.54828772
1.26678	150872950.16657326
1.26965	137641065.42823663
1.27252	156530818.802498
1.27538	160108722.69756287
1.27825	153009270.3166281
1.28112	156876990.768448
1.28399	128854298.71886899
1.28686	136127050.2098211
1.28973	131114488.98445591
1.2926	137006357.88793
1.29546	119721865.06951572
1.29833	108398574.25264767
1.3012	131795377.65584263
1.30407	135751712.5401615
1.30694	112013493.39637943
1.30981	120746429.80993792
1.31267	124667113.38784704
1.31554	104439630.8583884
1.31841	96520464.7167919
1.32128	108038984.93279132
1.32414	77967921.10606036
1.32701	50609440.91067915
1.32987	42099922.782823674
1.33274	27259218.655721758
1.3356	19795856.829081684
1.33847	6659983.085145539
1.34133	5801903.661709977
1.34419	7116721.921260977
1.34705	5992916.733081006
1.34991	7767749.21849518
1.35277	9216183.891983211
1.35563	3838222.546067346
1.35849	4201595.550310704
1.36135	5624460.832482822
1.3642	7918891.37261535
1.36706	7512840.183025809
1.36991	6724973.041898146
1.37277	7524329.980283658
1.37562	5191890.751040331
1.37847	4018084.462744139
1.38132	6603702.008940569
1.38417	3527930.5572286504
1.38701	1215008.3143932356
1.38986	5078175.403237922
1.39271	6264497.380844082
1.39555	4516658.2572678905
1.39839	7261480.705047121
1.40123	9847173.698067252
1.40407	8830059.38471658
1.40691	6174414.819872223
1.40974	4530546.390102449
1.41258	7316693.178946988
1.41541	7325076.856387423
1.41824	3436182.0208512596
1.42107	2326831.998777195
1.4239	2535456.8342983536
1.42673	7429845.411961296
1.42955	9592153.767827926
1.43237	6300167.945291242
1.43519	9769406.868574884
1.43801	11197569.613439217
1.44083	9226821.45501977
1.44365	10500948.876288721
1.44646	9424026.32634063
1.44927	11784241.904157327
1.45208	16119021.190112822
1.45489	13163902.28002767
1.45769	19770441.106830705
1.4605	17577544.8425117
1.4633	10556942.579726493
1.4661	16123982.606745336
1.4689	15939388.838223647
1.47169	15197460.886820713
1.47449	15754856.726920703
1.47728	16228953.251867488
1.48007	16692761.352320526
1.48286	18437119.117928594
1.48564	16858560.831511464
1.48842	18112811.40453396
1.4912	21869623.146160785
1.49398	17482336.686438687
1.49676	22729098.093382716
1.49953	24292930.428644918
1.5023	32056277.8684898
1.50507	37073928.02000756
1.50784	30409743.59250122
1.51061	33668328.847034335
1.51337	37166876.213175386
1.51613	29250904.0888595
1.51888	25457525.758324225
1.52164	30345364.275106803
1.52439	38508861.77435108
1.52714	31818464.125859924
1.52989	34042526.78185946
1.53263	40852217.42231872
1.53538	47497072.155971155
1.53812	42614909.89713836
1.54086	38658007.38772798
1.54359	33547183.569584742
1.54632	44104197.135682866
1.54905	47369573.91263726
1.55178	47761056.18823617
1.5545	46523903.095613174
1.55723	48871604.29271217
1.55995	54356995.877351865
1.56266	52966034.69189677
1.56538	58544003.095461436
1.56809	67356478.76908492
1.5708	64204273.936942235
1.57351	66568711.75617495
1.57621	65554194.51848912
1.57891	64058564.94052466
1.58161	70009774.43695897
1.5843	69683933.71455824
1.587	71200223.64045966
1.58969	68214603.56749351
1.59238	63204511.57503986
1.59506	70344142.03943978
1.59774	73742841.64059208
1.60042	68547258.69630045
1.6031	65255740.27574089
1.60577	61699097.738659166
1.60844	57372371.00395752
1.61111	63373517.392219454
1.61378	62477850.92972108
1.61644	58451629.4871036
1.6191	54747208.34400747
1.62176	59917622.61180792
1.62441	60213926.05981942
1.62707	62669129.029946856
1.62971	58795589.32051659
1.63236	63418042.02382206
1.635	70925065.50035638
1.63764	74192966.71048671
1.64028	57296321.77539797
1.64292	58531403.891020566
1.64555	53491476.35762302
1.64818	57382871.293811984
1.65081	66717505.11418721
1.65343	64394379.528360866
1.65605	56669568.985848926
1.65867	56099772.34921821
1.66128	68112414.4484882
1.6639	58183614.5977986
1.66651	23305024.78191696
1.66911	14154488.445040463
1.67172	31488355.456556756
1.67432	46096789.17337338
1.67692	54509822.83793364
1.67951	51223423.43153141
1.68211	45953774.40542125
1.6847	35508910.54741612
1.68728	37182323.72894844
1.68987	36210259.9960039
1.69245	31102048.076386835
1.69503	29509498.79517711
1.6976	30646544.38041633
1.70018	32429340.94328066
1.70275	25759400.270953655
1.70531	23398736.543742526
1.70788	30400957.635040876
1.71044	35874506.71292817
1.713	39569206.17031227
1.71556	41871382.50281942
1.71811	43699690.106099926
1.72066	36073005.874842785
1.72321	23147237.67775635
1.72575	28768644.262851972
1.7283	37355063.627064794
1.73084	36799657.15194301
1.73337	27437656.817915585
1.73591	25905550.283407424
1.73844	28831008.210354347
1.74097	26070352.776555736
1.74349	24547921.197020624
1.74602	27816569.11670007
1.74854	34419063.36480859
1.75105	34143140.0791895
1.75357	25735168.909009553
1.75608	18857359.12334591
1.75859	18380042.48083432
1.7611	18164770.60540506
1.7636	20252470.955356784
1.7661	18913428.426019426
1.7686	16891549.768701307
1.7711	19285337.20393809
1.77359	15761811.239445519
1.77608	11089343.96212469
1.77857	15092608.782543566
1.78105	17871813.06862935
1.78354	13607879.96059456
1.78602	12173495.655556774
1.78849	14466558.016123513
1.79097	12774455.594286453
1.79344	11854266.076528464
1.79591	13954641.82666653
1.79837	18031995.043874305
1.80084	13054651.968194213
1.8033	12263125.448835509
1.80576	12439015.278218612
1.80821	12286180.959129173
1.81067	12275368.551571116
1.81312	13567372.745068057
1.81557	14779418.730246631
1.81801	10128091.90382123
1.82046	8896200.497271003
1.8229	11136853.02513111
1.82533	10045902.598300917
1.82777	9529978.679990875
1.8302	10547995.97066169
1.83263	9959623.78593927
1.83506	9408132.478976222
1.83749	10222267.518556217
1.83991	11010677.178527711
1.84233	12221496.633851819
1.84475	13584911.901050786
1.84716	11593401.27688892
1.84957	11562368.3206967
1.85198	11895710.946638651
1.85439	9842962.368050616
1.8568	7358897.300848845
1.8592	5473032.817399625
1.8616	6311600.42767017
1.864	6878763.867010784
1.86639	6115016.9733480085
1.86878	5942395.773326647
1.87118	8738732.068675995
1.87356	9539778.741632
1.87595	9276712.339253094
1.87833	12887358.240240736
1.88071	16187995.26611346
1.88309	14041080.396207929
1.88547	13067027.296130197
1.88784	15516094.927751195
1.89021	16781615.533701923
1.89258	18409525.660585668
1.89494	20349708.047350038
1.89731	17965036.53933451
1.89967	14031882.240954664
1.90203	13789839.272554995
1.90439	14434004.154644735
1.90674	18070641.24220809
1.90909	19390468.617855802
1.91144	13146429.087609412
1.91379	12444534.451379912
1.91613	17528333.083205666
1.91848	18990029.838440005
1.92082	15476588.901855297
1.92315	13423632.435286636
1.92549	14568983.599221017
1.92782	15137808.413283143
1.93015	12438231.206685401
1.93248	10250704.577755403
1.93481	8949865.04925273
1.93713	6596358.257971301
1.93945	5956057.57546213
1.94177	9947062.475607997
1.94409	12806582.256715905
1.94641	12648485.649112195
1.94872	13485312.737667229
1.95103	16769046.181162428
1.95334	16074810.910003193
1.95564	11760014.535002649
1.95795	10397882.061601955
1.96025	8908350.957985776
1.96255	8524360.34316658
1.96484	11894620.203977052
1.96714	14018227.150571242
1.96943	12897646.901313318
1.97172	13993661.147437721
1.97401	14787993.517791638
1.97629	14445033.97101818
1.97858	15359535.49371008
1.98086	13895118.450591799
1.98314	11129593.35787926
1.98541	12433465.27865341
1.98769	16479747.228565462
1.98996	16319208.53435877
1.99223	14778950.574596401
1.9945	16352819.461142942
1.99677	16856276.50582243
1.99903	15611279.118347734
2.00129	15031352.510758756
2.00355	16143527.627565444
2.00581	18248333.073659647
2.00806	18214828.91561717
2.01031	18812966.55955149
2.01256	23604891.419443656
2.01481	25550197.940806624
2.01706	21722536.00052944
2.0193	21144841.022031106
2.02154	24673706.1965237
2.02378	24912688.308583487
2.02602	21255868.16560598
2.02825	20241670.162644964
2.03049	22468847.77826135
2.03272	26189248.171150133
2.03494	27075410.283843778
2.03717	25910986.8992884
2.03939	26193803.866770606
2.04162	28579660.436503258
2.04384	31273576.668169465
2.04605	31267819.227744564
2.04827	29051942.300569892
2.05048	29260501.599243592
2.05269	29099258.49770404
2.0549	26303417.838501673
2.05711	28165588.069282293
2.05931	30423564.66284735
2.06151	29950662.50242957
2.06371	29742756.300795972
2.06591	29212846.445145383
2.06811	30572822.81487315
2.0703	32975534.102181803
2.07249	34313511.339507066
2.07468	33908296.251354225
2.07686	32527491.604135156
2.07905	33025174.910484567
2.08123	34944569.234428
2.08341	35775611.27683184
2.08559	34904477.21405051
2.08776	34994564.48181542
2.08994	36088587.50599253
2.09211	36306030.90315943
2.09428	37093707.47587891
2.09645	38179049.518028915
2.09861	37201908.47381293
2.10077	35147153.65297369
2.10293	34559425.667406075
2.10509	35545527.073576756
2.10725	35755007.23125645
2.1094	33248295.842914347
2.11155	29571809.998644702
2.1137	28917229.023464236
2.11585	29837082.680168647
2.11799	30881218.32250647
2.12013	32874970.839516122
2.12227	33867519.07679058
2.12441	34168337.17130223
2.12655	33910274.82877997
2.12868	32532917.586979486
2.13081	32121542.580906276
2.13294	32338164.73121275
2.13507	30469849.40025746
2.13719	28825832.494155932
2.13931	29863245.001320247
2.14143	30956940.941524528
2.14355	30334787.507308822
2.14567	28996726.10834272
2.14778	26467759.649690244
2.14989	24478515.695359252
2.152	24567895.402920377
2.1541	24632844.618056584
2.15621	24364791.59903637
2.15831	23792847.931937136
2.16041	22434801.70070935
2.16251	22200052.095021233
2.1646	22485875.25425685
2.1667	22336935.89054971
2.16879	23117015.166109905
2.17087	24184989.721398123
2.17296	23748219.789840918
2.17504	23041849.487618573
2.17713	22976489.637547567
2.1792	21884351.192111325
2.18128	18801835.590573426
2.18336	15306581.352164075
2.18543	14113986.644262878
2.1875	14257503.229321007
2.18957	13826604.093836354
2.19163	13922033.161161235
2.1937	14798656.145880505
2.19576	13771507.959102022
2.19782	10395604.170830911
2.19987	6980486.093149468
2.20193	5341559.514549031
2.20398	4964170.977814493
2.20603	4725445.979361542
2.20808	4807829.18076975
2.21012	5119893.152843647
2.21217	5497751.358098377
2.21421	6501589.17279722
2.21625	7555494.536051043
2.21828	7865450.832315616
2.22032	8175212.575807642
2.22235	8472422.05303109
2.22438	8142357.344892725
2.22641	7183326.1758715855
2.22843	6890863.536145887
2.23046	6707350.47897675
2.23248	5787253.491536613
2.2345	4946598.252952956
2.23651	4439597.287603653
2.23853	4266084.000924072
2.24054	4721537.370321176
2.24255	5637027.435546069
2.24456	6529318.905164375
2.24657	6950033.056279021
2.24857	6819631.952441581
2.25057	6350458.549180431
2.25257	5843186.061193641
2.25457	5226102.031299394
2.25656	4604667.8852990335
2.25856	4171941.9393760064
2.26055	3963195.6285453998
2.26254	3465951.5628371686
2.26453	3057149.567232143
2.26651	3101728.4180682483
2.2685	3307889.0008594347
2.27048	3443643.587935477
2.27246	3621015.3410714115
2.27443	3638786.6643608166
2.27641	3728497.258149357
2.27838	3983321.6578679043
2.28036	3881717.117872445
2.28233	3481487.1537239696
2.28429	3139099.1870203577
2.28626	2902056.1265754304
2.28823	2734634.660271621
2.29019	2572722.211853924
2.29215	2398535.2952234047
2.29411	2328275.1145642553
2.29607	2399984.6856237752
2.29802	2726961.1745985034
2.29998	3306613.473418378
2.30193	4042740.5550233503
2.30388	4653999.1664690105
2.30583	5009183.063818259
2.30778	5437009.069638759
2.30972	5891723.238511456
2.31167	6036336.449158973
2.31361	5248216.857939187
2.31555	3952730.4549979777
2.31749	2871828.0644660974
2.31943	2582162.813450241
2.32137	2385806.7447686424
2.32331	2031473.2958437002
2.32524	1704815.717016428
2.32718	1439694.5951075237
2.32911	1310324.9562342789
2.33104	1386261.9147946562
2.33297	1604019.987127095
2.3349	1952764.6413244735
2.33683	2490321.870302805
2.33876	2905781.7673424683
2.34068	3121311.0785874333
2.34261	3279667.9732940453
2.34453	3526476.434994181
2.34646	3767655.137094861
2.34838	3823236.0771864606
2.3503	3594734.549533526
2.35223	3463506.1505004507
2.35415	3324481.279844786
2.35607	2982069.9890984986
2.35799	3001822.787972734
2.35991	3544893.4844512506
2.36183	4193384.11689318
2.36375	4593570.661439519
2.36566	4756363.132781115
2.36758	4561975.367839992
2.3695	4222654.70346499
2.37142	3996931.807158048
2.37334	3746611.342693452
2.37526	3204425.2540614665
2.37718	2628158.375180995
2.3791	2355159.888073423
2.38101	2262041.1433061706
2.38293	2248771.213844158
2.38485	2504228.5249026758
2.38677	3192601.978560083
2.3887	3803433.210303341
2.39062	3796735.5049489066
2.39254	3621421.3866726244
2.39446	3858910.157336433
2.39639	4217571.179955215
2.39831	4241715.07080886
2.40024	4235885.594880897
2.40216	4463938.100862135
2.40409	5022258.583043188
2.40602	5217904.6966760475
2.40795	5058765.123882615
2.40989	5237148.0311179655
2.41182	5767107.657451748
2.41376	5955255.486312508
2.4157	6115780.644004009
2.41764	6133842.680784116
2.41958	5958171.839323189
2.42152	5638898.78217459
2.42347	5571884.171363523
2.42542	5658269.13446762
