#wavelength	surface flux
0.8	182749.2102206554
0.8002000000000001	186343.08152877114
0.8004000500000003	189860.67465731472
0.8006001500125003	193183.83770775102
0.8008003000500035	196823.89691375528
0.8010005001250161	200128.77093458956
0.8012007502500472	204362.75599899027
0.8014010504376099	207671.47288347126
0.8016014007002193	210871.14495755706
0.8018018010503944	215130.1696107197
0.8020022515006572	217993.937816149
0.8022027520635323	222259.39009446392
0.8024033027515483	226369.73225727788
0.8026039035772362	229487.1131949782
0.8028045545531306	234407.92176843173
0.8030052556917691	237424.0782622375
0.803206007005692	242012.09049937275
0.8034068085074435	245362.0914729524
0.8036076602095705	250568.91284903322
0.8038085621246229	255005.0110739533
0.8040095142651542	259581.15566125594
0.8042105166437206	262229.6455327388
0.8044115692728815	266912.5444568146
0.8046126721651998	270760.1585009513
0.8048138253332411	276361.3075708551
0.8050150287895745	281736.9026099416
0.805216282546772	285726.47328952677
0.8054175866174087	288501.06675643905
0.8056189410140631	294304.9129520888
0.8058203457493168	298228.24275936367
0.8060218008357541	304311.25905067695
0.8062233062859632	305431.27166085085
0.8064248621125346	312600.64368598926
0.806626468328063	318390.94304410904
0.8068281249451449	322456.868946695
0.8070298319763813	326349.59028244915
0.8072315894343755	330259.78700046125
0.8074333973317341	337193.73244552367
0.8076352556810671	342972.7210279102
0.8078371644949874	347456.7259618185
0.8080391237861113	354965.40652402135
0.8082411335670578	356722.9537965739
0.8084431938504498	361656.8247802578
0.8086453046489125	367324.4416680408
0.8088474659750746	370919.26189767575
0.8090496778415686	376364.2902037605
0.809251940261029	374727.5110318867
0.8094542532460944	389486.54735574685
0.8096566168094059	394438.8126542412
0.8098590309636085	399468.6602067169
0.8100614957213493	395009.5814871973
0.8102640110952797	406466.4542025501
0.8104665770980536	410175.179402514
0.8106691937423283	419114.8126839991
0.8108718610407639	420282.52320534334
0.8110745790060241	424202.92893100885
0.8112773476507757	435082.2329570422
0.8114801669876885	437233.13755334046
0.8116830370294355	440006.77366266644
0.8118859577886929	462545.0847109622
0.8120889292781401	458962.30750742054
0.8122919515104597	457044.54736622225
0.8124950244983374	456237.2968259536
0.8126981482544621	478904.89510820195
0.8129013227915257	487513.3852502274
0.8131045481222237	492474.973643612
0.8133078242592543	489030.4710501579
0.8135111512153191	496193.2462793891
0.813714529003123	496838.5963622468
0.8139179576353739	513782.34777043544
0.8141214371247829	519517.5930453206
0.8143249674840641	509771.3774565651
0.814528548725935	536865.3611361355
0.8147321808631167	549180.3571254519
0.8149358639083326	546042.3630380881
0.8151395978743097	530342.0869232687
0.8153433827737784	571123.0309223894
0.8155472186194719	564158.756627995
0.8157511054241268	573089.2615560109
0.815955043200483	590808.2523212996
0.8161590319612831	602900.2697924656
0.8163630717192736	576677.2878296451
0.8165671624872033	608035.2951371064
0.8167713042778252	619695.7522212937
0.8169754971038948	637124.5808752957
0.8171797409781707	608340.4924697276
0.8173840359134155	655955.2601026571
0.8175883819223938	664152.7283891749
0.8177927790178745	667748.7562803419
0.8179972272126291	656621.3867121761
0.8182017265194322	661676.2423907367
0.8184062769510622	640725.8006592857
0.8186108785203001	697607.6750276065
0.8188155312399301	694513.456318367
0.8190202351227402	707477.2305963757
0.819224990181521	688939.2559814873
0.8194297964290664	622574.0074870315
0.8196346538781738	680394.0453432316
0.8198395625416434	742337.8668952335
0.8200445224322789	746128.4097361871
0.820249533562887	767529.4860145248
0.8204545959462778	781585.7792674507
0.8206597095952644	791056.6393593715
0.8208648745226633	800652.6545814723
0.8210700907412941	808999.9167775552
0.8212753582639793	819755.4415137914
0.8214806771035456	831522.9158493816
0.8216860472728215	840875.7874762784
0.8218914687846397	846753.946319107
0.822096941651836	858600.4584079554
0.822302465887249	869320.8001481696
0.8225080415037209	880704.7478574007
0.8227136685140968	860358.6737096944
0.8229193469312254	816576.3546709446
0.8231250767679583	812857.3286661553
0.8233308580371503	875866.4993298578
0.8235366907516598	894198.1386748428
0.8237425749243477	923014.3372228448
0.8239485105680789	928929.8675079909
0.824154497695721	949729.6387582159
0.824360536320145	947395.3499553383
0.8245666264542252	930839.1866238795
0.8247727681108388	998935.9291563185
0.8249789613028664	1006403.3488509606
0.8251852060431922	1019565.718002242
0.825391502344703	1037193.8040002636
0.8255978502202894	1047230.4220631908
0.8258042496828445	1045971.644446279
0.8260107007452654	1068988.6484145783
0.8262172034204517	1048742.9773562008
0.8264237577213068	1076480.5058120915
0.8266303636607373	1093287.4090487862
0.8268370212516525	1117483.7774082953
0.8270437305069654	1127810.0364528338
0.8272504914395923	1135445.166534515
0.8274573040624523	1129124.0248456087
0.8276641683884679	1144711.3555497755
0.8278710844305652	1155833.134275535
0.8280780522016729	1184668.82942205
0.8282850717147234	1185397.0646569668
0.8284921429826521	1205206.173038982
0.8286992660183978	1222284.44571857
0.8289064408349024	1213781.8805307704
0.8291136674451112	1213072.4985537746
0.8293209458619727	1248026.9357784935
0.8295282760984382	1235553.7157798077
0.829735658167463	1202117.9495460615
0.8299430920820048	1282359.747821989
0.8301505778550254	1303176.9529169803
0.8303581154994891	1311777.2645886035
0.8305657050283641	1331286.5521687777
0.8307733464546212	1298754.5430559444
0.8309810397912352	1360398.503883691
0.8311887850511829	1382500.2063263066
0.8313965822474458	1354526.8876004985
0.8316044313930077	1400106.617947409
0.8318123325008561	1408639.2051578343
0.8320202855839813	1407404.532865676
0.8322282906553774	1434676.5506760182
0.8324363477280413	1424599.6114091168
0.8326444568149735	1485750.1099997733
0.8328526179291771	1502679.2276838268
0.8330608310836596	1488535.5691708135
0.8332690962914304	1471687.0799857657
0.8334774135655034	1499926.6793819082
0.833685782918895	1518400.2801381922
0.8338942043646247	1565798.6124074708
0.834102677915716	1523218.0057709555
0.834311203585195	1583570.929334216
0.8345197813860912	1608145.7584445353
0.8347284113314379	1636497.566199759
0.8349370934342709	1648489.1357577164
0.8351458277076294	1590364.5319483362
0.8353546141645565	1662651.3658781988
0.8355634528180977	1618871.270055474
0.8357723436813022	1644719.2038234842
0.8359812867672226	1611825.007518937
0.8361902820889144	1732777.3602866535
0.8363993296594368	1616928.4939461313
0.8366084294918518	1740656.1148106237
0.8368175815992247	1743095.691952756
0.8370267859946247	1733201.438400335
0.8372360426911234	1803639.5048728033
0.8374453517017962	1828080.3228995567
0.8376547130397217	1777511.5690978267
0.8378641267179816	1769012.2807272223
0.8380735927496613	1865041.942473954
0.8382831111478488	1897382.7283759585
0.8384926819256358	1914286.3259613372
0.8387023050961173	1891267.0620462596
0.8389119806723914	1897024.4150561022
0.8391217086675596	1978572.5341608194
0.8393314890947265	2008269.5053120004
0.8395413219670003	2003029.0108149813
0.8397512072974922	2017102.9936540646
0.8399611450993165	1989015.9440642889
0.8401711353855914	2025013.1651010797
0.8403811781694378	2069274.9939642004
0.8405912734639802	2039591.6990696727
0.8408014212823464	2041170.1674908772
0.8410116216376671	2104606.182527443
0.8412218745430766	2149280.5950183165
0.8414321800117124	2177780.706281121
0.8416425380567154	2149765.972587077
0.8418529486912297	2187550.1398099884
0.8420634119284025	2112581.2476524357
0.8422739277813847	2219035.343074107
0.8424844962633302	2244485.4760870202
0.842695117387396	2296640.4830690636
0.8429057911667428	2304042.959913028
0.8431165176145345	2272063.0020433622
0.8433272967439382	2331367.600043753
0.8435381285681244	2331710.6915929867
0.8437490131002665	2346415.909672724
0.8439599503535415	2409916.1174884075
0.84417094034113	2381130.6952975406
0.8443819830762154	2359192.711617582
0.8445930785719846	2447542.3290780396
0.8448042268416277	2474057.2401937763
0.8450154278983382	2481452.5918676555
0.8452266817553128	2496432.251075171
0.8454379884257517	2511333.6878062286
0.8456493479228583	2456950.9710621396
0.845860760259839	2581623.7714893697
0.846072225449904	2630948.2610641527
0.8462837435062666	2626618.918521869
0.8464953144421433	2560991.1631937223
0.8467069382707537	2619979.9286820525
0.8469186150053215	2692758.085149259
0.847130344659073	2671068.1033374406
0.8473421272452377	2712697.326134358
0.8475539627770492	2719617.2150964546
0.8477658512677435	2741405.8195562297
0.8479777927305605	2787905.359694895
0.8481897871787432	2805732.1247016974
0.848401834625538	2831905.5221859226
0.8486139350841944	2837998.6721400046
0.8488260885679657	2827814.457676503
0.8490382950901076	2842754.46055234
0.8492505546638802	2897184.083595064
0.8494628673025462	2863857.839334642
0.8496752330193721	2933705.8664860786
0.8498876518276269	2903849.4115719385
0.8501001237405839	2871921.383094653
0.8503126487715191	2887841.6383663365
0.850525226933712	2879371.335375335
0.8507378582404455	2835289.031628186
0.8509505427050057	2738813.17249679
0.8511632803406821	2633627.3323546303
0.8513760711607672	2361606.6835825946
0.8515889151785576	1938955.177489185
0.8518018124073523	1182621.4582012645
0.8520147628604541	303967.5859951717
0.8522277665511693	356426.8135642627
0.8524408234928071	1274159.3546818262
0.8526539336986805	2043002.2049290265
0.8528670971821053	2513822.442518343
0.8530803139564007	2803101.4398804726
0.8532935840348901	2972955.5300791143
0.8535069074308987	3141680.446228294
0.8537202841577566	3233041.940284785
0.8539337142287962	3287968.9363102885
0.8541471976573534	3339378.8438961837
0.8543607344567677	3425557.0080676917
0.8545743246403821	3482194.076450585
0.8547879682215422	3498880.1345436024
0.8550016652135977	3547180.3588924436
0.8552154156299011	3567506.441258765
0.8554292194838088	3601841.261240616
0.8556430767886797	3617127.744208578
0.855856987557877	3690251.3284856584
0.8560709518047664	3732967.5549573964
0.8562849695427177	3767727.879247583
0.8564990407851035	3762794.3558543907
0.8567131655452999	3818002.8124842984
0.8569273438366862	3869615.742492181
0.8571415756726455	3891281.6838038075
0.8573558610665638	3906449.69340267
0.8575702000318304	3892398.9645729684
0.8577845925818384	3956214.4043067787
0.857999038729984	4018514.7384697627
0.8582135384896665	4038451.019324361
0.858428091874289	4047185.1048225355
0.8586426988972576	4088946.884047209
0.8588573595719821	4107549.565575412
0.8590720739118751	4134216.3875114587
0.8592868419303532	4169625.7499748217
0.8595016636408359	4210460.964115421
0.8597165390567462	4244883.327537807
0.8599314681915105	4245519.099464546
0.8601464510585584	4264680.293854964
0.860361487671323	4308343.086289482
0.8605765780432408	4333229.417456515
0.8607917221877518	4348909.61266027
0.8610069201182988	4348403.211830749
0.8612221718483286	4079447.924242116
0.8614374773912907	3338720.1747527807
0.8616528367606385	3632610.8575882823
0.8618682499698288	3336251.0092317453
0.8620837170323213	3306597.6293707625
0.8622992379615795	3579949.33276644
0.8625148127710699	3555754.234824014
0.8627304414742627	3320783.7693486735
0.8629461240846313	4006465.9772445303
0.8631618606156526	3433324.3612844874
0.8633776510808066	3371206.5108124367
0.8635934954935769	3473796.308661408
0.8638093938674504	3607990.2762590037
0.8640253462159173	3723141.5536238803
0.8642413525524714	3597049.93581171
0.8644574128906095	3889900.1740177562
0.8646735272438323	3934541.492081869
0.8648896956256433	3521055.81881151
0.8651059180495498	4075498.743687277
0.8653221945290621	3840755.603069236
0.8655385250776946	4539125.85126285
0.8657549097089641	4156686.390967561
0.8659713484363913	4157511.954891912
0.8661878412735006	4283708.050177922
0.866404388233819	4342854.305006095
0.8666209893308775	4115550.447081169
0.8668376445782103	4818397.881091052
0.8670543539893549	4375031.244504479
0.8672711175778525	4360516.184560714
0.8674879353572469	4368874.563485548
0.8677048073410862	4641663.898964031
0.8679217335429217	4782890.455942224
0.8681387139763074	4675698.263946885
0.8683557486548015	4325556.087410531
0.8685728375919655	4227646.287281574
0.8687899808013633	4821742.391857235
0.8690071782965637	4999131.208507542
0.869224430091138	5166785.703909401
0.8694417361986609	4987032.932815795
0.8696590966327107	4315109.897055385
0.869876511406869	4553799.787412555
0.8700939805347206	4875260.562206992
0.8703115040298544	4986366.805648201
0.870529081905862	4676049.420834957
0.8707467141763385	4966313.3996257875
0.8709644008548827	4598995.88940479
0.8711821419550964	4549760.871552569
0.8713999374905854	4612848.60371524
0.871617787474958	5147078.613166463
0.8718356919218269	5037162.643748606
0.8720536508448075	4638710.107753072
0.8722716642575187	4855568.819621068
0.8724897321735832	4705523.330339422
0.8727078546066265	5277813.024427601
0.8729260315702784	4850584.211282137
0.873144263078171	5153346.426541997
0.8733625491439405	5312753.881287684
0.8735808897812266	4651897.60414831
0.8737992850036719	5073080.28975941
0.874017734824923	5172909.167984691
0.8742362392586293	5510855.448059376
0.874454798318444	5526910.762195749
0.8746734120180236	5552651.534090017
0.8748920803710283	5714757.159803592
0.875110803391121	5355801.184622087
0.8753295810919689	5154722.479831796
0.875548413487242	5824398.783218312
0.8757673005906139	5725351.040479384
0.8759862424157616	5942511.263591638
0.8762052389763657	5964411.457985499
0.8764242902861098	5659067.2356939325
0.8766433963586814	6019572.151458179
0.8768625572077712	5395198.054060801
0.8770817728470732	5151980.971344618
0.8773010432902849	6036576.37327759
0.8775203685511077	5833557.093023586
0.8777397486432454	6638290.650601949
0.8779591835804065	6405617.851783423
0.8781786733763015	5697427.969322506
0.8783982180446457	6016880.371712937
0.878617817599157	6256574.028583592
0.8788374720535569	5543019.258765801
0.8790571814215703	5939690.621477482
0.8792769457169257	6165528.6013111
0.879496764953355	6102339.2965515535
0.8797166391445934	6974224.554840144
0.8799365683043796	6870484.874801407
0.8801565524464557	6150591.724842665
0.8803765915845676	5858326.841793793
0.8805966857324639	6301235.269066263
0.880816834903897	5757651.102769456
0.881037039112623	6374897.454401632
0.8812572983724012	6337921.554900247
0.8814776126969944	6223349.831677629
0.8816979821001687	6533802.329084561
0.8819184065956938	7049640.584820908
0.8821388861973429	6657371.561146571
0.8823594209188923	5977661.344326524
0.882580010774122	6008875.536939835
0.8828006557768155	6112475.289764258
0.8830213559407598	5865954.042898641
0.8832421112797452	6895779.8973496575
0.8834629218075651	6006543.77850813
0.8836837875380171	5924354.960549056
0.8839047084849018	6572614.411209327
0.884125684662023	7163109.977390291
0.8843467160831886	7276885.3120010905
0.8845678027622095	7190590.455244188
0.8847889447129001	5773746.637546523
0.8850101419490785	6392558.836006074
0.8852313944845657	6700448.899410398
0.885452702333187	7817692.095189783
0.8856740655087704	7393590.5477378275
0.8858954840251476	6336605.737346051
0.8861169578961539	6378478.149057552
0.886338487135628	7720311.285112811
0.886560071757412	7636843.559558764
0.8867817117753515	7325495.493150955
0.8870034072032955	6789233.532915707
0.8872251580550963	5649917.951329579
0.8874469643446101	6085488.672723319
0.8876688260856963	6446764.518494177
0.8878907432922178	7444488.545509697
0.8881127159780409	7767994.039616528
0.8883347441570356	7451989.673841241
0.8885568278430749	5853507.082544714
0.8887789670500358	7311930.787511296
0.8890011617917983	7674803.729745664
0.8892234120822464	8340809.691896431
0.8894457179352669	8076803.54863872
0.8896680793647509	6959254.46112286
0.8898904963845921	6169223.260621594
0.8901129690086883	7395334.063306188
0.8903354972509405	8312367.489630705
0.8905580811252535	8254490.819398406
0.8907807206455347	7800450.407473207
0.8910034158256963	7301385.475991394
0.8912261666796527	6317101.020804437
0.8914489732213227	7566383.5426983815
0.8916718354646282	8006728.284100285
0.8918947534234944	7156435.711183027
0.8921177271118502	6587584.504021734
0.8923407565436284	7326966.297368756
0.8925638417327644	5904007.744470968
0.8927869826931977	6939384.7169902
0.8930101794388711	6760019.6567909485
0.8932334319837308	6556733.565224188
0.8934567403417267	6465282.536749552
0.8936801045268123	5040577.258626451
0.8939035245529441	3776128.778040958
0.8941270004340824	1776240.0956692072
0.894350532184191	372762.80447691726
0.8945741198172371	1895236.7464282268
0.8947977633471915	3907252.6015237775
0.8950214627880284	5482759.570698149
0.8952452181537254	6304494.699841254
0.8954690294582639	5734690.429872001
0.8956928967156286	6635640.440453004
0.8959168199398075	7968883.181288411
0.8961407991447926	8659701.806435596
0.8963648343445789	8491781.432751866
0.896588925553165	7179513.639011118
0.8968130727845534	7016056.063888042
0.8970372760527496	7808935.264125677
0.8972615353717629	8357732.774336126
0.8974858507556059	8050432.566722067
0.8977102222182949	8928647.812759997
0.8979346497738496	9894267.94713458
0.8981591334362931	9050059.712452194
0.8983836732196523	7627013.426579895
0.8986082691379572	9210069.710592669
0.8988329212052417	9368340.379555786
0.8990576294355432	8585147.702092983
0.8992823938429022	8846622.19172063
0.8995072144413631	9585615.540428277
0.8997320912449734	9392371.555657877
0.8999570242677847	9379246.555245701
0.9001820135238516	8304288.20916053
0.9004070590272328	10070855.123816656
0.9006321607919896	10585624.680011164
0.9008573188321878	10580337.75083405
0.9010825331618959	9921150.89774459
0.9013078037951865	9765324.355306009
0.9015331307461353	10145275.727702681
0.9017585140288219	9953610.848715344
0.9019839536573292	10946573.692624597
0.9022094496457435	12049762.09638023
0.9024350020081551	11345434.849378211
0.9026606107586572	11642802.335910128
0.902886275911347	9781622.38628512
0.9031119974803249	10177974.947677394
0.9033377754796951	10915896.718728585
0.903563609923565	11854537.659986604
0.903789500826046	12852030.680502089
0.9040154482012526	13077828.29652829
0.904241452063303	11945718.955801254
0.9044675124263188	11020414.135323612
0.9046936293044254	11709142.890017891
0.9049198027117517	11602870.250464678
0.9051460326624297	12656576.65419895
0.9053723191705955	13213907.343980474
0.9055986622503881	12463183.900917476
0.9058250619159507	12980689.150402766
0.9060515181814298	11695350.307810098
0.9062780310609752	12232787.931496916
0.9065046005687405	12340299.753670037
0.906731226718883	12493868.639287746
0.9069579095255627	13413895.333154004
0.907184649002944	12334066.682426086
0.907411445165195	12496420.839903312
0.9076382980264862	12442517.271241194
0.907865207600993	12973318.294308854
0.9080921739028933	12570629.051244369
0.9083191969463691	11451112.96470203
0.9085462767456058	13578305.852611372
0.9087734133147922	13945870.400278071
0.9090006066681211	12721691.830645923
0.909227856819788	13402457.415492501
0.9094551637839932	13105214.61001776
0.9096825275749393	13747634.63161905
0.9099099482068329	13188330.979481405
0.9101374256938848	13200607.349898638
0.9103649600503083	13264143.419368131
0.9105925512903209	14976744.089134509
0.9108201994281437	11597345.001887444
0.9110479044780008	12029537.532792086
0.9112756664541204	14206480.917667856
0.911503485370734	14000578.754859854
0.9117313612420768	14725665.138652002
0.9119592940823873	13203414.314821612
0.912187283905908	14481560.303915873
0.9124153307268845	15208836.977892565
0.9126434345595664	15358758.342183273
0.9128715954182063	13712257.30147375
0.9130998133170609	11687379.154270748
0.9133280882703902	12746851.480171692
0.913556420292458	14912943.75258754
0.9137848093975312	13702980.762765054
0.9140132555998806	13604651.758553553
0.9142417589137806	15392763.421673419
0.9144703193535092	13721730.421025483
0.9146989369333476	15304700.187529342
