#wavelength	surface flux
0.8	1442142.9736461833
0.8002000000000001	1461530.824207249
0.8004000500000003	1487183.1699547449
0.8006001500125003	1513055.2743254309
0.8008003000500035	1537515.1446956762
0.8010005001250161	1561891.031722623
0.8012007502500472	1589764.8701373893
0.8014010504376099	1608780.1139789424
0.8016014007002193	1633094.3941229733
0.8018018010503944	1660658.751234743
0.8020022515006572	1683893.3271380195
0.8022027520635323	1709553.4185797635
0.8024033027515483	1738062.106950353
0.8026039035772362	1760750.167522313
0.8028045545531306	1781275.176908115
0.8030052556917691	1809148.830603673
0.803206007005692	1835956.1423834555
0.8034068085074435	1862948.585764209
0.8036076602095705	1896372.1556833673
0.8038085621246229	1924738.2170871948
0.8040095142651542	1950696.7628824632
0.8042105166437206	1968549.440617744
0.8044115692728815	2002657.3940105545
0.8046126721651998	2028981.2307103407
0.8048138253332411	2061193.0056731098
0.8050150287895745	2092913.5126396602
0.805216282546772	2118385.86993438
0.8054175866174087	2138566.478535811
0.8056189410140631	2170693.210075165
0.8058203457493168	2199664.49073372
0.8060218008357541	2237600.5540536838
0.8062233062859632	2248197.2908172766
0.8064248621125346	2281407.8535795733
0.806626468328063	2327034.3974299864
0.8068281249451449	2355000.3306394387
0.8070298319763813	2379213.2291067094
0.8072315894343755	2397826.983370701
0.8074333973317341	2443478.756707245
0.8076352556810671	2480946.9722583466
0.8078371644949874	2504735.996388059
0.8080391237861113	2552023.132124255
0.8082411335670578	2572251.1099345465
0.8084431938504498	2593123.8127153213
0.8086453046489125	2629897.413341216
0.8088474659750746	2658243.336403899
0.8090496778415686	2682309.9036331573
0.809251940261029	2693308.2019415176
0.8094542532460944	2762276.694624889
0.8096566168094059	2805890.3993415856
0.8098590309636085	2836800.65173029
0.8100614957213493	2815061.967401992
0.8102640110952797	2879678.0718045407
0.8104665770980536	2908619.1917393277
0.8106691937423283	2956939.327959995
0.8108718610407639	2971492.3273482304
0.8110745790060241	3007189.285226627
0.8112773476507757	3068918.490280498
0.8114801669876885	3068431.02025766
0.8116830370294355	3100274.489816351
0.8118859577886929	3198824.365805707
0.8120889292781401	3205251.5626892042
0.8122919515104597	3211298.6657138593
0.8124950244983374	3200384.5117919603
0.8126981482544621	3322133.4542462835
0.8129013227915257	3380524.970453664
0.8131045481222237	3411148.5756837255
0.8133078242592543	3407558.5970768556
0.8135111512153191	3448445.7468524743
0.813714529003123	3480713.356333735
0.8139179576353739	3552727.6425584317
0.8141214371247829	3574425.626443732
0.8143249674840641	3557105.809912516
0.814528548725935	3661521.70549338
0.8147321808631167	3736260.2350996654
0.8149358639083326	3721947.6491459166
0.8151395978743097	3697342.388474851
0.8153433827737784	3859342.3019243698
0.8155472186194719	3858873.883582889
0.8157511054241268	3905617.6371880644
0.815955043200483	3984692.9283518973
0.8161590319612831	4032427.952783994
0.8163630717192736	3939190.671489654
0.8165671624872033	4093479.8323155236
0.8167713042778252	4146425.6459070807
0.8169754971038948	4216359.0448688585
0.8171797409781707	4142239.6924048313
0.8173840359134155	4310167.287591849
0.8175883819223938	4310832.398460087
0.8177927790178745	4352831.870028562
0.8179972272126291	4273028.972087435
0.8182017265194322	3780047.8793008556
0.8184062769510622	3501817.7112570032
0.8186108785203001	4362378.925375648
0.8188155312399301	4433473.605309429
0.8190202351227402	4414150.661618214
0.819224990181521	4012150.147195919
0.8194297964290664	2724795.311643325
0.8196346538781738	3519802.3531081122
0.8198395625416434	4465073.706423122
0.8200445224322789	4708668.487416697
0.820249533562887	4870657.31230709
0.8204545959462778	4939528.114225008
0.8206597095952644	5008677.404757757
0.8208648745226633	5101354.392570859
0.8210700907412941	5154593.24988016
0.8212753582639793	5221011.815537484
0.8214806771035456	5276475.588950667
0.8216860472728215	5332884.417904444
0.8218914687846397	5373823.452877887
0.822096941651836	5434952.124255356
0.822302465887249	5513858.043567715
0.8225080415037209	5573746.188242257
0.8227136685140968	5505834.324831564
0.8229193469312254	5373247.502671406
0.8231250767679583	5437693.8934427
0.8233308580371503	5685613.380272136
0.8235366907516598	5693836.115083836
0.8237425749243477	5833139.792242185
0.8239485105680789	5890203.097510748
0.824154497695721	5970823.326431439
0.824360536320145	5977620.287579644
0.8245666264542252	5918420.454001835
0.8247727681108388	6173364.714897616
0.8249789613028664	6242356.993926546
0.8251852060431922	6308241.028941282
0.825391502344703	6401963.899971573
0.8255978502202894	6454259.565423534
0.8258042496828445	6482070.461687147
0.8260107007452654	6561530.786371119
0.8262172034204517	6498944.200032856
0.8264237577213068	6628613.854600521
0.8266303636607373	6734742.204372658
0.8268370212516525	6817419.937133515
0.8270437305069654	6877081.40827214
0.8272504914395923	6922431.037608844
0.8274573040624523	6923894.472560218
0.8276641683884679	7039902.733482009
0.8278710844305652	7078669.197316088
0.8280780522016729	7196824.190671729
0.8282850717147234	7196242.375110462
0.8284921429826521	7322960.546468138
0.8286992660183978	7380322.701510202
0.8289064408349024	7370269.254021809
0.8291136674451112	7368449.243731599
0.8293209458619727	7493828.089912576
0.8295282760984382	7474513.676304743
0.829735658167463	7384917.469905341
0.8299430920820048	7699064.90546199
0.8301505778550254	7821336.351533779
0.8303581154994891	7863332.427195652
0.8305657050283641	7968055.99719573
0.8307733464546212	7893115.571791493
0.8309810397912352	8097600.325744826
0.8311887850511829	8200287.3073313935
0.8313965822474458	8146638.4893928105
0.8316044313930077	8323389.754165198
0.8318123325008561	8396743.751934685
0.8320202855839813	8413551.191948235
0.8322282906553774	8524070.614142314
0.8324363477280413	8548887.180014813
0.8326444568149735	8719106.942036571
0.8328526179291771	8808858.690810518
0.8330608310836596	8787760.669983197
0.8332690962914304	8781092.69282687
0.8334774135655034	8910200.859229725
0.833685782918895	8958175.3510897
0.8338942043646247	9147058.92157057
0.834102677915716	9097007.680667412
0.834311203585195	9273768.078781646
0.8345197813860912	9374036.699045852
0.8347284113314379	9483488.514608053
0.8349370934342709	9574366.099890467
0.8351458277076294	9357560.216284474
0.8353546141645565	9648398.29355351
0.8355634528180977	9546099.412463892
0.8357723436813022	9618642.8277997
0.8359812867672226	9543713.986781847
0.8361902820889144	9980358.222551398
0.8363993296594368	9617641.374441989
0.8366084294918518	10094450.074063726
0.8368175815992247	10105869.639065154
0.8370267859946247	10108790.55603517
0.8372360426911234	10405097.3074576
0.8374453517017962	10508791.489364833
0.8376547130397217	10346970.781635612
0.8378641267179816	10355227.552878784
0.8380735927496613	10719693.060424374
0.8382831111478488	10838886.67757195
0.8384926819256358	10930452.963276885
0.8387023050961173	10879371.744929539
0.8389119806723914	10877982.566185124
0.8391217086675596	11205028.0417615
0.8393314890947265	11337219.071434269
0.8395413219670003	11368780.779582681
0.8397512072974922	11463189.45276899
0.8399611450993165	11417726.520472428
0.8401711353855914	11533441.539237393
0.8403811781694378	11713570.620380694
0.8405912734639802	11639080.093750976
0.8408014212823464	11692700.18514222
0.8410116216376671	11932536.076402372
0.8412218745430766	12092983.581931058
0.8414321800117124	12226849.600818207
0.8416425380567154	12203354.41793975
0.8418529486912297	12297220.158959324
0.8420634119284025	12042107.596256912
0.8422739277813847	12390146.11425981
0.8424844962633302	12525206.940746628
0.842695117387396	12792876.313499369
0.8429057911667428	12861602.420670783
0.8431165176145345	12739554.316487933
0.8433272967439382	12989557.974856393
0.8435381285681244	12792357.418114165
0.8437490131002665	12776631.484653525
0.8439599503535415	13111806.970740302
0.84417094034113	13116919.570036007
0.8443819830762154	13033801.921899175
0.8445930785719846	13102654.757988378
0.8448042268416277	13270586.919569734
0.8450154278983382	13414186.606065003
0.8452266817553128	13465000.561215725
0.8454379884257517	13354713.865226354
0.8456493479228583	13116757.86201734
0.845860760259839	13632930.21239629
0.846072225449904	13854488.786933864
0.8462837435062666	13939634.833148848
0.8464953144421433	13656366.145939235
0.8467069382707537	13837732.398068495
0.8469186150053215	14136371.322230827
0.847130344659073	14089101.059924949
0.8473421272452377	14264793.962590523
0.8475539627770492	14261936.22007109
0.8477658512677435	14429364.397829548
0.8479777927305605	14619934.981006036
0.8481897871787432	14675838.222593848
0.848401834625538	14793008.391511684
0.8486139350841944	14882875.916223511
0.8488260885679657	14888624.84132278
0.8490382950901076	14919935.581798298
0.8492505546638802	15121823.446641743
0.8494628673025462	14992065.161624637
0.8496752330193721	15270040.087677473
0.8498876518276269	15176370.444534192
0.8501001237405839	14897850.874394083
0.8503126487715191	14964029.261014272
0.850525226933712	14909789.169647008
0.8507378582404455	14539646.519390479
0.8509505427050057	13928653.843360726
0.8511632803406821	13290729.620597044
0.8513760711607672	11802298.143318422
0.8515889151785576	9468251.264625773
0.8518018124073523	5631384.599226195
0.8520147628604541	1417486.5798661432
0.8522277665511693	1664579.7212121799
0.8524408234928071	6042367.281701246
0.8526539336986805	9930085.871658646
0.8528670971821053	12428383.337820414
0.8530803139564007	14011982.124062043
0.8532935840348901	14995237.402836699
0.8535069074308987	15897950.391472442
0.8537202841577566	16436253.116884679
0.8539337142287962	16809798.807374243
0.8541471976573534	17010595.060880743
0.8543607344567677	16993925.21861365
0.8545743246403821	17559184.127073556
0.8547879682215422	17678452.666418295
0.8550016652135977	17956983.001164384
0.8552154156299011	18056110.97431461
0.8554292194838088	18205884.915880814
0.8556430767886797	18293825.549097076
0.855856987557877	18654998.138344523
0.8560709518047664	18824867.61198306
0.8562849695427177	19051142.167289563
0.8564990407851035	19129120.065665003
0.8567131655452999	19369541.540424205
0.8569273438366862	19568886.814472556
0.8571415756726455	19623349.900840633
0.8573558610665638	19125175.479292743
0.8575702000318304	19231789.08090271
0.8577845925818384	19712906.60967511
0.857999038729984	20092369.088593487
0.8582135384896665	20280716.376924638
0.858428091874289	20251873.254237995
0.8586426988972576	20453643.929354813
0.8588573595719821	20250899.45883934
0.8590720739118751	20323626.798245847
0.8592868419303532	20586380.552238923
0.8595016636408359	20692441.47122283
0.8597165390567462	20860133.23162873
0.8599314681915105	20829130.12495881
0.8601464510585584	20711216.887721095
0.860361487671323	21184417.664825443
0.8605765780432408	21220246.377889886
0.8607917221877518	21283977.589294568
0.8610069201182988	20719819.392104995
0.8612221718483286	18312656.48267142
0.8614374773912907	11109712.691039741
0.8616528367606385	13641961.529783133
0.8618682499698288	10677318.504513828
0.8620837170323213	10616307.715515386
0.8622992379615795	12641752.43686545
0.8625148127710699	12750926.609995857
0.8627304414742627	10260013.638025433
0.8629461240846313	16184575.19045915
0.8631618606156526	10984167.293571232
0.8633776510808066	9980725.53967888
0.8635934954935769	10742461.27476222
0.8638093938674504	11690994.17392404
0.8640253462159173	12821902.223095942
0.8642413525524714	11592739.32675248
0.8644574128906095	13869573.279185755
0.8646735272438323	14381390.248195916
0.8648896956256433	10570280.500886852
0.8651059180495498	14950611.198913382
0.8653221945290621	13248643.05805825
0.8655385250776946	18828005.99797018
0.8657549097089641	15406603.997687085
0.8659713484363913	15181326.716859672
0.8661878412735006	16026402.275742797
0.866404388233819	16412293.861669634
0.8666209893308775	14242260.272631565
0.8668376445782103	20406962.0794608
0.8670543539893549	16631791.086713783
0.8672711175778525	15733901.929129783
0.8674879353572469	15981322.616358327
0.8677048073410862	17797725.919927716
0.8679217335429217	18994474.994297322
0.8681387139763074	18080662.785235748
0.8683557486548015	14613694.620370418
0.8685728375919655	13738562.280876247
0.8687899808013633	18452873.74359362
0.8690071782965637	20003501.22373452
0.869224430091138	21097640.518906944
0.8694417361986609	19097654.390608225
0.8696590966327107	14056434.530220138
0.869876511406869	15423073.898451803
0.8700939805347206	17738864.187186413
0.8703115040298544	18390232.805599105
0.870529081905862	15775319.53207311
0.8707467141763385	18460176.785662442
0.8709644008548827	15336885.42774363
0.8711821419550964	14094757.328515816
0.8713999374905854	14384200.68809812
0.871617787474958	18056089.755561877
0.8718356919218269	17398558.297386035
0.8720536508448075	13959502.430037307
0.8722716642575187	16481868.600423612
0.8724897321735832	14855567.203645527
0.8727078546066265	18997353.346322026
0.8729260315702784	15432792.303270545
0.873144263078171	17725082.64016684
0.8733625491439405	18648057.608441286
0.8735808897812266	13425238.926323863
0.8737992850036719	16635699.723409398
0.874017734824923	17662274.393185496
0.8742362392586293	19125633.037430696
0.874454798318444	19606999.406872753
0.8746734120180236	19929253.93310119
0.8748920803710283	20902473.40519076
0.875110803391121	17858241.60677589
0.8753295810919689	16900901.082083777
0.875548413487242	21944557.634952225
0.8757673005906139	20925415.78438431
0.8759862424157616	22039698.878825486
0.8762052389763657	22368397.088184547
0.8764242902861098	19975071.01467754
0.8766433963586814	21504090.940904465
0.8768625572077712	17397313.8237731
0.8770817728470732	15638354.659950167
0.8773010432902849	22213247.42089402
0.8775203685511077	20629300.55072513
0.8777397486432454	26127221.95967796
0.8779591835804065	24705564.792979192
0.8781786733763015	19232471.157207184
0.8783982180446457	21058863.441532362
0.878617817599157	22931229.44285038
0.8788374720535569	17888211.359180942
0.8790571814215703	20182440.954958994
0.8792769457169257	21039227.520415
0.879496764953355	21324572.304822266
0.8797166391445934	28039922.86371481
0.8799365683043796	27131468.32709875
0.8801565524464557	21863061.930462755
0.8803765915845676	18766173.27930501
0.8805966857324639	22007675.48836416
0.880816834903897	19314906.63867978
0.881037039112623	23923509.30191753
0.8812572983724012	23401679.88763056
0.8814776126969944	22233943.88224852
0.8816979821001687	25154603.7715679
0.8819184065956938	30175307.57075827
0.8821388861973429	27132442.81885034
0.8823594209188923	22295557.876501005
0.882580010774122	22396377.176437724
0.8828006557768155	23338595.418489683
0.8830213559407598	20965077.286803417
0.8832421112797452	30547789.403645445
0.8834629218075651	23067130.00631568
0.8836837875380171	22244401.506117526
0.8839047084849018	27471985.746866886
0.884125684662023	31837046.62536065
0.8843467160831886	31841733.08151097
0.8845678027622095	29782597.383112483
0.8847889447129001	18769709.10548032
0.8850101419490785	22536649.651675195
0.8852313944845657	25197313.854605626
0.885452702333187	34716068.480361514
0.8856740655087704	29919766.980578955
0.8858954840251476	22011069.200006332
0.8861169578961539	23002443.62244211
0.886338487135628	33829367.270777665
0.886560071757412	32271031.622803308
0.8867817117753515	31851567.578216773
0.8870034072032955	27724695.912095115
0.8872251580550963	19676931.446102593
0.8874469643446101	23003318.734069142
0.8876688260856963	24764615.820094876
0.8878907432922178	32916879.224808585
0.8881127159780409	35638685.2925015
0.8883347441570356	31929311.17671267
0.8885568278430749	19445269.341172174
0.8887789670500358	28907821.906397264
0.8890011617917983	32268882.587103747
0.8892234120822464	36471455.68505093
0.8894457179352669	33663315.35074324
0.8896680793647509	24574929.862061903
0.8898904963845921	20259925.553423032
0.8901129690086883	29455348.70986099
0.8903354972509405	37357640.158273764
0.8905580811252535	36245371.512714736
0.8907807206455347	32638665.94814542
0.8910034158256963	29625391.146747597
0.8912261666796527	23159597.090701748
0.8914489732213227	32293569.293806016
0.8916718354646282	37267001.8386857
0.8918947534234944	29296359.33760304
0.8921177271118502	25438438.377041806
0.8923407565436284	31643877.199786954
0.8925638417327644	21813791.992141977
0.8927869826931977	29465133.50987
0.8930101794388711	28842235.033236414
0.8932334319837308	29202429.942853604
0.8934567403417267	30910363.7602719
0.8936801045268123	24401798.223450433
0.8939035245529441	15276202.260244766
0.8941270004340824	6904806.143824006
0.894350532184191	1633164.8184394957
0.8945741198172371	8210172.818867212
0.8947977633471915	16865767.34250985
0.8950214627880284	25499479.567422252
0.8952452181537254	27128900.18399905
0.8954690294582639	20959536.344994567
0.8956928967156286	30811698.847800046
0.8959168199398075	36941681.856689125
0.8961407991447926	39746954.0864159
0.8963648343445789	39337744.35203591
0.896588925553165	31319755.52357429
0.8968130727845534	26062282.061343327
0.8970372760527496	28713970.67257951
0.8972615353717629	35803265.018076934
0.8974858507556059	34074067.69819069
0.8977102222182949	37451491.168087
0.8979346497738496	42216365.861270435
0.8981591334362931	36683810.20196367
0.8983836732196523	28554679.10690142
0.8986082691379572	38140269.247187994
0.8988329212052417	43418367.116387725
0.8990576294355432	40014273.118839085
0.8992823938429022	41957335.059780285
0.8995072144413631	43808382.251412846
0.8997320912449734	35709671.92090348
0.8999570242677847	35110740.389813766
0.9001820135238516	30710611.306455135
0.9004070590272328	41656073.471612
0.9006321607919896	45931809.72211164
0.9008573188321878	47120190.65214969
0.9010825331618959	43822787.014853105
0.9013078037951865	36704940.33061508
0.9015331307461353	38679135.67280012
0.9017585140288219	38530835.99641417
0.9019839536573292	48116828.37601018
0.9022094496457435	49108953.63462439
0.9024350020081551	47271443.88820669
0.9026606107586572	47827427.84450163
0.902886275911347	33189197.26003272
0.9031119974803249	34666685.28356047
0.9033377754796951	41323751.81653019
0.903563609923565	46977314.93756572
0.903789500826046	55457946.205211885
0.9040154482012526	56255875.80080082
0.904241452063303	47023545.68597392
0.9044675124263188	40545260.022237614
0.9046936293044254	44208722.07305117
0.9049198027117517	45204546.60742493
0.9051460326624297	52198531.89227579
0.9053723191705955	53689972.84494029
0.9055986622503881	47224286.76051384
0.9058250619159507	49773918.55485339
0.9060515181814298	40821471.850720555
0.9062780310609752	46003029.49533069
0.9065046005687405	48195127.245807335
0.906731226718883	47774372.27443216
0.9069579095255627	54346807.21963382
0.907184649002944	48067254.07201289
0.907411445165195	51033371.20817975
0.9076382980264862	47581164.366979
0.907865207600993	48442713.271332264
0.9080921739028933	50697797.30285637
0.9083191969463691	43730963.88954725
0.9085462767456058	51015279.4836527
0.9087734133147922	56222640.80679495
0.9090006066681211	51945719.394459195
0.909227856819788	51724548.3999123
0.9094551637839932	51225940.22072738
0.9096825275749393	55209329.418025866
0.9099099482068329	51192757.44300168
0.9101374256938848	52952407.33378692
0.9103649600503083	52427480.855736256
0.9105925512903209	64025854.27579658
0.9108201994281437	50590500.574471936
0.9110479044780008	48370117.68772754
0.9112756664541204	56035702.23641561
0.911503485370734	55859198.90734764
0.9117313612420768	62018819.97294457
0.9119592940823873	50178497.132753275
0.912187283905908	61506185.36936097
0.9124153307268845	61446880.65227726
0.9126434345595664	62630344.22039689
0.9128715954182063	54489615.10888252
0.9130998133170609	52694139.47987286
0.9133280882703902	53857450.5974183
0.913556420292458	62618596.3016665
0.9137848093975312	59214571.008896925
0.9140132555998806	54638409.52865707
0.9142417589137806	60025792.880182624
