#wavelength	surface flux
0.676892	86787.29932325626
0.678297	92203.79710172492
0.679702	97396.23071815589
0.681109	102393.2279755426
0.682517	106972.00895499866
0.683926	111468.74930279887
0.685337	115632.61180579763
0.686749	119204.30334592839
0.688164	122264.69608822282
0.689581	124555.14079575178
0.691	124892.0469280327
0.692422	124611.13464828333
0.693847	125586.93401557575
0.695274	127536.46959163864
0.696705	128017.0382560949
0.698139	128633.10533327315
0.699576	127293.85705752394
0.701017	125435.26469899462
0.702461	122703.92737318487
0.70391	120950.00721242616
0.705362	117417.81052756438
0.706819	113868.45580040856
0.70828	110405.6705779188
0.709745	105392.26778042757
0.711216	100350.36735330241
0.71269	95772.43816646919
0.71417	90782.62923285877
0.715655	81918.72824335251
0.717145	74194.577893425
0.71864	67193.27889511581
0.72014	63726.27676536081
0.721647	60152.92946274488
0.723158	58504.54179543505
0.724676	52657.79660687047
0.726199	47095.35557047764
0.727728	40014.29851542387
0.729264	39424.02159448701
0.730805	34866.506311041674
0.732353	33458.80519468707
0.733907	30026.617896774194
0.735468	25106.285943765957
0.737035	24130.131573713406
0.738609	21498.433655112323
0.74019	19103.018854323385
0.741777	16825.25740336282
0.743372	14906.87488370885
0.744973	13015.177119622022
0.746582	11271.844363867027
0.748197	9683.159137963854
0.74982	8464.589274874583
0.751451	7297.821418313561
0.753088	6293.282044226551
0.754734	5423.314015982718
0.756386	4650.77294944893
0.758047	3953.8190234413382
0.759715	3296.198147537502
0.76139	2638.867651509656
0.763074	1928.3717933857354
0.764765	1037.122265335348
0.766464	302.247128426322
0.768172	679.8237980318829
0.769887	465.25449971888344
0.77161	1561.7372981809892
0.773341	2840.6689803660443
0.775081	3964.8462854423096
0.776829	5131.738093937825
0.778585	5940.479174216855
0.780349	6047.572115313378
0.782121	9509.972126041766
0.783902	11822.038650625065
0.785691	14414.233533158322
0.787489	17655.8718608805
0.789295	21446.166571592796
0.79111	25678.529302640334
0.792933	27659.929152719047
0.794764	19876.76524638629
0.796604	39197.50147018183
0.798453	51203.2999628629
0.80031	61416.74918261924
0.802176	72220.96314440727
0.804051	85245.52674037441
0.805934	98266.64696224395
0.807826	113357.19680673588
0.809727	129149.83056654148
0.811636	144585.01223087782
0.813554	158212.48839120983
0.81548	183132.81287985865
0.817416	212807.72991840134
0.81936	227215.33058445205
0.821313	272217.61377019115
0.823274	304320.3368897063
0.825244	330183.90617061546
0.827223	383463.9431536768
0.829211	409644.90713176783
0.831208	440793.03507390025
0.833213	516398.83248154516
0.835227	557289.175349729
0.837249	561188.7625689055
0.83928	657013.4761412175
0.841321	737252.1228437604
0.843369	798609.9056639198
0.845427	856736.6800416261
0.847493	970322.9683567362
0.849567	957980.1879935887
0.851651	696724.699570624
0.853742	1087960.4005526844
0.855843	1304869.3979124269
0.857952	1416486.3896603733
0.86007	1519201.6192835278
0.862196	1397350.3102185447
0.864331	1506586.0658807438
0.866474	1673499.2706781316
0.868626	1789655.2236468138
0.870786	1824893.2869831966
0.872955	1956142.2115936843
0.875132	1947471.7998558246
0.877317	2321798.3996498175
0.879511	2431652.585286795
0.881713	2115786.3426427767
0.883923	2027050.567539758
0.886142	2234727.466725419
0.888369	2042809.7885456223
0.890604	2288428.527868177
0.892847	1853409.9555068763
0.895099	1578714.8406943898
0.897358	2610793.2059956547
0.899626	3033508.0048463126
0.901901	3492584.3417138094
0.904185	4285589.878670228
0.906476	4502117.673788656
0.908776	3800034.939702986
0.911083	4488069.738805862
0.913398	4321535.609198147
0.915721	5070749.329941943
0.918051	5025568.473718962
0.92039	5585484.24639263
0.922736	5324355.054083507
0.925089	4582435.628188899
0.927451	3232229.652004002
0.929819	1998983.4822155284
0.932195	1469478.5335924742
0.934579	1412694.0123401657
0.93697	4057732.526231304
0.939369	4875472.33565601
0.941774	4145096.9197442215
0.944187	3579015.502093598
0.946607	4772125.792538901
0.949035	5447692.610961937
0.951469	2962787.1926058154
0.953911	3910448.926378087
0.956359	3357706.452293777
0.958814	4720569.68019025
0.961277	2988126.949435345
0.963746	3449686.38834242
0.966222	4829585.430675194
0.968705	5499277.209768832
0.971194	6103410.566464489
0.97369	5442944.919188978
0.976193	7269509.917615529
0.978702	6687108.226827187
0.981217	6781966.655042644
0.983739	5221941.0564094
0.986268	7103827.163867621
0.988802	7788306.429892608
0.991343	7147535.461503614
0.99389	8954963.451202724
0.996444	9637506.448145334
0.999003	6420533.609504297
1.00157	7858437.592163962
1.00414	9127268.779431682
1.00672	10346281.92286573
1.0093	10147101.932899801
1.01189	11132033.876055997
1.01448	12763311.499197565
1.01708	13601481.210748272
1.01969	15310210.929863771
1.0223	15529431.18328907
1.02492	15726465.900129512
1.02754	16657442.243994258
1.03017	18889039.719200898
1.0328	18304907.828411207
1.03544	19447343.095322628
1.03808	22790136.626742627
1.04073	21611230.315708585
1.04339	22600868.030124787
1.04604	21952407.849703513
1.04871	22956269.12743877
1.05138	23816059.650207233
1.05405	26059112.219853144
1.05673	25022640.78626348
1.05941	27846373.500386808
1.0621	26943859.81653822
1.06479	28069981.112846006
1.06749	28677483.77246195
1.07019	30941314.333186056
1.07289	30062501.27536447
1.0756	30114293.2511768
1.07832	28625319.034030914
1.08104	30076386.606408663
1.08376	29280633.671733756
1.08649	26616737.315803222
1.08922	20400682.636639062
1.09195	16308751.328621797
1.09469	13643245.995067013
1.09743	11021989.405404476
1.10018	9520089.137963608
1.10293	7156984.3705853615
1.10568	5170810.275803817
1.10844	6256684.18857826
1.1112	4445757.314415375
1.11396	3686835.7918165377
1.11673	2476396.229813361
1.1195	3652748.3753089835
1.12228	2570288.6280377237
1.12505	3576425.9782308196
1.12783	4865256.942566222
1.13062	4930739.0333049325
1.13341	1475402.9199862669
1.1362	2011077.1443567406
1.13899	3679824.9763257233
1.14178	5745780.996399144
1.14458	3961916.1114980634
1.14738	3737394.2104327725
1.15019	6353176.55745222
1.153	4405620.460662951
1.1558	3014378.9512473857
1.15862	5108072.528191967
1.16143	2623569.102171712
1.16425	1655724.9252213128
1.16707	3384588.2439095504
1.16989	3875258.319008878
1.17271	5833276.874278088
1.17554	5955728.913263985
1.17837	3874025.2193389623
1.1812	9486237.551333886
1.18403	10895834.635966897
1.18686	9020510.64782969
1.1897	10988840.69171023
1.19253	12352527.710818533
1.19537	14908656.545913111
1.19822	13425952.165726304
1.20106	14352511.120386554
1.2039	16891487.90494098
1.20675	20360620.67904865
1.2096	23230270.470577043
1.21245	23361559.7422997
1.2153	24337089.150414404
1.21815	24115779.975684512
1.221	25633128.073461678
1.22385	28096764.56720323
1.22671	29261892.397508692
1.22957	33009574.483610537
1.23242	33252575.192119535
1.23528	31782593.57686429
1.23814	33961407.7353738
1.241	35557210.24099355
1.24387	31222081.827169172
1.24673	38345955.29875643
1.24959	34947275.23000604
1.25245	25724364.66188962
1.25532	40007771.1120193
1.25818	42646407.8334203
1.26105	44318393.04823475
1.26392	34244606.078954525
1.26678	38834105.42218206
1.26965	32717352.329233192
1.27252	40247539.39602687
1.27538	42341797.87599634
1.27825	38399321.2347666
1.28112	38789564.119751215
1.28399	29270507.100847337
1.28686	29702643.753409393
1.28973	28547143.906878494
1.2926	29243487.18301418
1.29546	24051487.311204385
1.29833	21437740.635011036
1.3012	28407646.826505955
1.30407	29028203.874871794
1.30694	22857501.418135904
1.30981	23744590.868792582
1.31267	24907108.684008826
1.31554	18721035.507713664
1.31841	17370612.58608784
1.32128	21619412.07225071
1.32414	14003752.522597808
1.32701	8042154.46172812
1.32987	4992857.769715357
1.33274	4302578.462475982
1.3356	3206605.1495606597
1.33847	761172.9477437334
1.34133	651121.2459427896
1.34419	797113.308721365
1.34705	578401.8101273789
1.34991	880509.7709122227
1.35277	911180.5307777184
1.35563	343931.9503202928
1.35849	313807.2174368595
1.36135	427785.95611026953
1.3642	761920.6009359222
1.36706	605197.1486850232
1.36991	497916.67965623346
1.37277	612891.8187731518
1.37562	398364.06679259846
1.37847	311405.6832639019
1.38132	683722.3921201162
1.38417	263987.03590164206
1.38701	65842.23558466199
1.38986	436237.89591562585
1.39271	691147.2466130586
1.39555	329873.85765397846
1.39839	505294.492510411
1.40123	768522.7600953132
1.40407	648672.8334806481
1.40691	471083.6035037095
1.40974	344354.166828673
1.41258	733466.56384809
1.41541	808811.0432223083
1.41824	345086.75704379514
1.42107	156740.48208689038
1.4239	193382.8350953866
1.42673	849855.9107108804
1.42955	1220816.8150408713
1.43237	715519.3164153597
1.43519	1315643.9929794038
1.43801	1435984.0703730704
1.44083	1110608.1081496563
1.44365	1221439.7732873417
1.44646	1064187.0942619247
1.44927	1559558.4028457524
1.45208	2742624.563292703
1.45489	2175723.268769243
1.45769	3310214.5909153004
1.4605	2735959.6556520485
1.4633	1757687.2369348223
1.4661	2899297.6722147968
1.4689	2655464.0905352286
1.47169	2295463.0726024327
1.47449	2344866.411665785
1.47728	2545285.859250955
1.48007	2452081.7803644426
1.48286	2602803.8465946936
1.48564	2610636.4697884447
1.48842	3121139.7198993927
1.4912	3774409.851484217
1.49398	2460690.222780376
1.49676	3453387.057279346
1.49953	4063611.511801555
1.5023	6141040.145114109
1.50507	7069639.957508312
1.50784	5806273.692215961
1.51061	6684384.361219157
1.51337	7134962.15846962
1.51613	4964425.04110847
1.51888	4086965.3610935602
1.52164	5727505.180377454
1.52439	7433414.054511164
1.52714	5847780.41379748
1.52989	6495876.537273046
1.53263	8362448.790916441
1.53538	10265207.229456224
1.53812	8558174.114857692
1.54086	6491400.533077055
1.54359	6395717.640651487
1.54632	9460115.876463264
1.54905	10144860.546081567
1.55178	9406705.497455409
1.5545	9244689.300974026
1.55723	11653456.699583808
1.55995	12980952.113089953
1.56266	11085628.50777162
1.56538	15358029.643464895
1.56809	18740376.310002934
1.5708	16504092.262247846
1.57351	16403597.83258429
1.57621	15997492.267562406
1.57891	15535437.368255615
1.58161	18677609.554639846
1.5843	17563596.553392466
1.587	17309192.672634576
1.58969	16348982.309005776
1.59238	14377213.277395645
1.59506	17116426.299716175
1.59774	18280648.339376222
1.60042	15347841.404954612
1.6031	13053078.25485095
1.60577	12058467.032355746
1.60844	10063471.797448464
1.61111	10241087.197426207
1.61378	9323525.432139104
1.61644	9215259.500311242
1.6191	8116741.264640385
1.62176	9398161.439325891
1.62441	10146363.603639828
1.62707	11107766.918378845
1.62971	11196704.064717416
1.63236	10565744.59329424
1.635	14070828.943548054
1.63764	15462003.80152052
1.64028	11140287.187092401
1.64292	10069224.98982002
1.64555	7553640.717140984
1.64818	6615059.836751936
1.65081	11339541.061630014
1.65343	12805054.994678766
1.65605	8203574.213933701
1.65867	7378337.850938057
1.66128	11834618.217239987
1.6639	9004551.08297042
1.66651	2199508.7329055555
1.66911	617087.1211066237
1.67172	2542744.093631192
1.67432	5026163.612633965
1.67692	7507107.051290562
1.67951	6209243.60129794
1.68211	4629461.865987798
1.6847	2920333.7714185896
1.68728	2547619.2725621955
1.68987	2589227.2066863454
1.69245	2162592.8508039755
1.69503	1807465.4581226867
1.6976	1907465.0631227721
1.70018	2123935.0858031
1.70275	1359696.3043051865
1.70531	1473769.8273823885
1.70788	2473258.7940773754
1.71044	4064817.2484260825
1.713	6141591.769874293
1.71556	6686240.996601221
1.71811	6488487.91204109
1.72066	4549679.946411868
1.72321	2568427.240030359
1.72575	4056107.781979126
1.7283	5524467.162319013
1.73084	5705819.707464351
1.73337	3488697.102109719
1.73591	2722940.3305610996
1.73844	3584032.721128638
1.74097	3349991.3479913627
1.74349	3524502.399743059
1.74602	4695930.638475813
1.74854	5857440.186840379
1.75105	6079257.632898562
1.75357	4554515.470576498
1.75608	2560653.2210768536
1.75859	1976957.2546727506
1.7611	1822199.397840514
1.7636	2396180.1058952403
1.7661	2632745.698374215
1.7686	2380758.800550812
1.7711	3003368.901756475
1.77359	2233317.6188012785
1.77608	1451146.749962339
1.77857	2613813.485120498
1.78105	3553061.566823793
1.78354	2452938.8171963017
1.78602	1920283.7898398938
1.78849	2237959.122020264
1.79097	1953113.855853278
1.79344	1744225.6435429906
1.79591	2104856.6530777295
1.79837	3132681.640417596
1.80084	2220115.346353251
1.8033	1871566.2061280266
1.80576	1885975.0744229616
1.80821	2003404.0078341388
1.81067	2038147.0911041324
1.81312	2468873.4753809627
1.81557	2549553.199303756
1.81801	1386486.5797840115
1.82046	1223657.0573312722
1.8229	1833127.678747271
1.82533	1566838.812828108
1.82777	1340442.956209612
1.8302	1544772.9582376818
1.83263	1435241.1714583877
1.83506	1159944.9731696553
1.83749	1180716.0160562918
1.83991	1469252.8293928946
1.84233	1910470.4313398395
1.84475	2437993.683406297
1.84716	1893730.7447838113
1.84957	1783441.155978426
1.85198	2070584.5480047464
1.85439	1727058.5393121524
1.8568	1106260.556756003
1.8592	704501.0808190815
1.8616	910719.476686148
1.864	1024658.8120401718
1.86639	756667.2433170449
1.86878	645716.3808494112
1.87118	1113495.8811198077
1.87356	1242693.9236973273
1.87595	1347893.589510902
1.87833	2574048.958365474
1.88071	3315359.491864492
1.88309	2615395.2114019687
1.88547	2344775.048311419
1.88784	2872033.201012045
1.89021	3108045.1283541
1.89258	3596048.6494206996
1.89494	4592259.80108993
1.89731	4016697.257820595
1.89967	2547767.4908110946
1.90203	2425317.1860041367
1.90439	2501270.666967637
1.90674	3116022.1149338847
1.90909	3066403.0462005916
1.91144	1549692.3361545708
1.91379	1476262.794009767
1.91613	2689389.619894433
1.91848	3148785.135014087
1.92082	2251932.695197078
1.92315	1852979.1763745977
1.92549	2116234.74338747
1.92782	2119300.916545191
1.93015	1561017.628621839
1.93248	975291.1592391445
1.93481	783943.8918927223
1.93713	720714.1635522314
1.93945	813168.4644436635
1.94177	1612364.80020568
1.94409	2078515.0172853777
1.94641	2042017.7036855333
1.94872	2090665.484015921
1.95103	2519567.402759489
1.95334	2491961.86380681
1.95564	1877491.9072724306
1.95795	1735174.0551338594
1.96025	1406000.9701308839
1.96255	1265535.6043579667
1.96484	2041704.5707913735
1.96714	2668832.110702697
1.96943	2539561.669819108
1.97172	2755412.585921577
1.97401	2772368.3716255464
1.97629	2567917.588063503
1.97858	2698251.146341031
1.98086	2327849.237254945
1.98314	1749773.1955306965
1.98541	2237655.028832318
1.98769	3398963.396687616
1.98996	3442054.9096510545
1.99223	3055105.3436286245
1.9945	3591914.856053492
1.99677	3969628.157122391
1.99903	3797697.523840137
2.00129	3670365.289158101
2.00355	3689143.6251255223
2.00581	3967908.450236812
2.00806	4250851.259351531
2.01031	4643770.211449784
2.01256	5763591.960781185
2.01481	6241440.686421874
2.01706	5391398.21084266
2.0193	5157349.4586804
2.02154	5869853.772866063
2.02378	6146923.329903641
2.02602	5510898.691259959
2.02825	5103205.197404738
2.03049	5500809.268606876
2.03272	6443988.904934381
2.03494	6866230.3691483075
2.03717	6455997.080449199
2.03939	6229051.175706531
2.04162	7479020.320785583
2.04384	8874515.647591166
2.04605	9020581.52629913
2.04827	8239861.279576035
2.05048	8123947.29379721
2.05269	8109738.780142013
2.0549	7261607.322587143
2.05711	7661952.01350274
2.05931	8216861.4320042245
2.06151	8288520.444967139
2.06371	8353852.631263735
2.06591	7993383.604748471
2.06811	8246507.105177342
2.0703	9209157.288890397
2.07249	10072383.374743186
2.07468	10292730.32523175
2.07686	9906455.129669257
2.07905	9692848.922758935
2.08123	9737675.685411347
2.08341	9732817.938507166
2.08559	9574822.942829119
2.08776	9805278.070143918
2.08994	10180838.541338636
2.09211	10087940.834100902
2.09428	10282449.473538866
2.09645	10664207.995440593
2.09861	10196431.238052389
2.10077	9353930.582641464
2.10293	9112546.881427657
2.10509	9412757.877970489
2.10725	9451868.848750364
2.1094	8484521.859459441
2.11155	7106846.6818874255
2.1137	6866314.245553461
2.11585	7234495.611921927
2.11799	7750825.320202091
2.12013	8482885.465412753
2.12227	8640880.67394871
2.12441	8611779.144178879
2.12655	8493982.884632971
2.12868	8066291.335528326
2.13081	7847256.185637534
2.13294	7589458.555000468
2.13507	6721602.315343768
2.13719	6113653.096180592
2.13931	6630982.830423714
2.14143	7110173.2634397885
2.14355	6606016.649213578
2.14567	5820474.858810212
2.14778	4929363.766289258
2.14989	4373795.700813009
2.152	4570871.893197668
2.1541	4729493.127069597
2.15621	4589951.948992031
2.15831	4170215.936104565
2.16041	3298977.059417486
2.16251	2847088.209197251
2.1646	3034809.7166701034
2.1667	3218160.294622689
2.16879	3537056.623376246
2.17087	4052908.9088446964
2.17296	4157402.3411002527
2.17504	4090743.5048174146
2.17713	4200455.663451165
2.1792	4007405.5508241453
2.18128	3338516.7087342497
2.18336	2524054.903163572
2.18543	2155069.1792379334
2.1875	2091689.6651560762
2.18957	1914539.628773375
2.19163	1831412.2722066517
2.1937	1958157.5459596145
2.19576	1766961.4044350456
2.19782	1143786.2723889085
2.19987	578965.5206649179
2.20193	380652.8832963119
2.20398	399651.35492563626
2.20603	413924.6135967885
2.20808	432147.08397249505
2.21012	463857.9909181904
2.21217	506781.6297569628
2.21421	637415.3467454273
2.21625	756318.9694573398
2.21828	761057.0399703536
2.22032	775780.4375538256
2.22235	828743.5033812685
2.22438	841736.3648790214
2.22641	774492.8501867496
2.22843	766465.0947303973
2.23046	705035.9447929731
2.23248	491836.5104138472
2.2345	307940.3033142651
2.23651	236892.04420761197
2.23853	251651.4402430587
2.24054	343678.2121860458
2.24255	459692.597940328
2.24456	548555.430563411
2.24657	585365.1151048163
2.24857	562870.4183229597
2.25057	474186.543940405
2.25257	339455.71717611555
2.25457	233929.27792645065
2.25656	206334.6465525714
2.25856	220549.10746344225
2.26055	224102.7972014973
2.26254	199203.0362727719
2.26453	192010.99685273066
2.26651	226310.4153452172
2.2685	250529.86321481667
2.27048	249660.7709807359
2.27246	264333.20480096276
2.27443	264386.410685294
2.27641	267799.1858471371
2.27838	303188.40478875686
2.28036	318340.1710956242
2.28233	290708.5147742066
2.28429	248845.14635409275
2.28626	208346.3980786368
2.28823	167443.98435855794
2.29019	128850.53091064875
2.29215	102165.63507107757
2.29411	105826.56139455803
2.29607	134393.3467698131
2.29802	178810.5703778997
2.29998	245338.46665244456
2.30193	341675.62215669855
2.30388	425341.1974439759
2.30583	462032.66625934857
2.30778	502016.9882158991
2.30972	591494.3565867681
2.31167	695178.2008426914
2.31361	649076.0825508927
2.31555	448336.76775035704
2.31749	227244.61421435123
2.31943	142319.3548142801
2.32137	121177.15341329167
2.32331	106979.5496741138
2.32524	92700.87588792683
2.32718	81251.58169528063
2.32911	74140.0882853839
2.33104	74689.67145207796
2.33297	92030.03728174715
2.3349	138944.63612230215
2.33683	206508.87429878794
2.33876	243111.7461758199
2.34068	243835.55790001806
2.34261	234385.33725069324
2.34453	241671.57328362012
2.34646	277367.1822538433
2.34838	326532.89983511576
2.3503	339335.21642804646
2.35223	333582.5140959409
2.35415	307955.67840879585
2.35607	267297.3481332984
2.35799	276582.1616019681
2.35991	339367.40659287677
2.36183	412261.5385522045
2.36375	461289.2326549087
2.36566	479285.40687545517
2.36758	429510.0257824166
2.3695	365688.558665463
2.37142	338125.3044987181
2.37334	333762.670135491
2.37526	287707.9777549193
2.37718	224267.45244321774
2.3791	188029.70982647466
2.38101	179059.6028044979
2.38293	193238.53151241096
2.38485	239386.94547558003
2.38677	327658.31833003106
2.3887	395101.153513374
2.39062	386094.8390254217
2.39254	365329.1002415883
2.39446	404334.90934098116
2.39639	460435.38662097737
2.39831	484647.2867515523
2.40024	528581.7947967888
2.40216	596801.5236648795
2.40409	680445.4724037923
2.40602	662860.2054093553
2.40795	580580.5931244405
2.40989	565513.3728068189
2.41182	651232.3084027467
2.41376	726084.6424309335
2.4157	823842.8237144162
2.41764	878227.3322017426
2.41958	843441.5244859795
2.42152	738099.99422215
2.42347	679005.6499615775
2.42542	713870.8285514463
2.42737	888298.4033620675
