#wavelength	surface flux
0.8	42745.39563843363
0.8002000000000001	43459.59346172483
0.8004000500000003	44202.15971794944
0.8006001500125003	44839.84344420606
0.8008003000500035	45560.564193026614
0.8010005001250161	46131.154973914105
0.8012007502500472	47086.60148927533
0.8014010504376099	47713.07647974831
0.8016014007002193	48254.35705278326
0.8018018010503944	49117.965479339415
0.8020022515006572	49639.30807907833
0.8022027520635323	50567.51488888125
0.8024033027515483	51355.44505401392
0.8026039035772362	51817.75303154657
0.8028045545531306	53002.483011454846
0.8030052556917691	53442.70867321951
0.803206007005692	54465.135603427436
0.8034068085074435	54983.127790436716
0.8036076602095705	56144.80167549314
0.8038085621246229	57018.65243752997
0.8040095142651542	58022.77143733005
0.8042105166437206	58434.96289287735
0.8044115692728815	59384.126371157494
0.8046126721651998	60101.042301851136
0.8048138253332411	61368.06875986143
0.8050150287895745	62537.809307766
0.805216282546772	63304.387213768685
0.8054175866174087	63725.98841806047
0.8056189410140631	64934.16665405282
0.8058203457493168	65671.25043434593
0.8060218008357541	67055.85768899831
0.8062233062859632	66895.57637636078
0.8064248621125346	68585.36604845535
0.806626468328063	69802.24755557247
0.8068281249451449	70538.95478280647
0.8070298319763813	71322.58002078375
0.8072315894343755	72071.73715409805
0.8074333973317341	73623.28022245188
0.8076352556810671	74783.22498704227
0.8078371644949874	75635.17925081248
0.8080391237861113	77218.58330973134
0.8082411335670578	77345.16959351173
0.8084431938504498	78409.99941385235
0.8086453046489125	79381.61277053494
0.8088474659750746	80071.33264591488
0.8090496778415686	81260.0391487426
0.809251940261029	80407.88832527935
0.8094542532460944	83951.30660831038
0.8096566168094059	84745.224548942
0.8098590309636085	85794.83594297216
0.8100614957213493	84292.9880677729
0.8102640110952797	86834.72319459148
0.8104665770980536	87597.17334072378
0.8106691937423283	89685.18437912948
0.8108718610407639	89725.85720995112
0.8110745790060241	89936.25494353395
0.8112773476507757	92168.11612475781
0.8114801669876885	92881.90011397623
0.8116830370294355	93021.27265210278
0.8118859577886929	98913.89495683946
0.8120889292781401	97338.26309009592
0.8122919515104597	96305.32366845933
0.8124950244983374	95626.0368761643
0.8126981482544621	101325.53646839406
0.8129013227915257	103009.74502359834
0.8131045481222237	104008.2152253466
0.8133078242592543	101901.66025827777
0.8135111512153191	103483.78717734443
0.813714529003123	103002.93969204155
0.8139179576353739	107524.56477074203
0.8141214371247829	108936.79264212247
0.8143249674840641	105524.1861322438
0.814528548725935	112421.22961754572
0.8147321808631167	115707.3063285667
0.8149358639083326	114196.49626639871
0.8151395978743097	109118.04260891893
0.8153433827737784	120579.86966515405
0.8155472186194719	117454.47202229816
0.8157511054241268	119398.63667877766
0.815955043200483	124206.68692255075
0.8161590319612831	127275.57522262109
0.8163630717192736	118556.54297745453
0.8165671624872033	126543.47665137662
0.8167713042778252	129900.87053489483
0.8169754971038948	134706.9089122048
0.8171797409781707	125162.41395384767
0.8173840359134155	139068.96086363168
0.8175883819223938	141436.41559500748
0.8177927790178745	141328.40550320136
0.8179972272126291	137088.4602700283
0.8182017265194322	144335.20870889886
0.8184062769510622	140185.30778755381
0.8186108785203001	149568.92776215734
0.8188155312399301	146956.87918902354
0.8190202351227402	150939.3952881773
0.819224990181521	149664.18867107507
0.8194297964290664	148669.59547540668
0.8196346538781738	153433.2750350606
0.8198395625416434	160156.5485992825
0.8200445224322789	157248.61357222818
0.820249533562887	162820.05154625792
0.8204545959462778	166605.3474111303
0.8206597095952644	168477.58481638826
0.8208648745226633	170251.41258980765
0.8210700907412941	171758.16231289497
0.8212753582639793	174155.74484999833
0.8214806771035456	177009.3319351717
0.8216860472728215	179146.43160340222
0.8218914687846397	180192.85696263294
0.822096941651836	182310.03107653104
0.822302465887249	184393.68848276936
0.8225080415037209	186639.9751602612
0.8227136685140968	179762.70565428762
0.8229193469312254	165700.68376355944
0.8231250767679583	162346.43024075034
0.8233308580371503	179526.02792928214
0.8235366907516598	187235.71387088412
0.8237425749243477	194488.0370336783
0.8239485105680789	195846.57560905648
0.824154497695721	202066.51932996744
0.824360536320145	200961.74227860104
0.8245666264542252	194637.37375324356
0.8247727681108388	214028.109155149
0.8249789613028664	215495.60759788376
0.8251852060431922	218644.7769799733
0.825391502344703	222494.36832219802
0.8255978502202894	224759.09508833912
0.8258042496828445	222359.6907610151
0.8260107007452654	228636.3564884525
0.8262172034204517	223053.97171866658
0.8264237577213068	230478.90389456876
0.8266303636607373	233668.76095125364
0.8268370212516525	240661.63318554786
0.8270437305069654	243025.59062514218
0.8272504914395923	244713.12113126597
0.8274573040624523	241736.24348615744
0.8276641683884679	243460.22155916857
0.8278710844305652	246943.58511508288
0.8280780522016729	254580.22025618228
0.8282850717147234	254033.44480523522
0.8284921429826521	258107.78631609058
0.8286992660183978	264257.76420947316
0.8289064408349024	260157.8633520888
0.8291136674451112	258356.99166651102
0.8293209458619727	269518.50534851535
0.8295282760984382	265144.23639087763
0.829735658167463	254531.88878674182
0.8299430920820048	277667.0042560995
0.8301505778550254	281470.51609722065
0.8303581154994891	283176.17294482875
0.8305657050283641	287304.2116422065
0.8307733464546212	276843.74839048466
0.8309810397912352	296121.00312247995
0.8311887850511829	301219.4503471499
0.8313965822474458	291663.2444438491
0.8316044313930077	303980.58682091127
0.8318123325008561	304381.58808010444
0.8320202855839813	302554.6670819273
0.8322282906553774	309864.55733952514
0.8324363477280413	304206.00037520315
0.8326444568149735	325452.7401855313
0.8328526179291771	329085.7826271481
0.8330608310836596	323673.7453150217
0.8332690962914304	318059.2739832775
0.8334774135655034	324880.40970945696
0.833685782918895	329886.43629451643
0.8338942043646247	342964.899067289
0.834102677915716	326605.2870596046
0.834311203585195	346517.64956865687
0.8345197813860912	352750.27907101944
0.8347284113314379	361076.9144635619
0.8349370934342709	362917.78856237995
0.8351458277076294	346302.650828343
0.8353546141645565	366307.84897726594
0.8355634528180977	352017.7802626087
0.8357723436813022	359898.99545562343
0.8359812867672226	349349.0119962947
0.8361902820889144	383297.8363138227
0.8363993296594368	350741.5122659534
0.8366084294918518	383897.5251076088
0.8368175815992247	384065.8175528396
0.8370267859946247	380714.4511902879
0.8372360426911234	398578.32433907804
0.8374453517017962	404853.2311320038
0.8376547130397217	389808.17178519844
0.8378641267179816	386685.43924782844
0.8380735927496613	413970.73775568325
0.8382831111478488	423077.624564649
0.8384926819256358	426630.2958620997
0.8387023050961173	418339.7696188321
0.8389119806723914	418997.85776202654
0.8391217086675596	442782.4795837832
0.8393314890947265	450899.3886620008
0.8395413219670003	447315.3101132457
0.8397512072974922	450172.25939931
0.8399611450993165	439539.7734811623
0.8401711353855914	451604.22830034245
0.8403811781694378	463684.44985649147
0.8405912734639802	454731.03430048045
0.8408014212823464	452529.7291772054
0.8410116216376671	470438.6518517416
0.8412218745430766	483721.6193965601
0.8414321800117124	491687.1174969176
0.8416425380567154	482039.26992744475
0.8418529486912297	491708.9957399299
0.8420634119284025	468607.539271365
0.8422739277813847	500661.19962689246
0.8424844962633302	508892.9312462883
0.842695117387396	521259.2669093956
0.8429057911667428	522382.55553280824
0.8431165176145345	512512.9377875798
0.8433272967439382	528773.1232062149
0.8435381285681244	528832.9360749435
0.8437490131002665	533766.0743309135
0.8439599503535415	549801.595733839
0.84417094034113	541470.2613490474
0.8443819830762154	532970.215207946
0.8445930785719846	557563.2889128671
0.8448042268416277	564540.2134271342
0.8450154278983382	565386.6014959167
0.8452266817553128	570874.7876903334
0.8454379884257517	573025.0526497046
0.8456493479228583	560405.4427259085
0.845860760259839	593889.5543744641
0.846072225449904	606797.7967196932
0.8462837435062666	604449.7885694274
0.8464953144421433	585753.610113787
0.8467069382707537	603320.0151412133
0.8469186150053215	622185.2501543498
0.847130344659073	616704.373774775
0.8473421272452377	627715.1796682857
0.8475539627770492	629313.9955299374
0.8477658512677435	634780.5172838516
0.8479777927305605	647759.6425056402
0.8481897871787432	652540.1240473392
0.848401834625538	659508.3623210324
0.8486139350841944	661791.1342336935
0.8488260885679657	657548.8018558315
0.8490382950901076	662218.5129549084
0.8492505546638802	678411.2083715239
0.8494628673025462	671937.8347663315
0.8496752330193721	690306.5830255741
0.8498876518276269	681935.5277644657
0.8501001237405839	674330.385925259
0.8503126487715191	681447.321983408
0.850525226933712	682418.4308947443
0.8507378582404455	676004.86045682
0.8509505427050057	656617.118143227
0.8511632803406821	636762.648465499
0.8513760711607672	578840.3345839632
0.8515889151785576	488475.8833107997
0.8518018124073523	316663.6220765781
0.8520147628604541	101368.2479501431
0.8522277665511693	115475.32156670466
0.8524408234928071	340518.46866995876
0.8526539336986805	516101.71171253076
0.8528670971821053	619677.5874411265
0.8530803139564007	682760.7598771383
0.8532935840348901	719386.5984673522
0.8535069074308987	757080.4248152201
0.8537202841577566	777391.8091882145
0.8539337142287962	787441.8235459866
0.8541471976573534	799309.5388892514
0.8543607344567677	822049.8701022033
0.8545743246403821	835340.239985984
0.8547879682215422	839284.7372804488
0.8550016652135977	849664.8032733399
0.8552154156299011	854757.8037395452
0.8554292194838088	861241.5242851053
0.8556430767886797	867941.8527687
0.855856987557877	885997.0918076676
0.8560709518047664	898145.5240812282
0.8562849695427177	905855.2346502133
0.8564990407851035	903203.2614283186
0.8567131655452999	918064.2409786645
0.8569273438366862	932254.6246855793
0.8571415756726455	938206.6815950456
0.8573558610665638	942545.3707095279
0.8575702000318304	937494.5875896013
0.8577845925818384	954840.3451528943
0.857999038729984	971182.3964685558
0.8582135384896665	976294.9233390269
0.858428091874289	978157.6988239855
0.8586426988972576	989856.4235976628
0.8588573595719821	994037.448917324
0.8590720739118751	1003461.5333443413
0.8592868419303532	1012346.9795421708
0.8595016636408359	1024607.6312238324
0.8597165390567462	1032964.0516449012
0.8599314681915105	1032521.8980834567
0.8601464510585584	1038822.8961637366
0.860361487671323	1050460.8093073538
0.8605765780432408	1057616.5477897432
0.8607917221877518	1062996.2474922596
0.8610069201182988	1069127.2695443707
0.8612221718483286	1052391.1243847709
0.8614374773912907	1007613.937256786
0.8616528367606385	1032948.8654508714
0.8618682499698288	1018656.813159389
0.8620837170323213	1012683.6459372514
0.8622992379615795	1044196.2016572524
0.8625148127710699	1042247.0236990121
0.8627304414742627	1039210.1273005098
0.8629461240846313	1098354.3260663447
0.8631618606156526	1062566.3471146005
0.8633776510808066	1060963.303481512
0.8635934954935769	1076373.665840465
0.8638093938674504	1092412.6543961419
0.8640253462159173	1105525.5804813588
0.8642413525524714	1101090.7315543497
0.8644574128906095	1133075.558336715
0.8646735272438323	1143312.4678328948
0.8648896956256433	1115945.615020654
0.8651059180495498	1162855.21893978
0.8653221945290621	1152050.920166823
0.8655385250776946	1219238.69246486
0.8657549097089641	1189397.0899210891
0.8659713484363913	1201686.4557354308
0.8661878412735006	1225651.8413482737
0.866404388233819	1233821.7394042176
0.8666209893308775	1222771.5914325905
0.8668376445782103	1282028.3091112522
0.8670543539893549	1251253.1892673702
0.8672711175778525	1264563.3159517804
0.8674879353572469	1266528.8802365554
0.8677048073410862	1301875.706398953
0.8679217335429217	1322238.121624703
0.8681387139763074	1310841.1194417875
0.8683557486548015	1292826.1474742803
0.8685728375919655	1297713.3801968032
0.8687899808013633	1354446.2103946896
0.8690071782965637	1379131.01111565
0.869224430091138	1397392.6458411654
0.8694417361986609	1387942.4708284966
0.8696590966327107	1332324.1147567972
0.869876511406869	1368122.9571403523
0.8700939805347206	1408346.0115730595
0.8703115040298544	1422567.7325873096
0.870529081905862	1405523.8397803812
0.8707467141763385	1433567.978350878
0.8709644008548827	1406547.0375592783
0.8711821419550964	1412420.975162994
0.8713999374905854	1428926.3373607292
0.871617787474958	1484840.096180677
0.8718356919218269	1486993.2435474845
0.8720536508448075	1455774.0461019608
0.8722716642575187	1474442.0826482323
0.8724897321735832	1474924.4347293642
0.8727078546066265	1532398.6942351495
0.8729260315702784	1508274.322592835
0.873144263078171	1531085.2426538325
0.8733625491439405	1558981.9281773516
0.8735808897812266	1509194.0046587295
0.8737992850036719	1551968.9879004802
0.874017734824923	1555626.4427961956
0.8742362392586293	1608029.0043900728
0.874454798318444	1613681.073200598
0.8746734120180236	1633070.4084053626
0.8748920803710283	1649946.1101413043
0.875110803391121	1616259.2567712895
0.8753295810919689	1603765.6216281638
0.875548413487242	1673527.195774904
0.8757673005906139	1667797.6301798979
0.8759862424157616	1702341.6471004295
0.8762052389763657	1707136.4450244019
0.8764242902861098	1685044.3893477814
0.8766433963586814	1741570.2086363381
0.8768625572077712	1683236.7261020718
0.8770817728470732	1660632.6224640247
0.8773010432902849	1749416.5636122844
0.8775203685511077	1736791.3543759855
0.8777397486432454	1831162.119708879
0.8779591835804065	1795209.9724691994
0.8781786733763015	1718023.7321404512
0.8783982180446457	1783642.0792886384
0.878617817599157	1817811.2409373831
0.8788374720535569	1755252.5651124388
0.8790571814215703	1805423.570565812
0.8792769457169257	1847775.3186858247
0.879496764953355	1831517.6128763834
0.8797166391445934	1902345.6176259078
0.8799365683043796	1900246.0413659564
0.8801565524464557	1832110.2414519442
0.8803765915845676	1813521.4283347477
0.8805966857324639	1860920.497381039
0.880816834903897	1777639.6911157654
0.881037039112623	1838036.7298874643
0.8812572983724012	1845887.9342897632
0.8814776126969944	1826750.3511057307
0.8816979821001687	1835315.8053679278
0.8819184065956938	1852967.3225759421
0.8821388861973429	1785646.3095839499
0.8823594209188923	1717033.7655196197
0.882580010774122	1721921.6444303095
0.8828006557768155	1725384.3390373928
0.8830213559407598	1686743.71492537
0.8832421112797452	1761761.6855097392
0.8834629218075651	1693554.0507860067
0.8836837875380171	1697310.5778726449
0.8839047084849018	1764778.3563171607
0.884125684662023	1840800.3511466444
0.8843467160831886	1887344.4702558252
0.8845678027622095	1918322.2556779736
0.8847889447129001	1800413.3411803031
0.8850101419490785	1893895.6217006636
0.8852313944845657	1938304.955212255
0.885452702333187	2038024.310042582
0.8856740655087704	2006165.089645845
0.8858954840251476	1908700.8618536612
0.8861169578961539	1885323.1872946715
0.886338487135628	1988512.6385517267
0.886560071757412	1959240.7579034513
0.8867817117753515	1875034.8546182667
0.8870034072032955	1779539.3237323528
0.8872251580550963	1647970.3602871597
0.8874469643446101	1686940.2970639141
0.8876688260856963	1733519.3713753137
0.8878907432922178	1854106.383059325
0.8881127159780409	1909047.9800293543
0.8883347441570356	1919790.9863399197
0.8885568278430749	1794056.1295015109
0.8887789670500358	1975173.9435540277
0.8890011617917983	1997785.4588048866
0.8892234120822464	2117235.3561126306
0.8894457179352669	2114422.838028194
0.8896680793647509	2013443.832233975
0.8898904963845921	1902962.2078932514
0.8901129690086883	2040624.4314378873
0.8903354972509405	2102737.628270309
0.8905580811252535	2108624.7595954672
0.8907807206455347	2046116.9596867694
0.8910034158256963	1953631.162070697
0.8912261666796527	1860790.74864521
0.8914489732213227	1966973.3971189116
0.8916718354646282	2007869.365773467
0.8918947534234944	1900182.8702637656
0.8921177271118502	1815244.130115084
0.8923407565436284	1919864.3199622768
0.8925638417327644	1720187.5686181348
0.8927869826931977	1835677.2230727263
0.8930101794388711	1747970.8687401905
0.8932334319837308	1660927.200937994
0.8934567403417267	1639836.4038608307
0.8936801045268123	1267794.8442702787
0.8939035245529441	1050892.5116951864
0.8941270004340824	525616.5713531366
0.894350532184191	133262.6992322098
0.8945741198172371	541871.8979412069
0.8947977633471915	1044723.1877722399
0.8950214627880284	1389769.483947281
0.8952452181537254	1682344.890628486
0.8954690294582639	1647906.2779824769
0.8956928967156286	1628936.8328290056
0.8959168199398075	1995320.7480908397
0.8961407991447926	2183070.1458465774
0.8963648343445789	2110663.5756784994
0.896588925553165	1814990.521098099
0.8968130727845534	1980200.6627801007
0.8970372760527496	2281178.9852322624
0.8972615353717629	2171609.3997521144
0.8974858507556059	2055216.9418922716
0.8977102222182949	2380045.3272039234
0.8979346497738496	2627248.7312325137
0.8981591334362931	2494877.2767345356
0.8983836732196523	2206089.5812576767
0.8986082691379572	2576342.33565709
0.8988329212052417	2349219.5722379456
0.8990576294355432	2098144.1234653993
0.8992823938429022	2140210.704993521
0.8995072144413631	2419468.5073777293
0.8997320912449734	2744638.7731977333
0.8999570242677847	2764272.638590449
0.9001820135238516	2407778.422945826
0.9004070590272328	2729971.26950442
0.9006321607919896	2824271.239732008
0.9008573188321878	2767660.856237975
0.9010825331618959	2607742.9396008775
0.9013078037951865	2890190.207082688
0.9015331307461353	2962481.624694842
0.9017585140288219	2888108.9507856937
0.9019839536573292	2854695.2263858
0.9022094496457435	3314499.4668226303
0.9024350020081551	3071445.684377183
0.9026606107586572	3167031.8028731556
0.902886275911347	2960327.5032714573
0.9031119974803249	3165154.5356449257
0.9033377754796951	3239468.9786940184
0.903563609923565	3406126.6802752228
0.903789500826046	3520905.3381750016
0.9040154482012526	3597408.253823841
0.904241452063303	3419033.570751281
0.9044675124263188	3312753.174550543
0.9046936293044254	3485001.0841868203
0.9049198027117517	3466857.6630911874
0.9051460326624297	3622258.5301745096
0.9053723191705955	3663842.391965277
0.9055986622503881	3567588.1703320774
0.9058250619159507	3714849.7084924183
0.9060515181814298	3618371.1760721374
0.9062780310609752	3601797.7340990067
0.9065046005687405	3583829.145222883
0.906731226718883	3675179.318753658
0.9069579095255627	3838904.7625183654
0.907184649002944	3456668.423567486
0.907411445165195	3456627.899069039
0.9076382980264862	3640698.1852458552
0.907865207600993	3852300.128230068
0.9080921739028933	3617582.430671474
0.9083191969463691	3391740.7298156316
0.9085462767456058	3971076.9056511037
0.9087734133147922	3802901.1362443455
0.9090006066681211	3474953.9030841063
0.909227856819788	3866188.9275324144
0.9094551637839932	3873046.840203185
0.9096825275749393	3861187.0623969673
0.9099099482068329	3930688.8974361056
0.9101374256938848	3803108.304162385
0.9103649600503083	3892606.5915439096
0.9105925512903209	4148198.597129079
0.9108201994281437	3068288.7025305247
0.9110479044780008	3340960.5652685193
0.9112756664541204	4130010.0919341156
0.911503485370734	4181477.472192456
0.9117313612420768	4229732.583189069
0.9119592940823873	3919292.9138018987
0.912187283905908	3962573.082926052
0.9124153307268845	4320270.95868075
0.9126434345595664	4362982.012453354
0.9128715954182063	4022499.099214443
0.9130998133170609	3072896.49939213
0.9133280882703902	3538267.0774617353
0.913556420292458	4145313.6651743418
0.9137848093975312	3671276.081665847
0.9140132555998806	3868881.860719881
0.9142417589137806	4420441.4708597725
