#wavelength	surface flux
0.676892	22276.426480198028
0.678297	23355.96139982347
0.679702	24383.557140165616
0.681109	25359.085646873187
0.682517	26254.614928276187
0.683926	27095.632506714082
0.685337	27850.13711307711
0.686749	28494.230032982043
0.688164	29021.475934773982
0.689581	29394.335720080373
0.691	29515.80512673209
0.692422	29216.779207599524
0.693847	29487.804675469637
0.695274	29534.43504912439
0.696705	29523.676447816782
0.698139	29352.526457809625
0.699576	28881.42253736541
0.701017	28359.788865925475
0.702461	27637.59081360449
0.70391	27093.831150867896
0.705362	26292.271221391336
0.706819	25463.578700177088
0.70828	24591.23560877329
0.709745	23522.821093846967
0.711216	22480.811320240937
0.71269	21403.22877515788
0.71417	20362.360214062282
0.715655	18898.28506287303
0.717145	17238.224382310076
0.71864	16055.618932385449
0.72014	15332.556188661989
0.721647	14534.391485747625
0.723158	13804.427212407782
0.724676	12737.711262433962
0.726199	11686.491706171882
0.727728	10517.453848779689
0.729264	10143.120094135029
0.730805	9298.353490770387
0.732353	9021.88412060391
0.733907	8429.278556498632
0.735468	7640.782440893052
0.737035	7327.893276838575
0.738609	6825.0191811293125
0.74019	6400.111754638887
0.741777	5996.323091305842
0.743372	5649.141901529238
0.744973	5301.937666013812
0.746582	4963.761811861361
0.748197	4641.884463960692
0.74982	4364.210877180442
0.751451	4068.2937836512033
0.753088	3763.248193704009
0.754734	3439.7666751372876
0.756386	3088.9415558921414
0.758047	2709.6523729152814
0.759715	2323.994085808067
0.76139	1963.1422817142297
0.763074	1587.253129141074
0.764765	957.3748593967133
0.766464	326.9824117391045
0.768172	672.4448761331562
0.769887	478.81579881789503
0.77161	1378.5717925746872
0.773341	2220.922853859343
0.775081	2862.2944378754814
0.776829	3570.574538434523
0.778585	4030.2180694222443
0.780349	3990.7045725921225
0.782121	5938.994184266971
0.783902	6965.981555589281
0.785691	7936.107424459712
0.787489	9010.85676559882
0.789295	10168.548395084867
0.79111	11414.677934259742
0.792933	11977.37469952535
0.794764	9386.179889591358
0.796604	15115.888403745948
0.798453	18196.511516102648
0.80031	20673.888663162492
0.802176	23345.707597971505
0.804051	26456.261551734537
0.805934	29695.98934952223
0.807826	33400.832896426335
0.809727	37280.19232519354
0.811636	41120.6349254056
0.813554	44264.39232084578
0.81548	51098.15358324711
0.817416	58460.15146893571
0.81936	65356.12769079009
0.821313	73813.99861722451
0.823274	80006.34060020758
0.825244	89498.52768898683
0.827223	101531.5133726521
0.829211	110784.30590616987
0.831208	119393.60627648741
0.833213	135270.3196029916
0.835227	147659.0041188699
0.837249	158842.31761413245
0.83928	178874.0724198821
0.841321	196284.9786510233
0.843369	215574.352348787
0.845427	233529.22262975227
0.847493	259282.19544141696
0.849567	272163.1407617347
0.851651	203884.5887462777
0.853742	300108.9700261751
0.855843	359753.04427659145
0.857952	391289.6400968839
0.86007	422440.5225177672
0.862196	441032.65743849706
0.864331	475209.46797192295
0.866474	515798.2951218503
0.868626	557838.8394691036
0.870786	595915.2981921707
0.872955	637936.5102307209
0.875132	672791.1865305237
0.877317	721074.406047257
0.879511	761030.2578692354
0.881713	730652.1639707925
0.883923	722743.6608781192
0.886142	756831.7759125036
0.888369	739207.62284821
0.890604	789542.982199034
0.892847	659608.2993291606
0.895099	567252.7170285848
0.897358	865917.8174162939
0.899626	996238.2154218265
0.901901	1165004.3402135707
0.904185	1358324.7585671963
0.906476	1458857.1365913856
0.908776	1311575.2374280975
0.911083	1479304.9985503643
0.913398	1433893.5712591105
0.915721	1597690.8281749487
0.918051	1577465.8675427865
0.92039	1753937.113249332
0.922736	1789999.086001711
0.925089	1573891.6792697844
0.927451	1015485.7458126253
0.929819	616310.4590102297
0.932195	549340.2544255048
0.934579	647244.1372186163
0.93697	1281162.3836783876
0.939369	1579653.5353008364
0.941774	1549032.3396718015
0.944187	1236872.632881913
0.946607	1438377.9782951605
0.949035	1544215.2050341133
0.951469	1146067.1758741871
0.953911	1284867.0899433894
0.956359	1007744.8513783542
0.958814	1503465.0434079918
0.961277	965842.929261824
0.963746	1221006.0892862338
0.966222	1633512.9173533092
0.968705	2037208.9655393858
0.971194	2245718.412951151
0.97369	1998506.6499946285
0.976193	2525252.0943835326
0.978702	2521099.366113856
0.981217	2589286.5125843002
0.983739	2380470.9743743176
0.986268	2866243.908065304
0.988802	2972983.882761449
0.991343	3171222.866015478
0.99389	3491991.1972193005
0.996444	3728014.111121588
0.999003	3601060.468152412
1.00157	4054576.076962374
1.00414	4439064.02234045
1.00672	4747646.261053281
1.0093	4827601.660685481
1.01189	5064732.9026779365
1.01448	5284449.4218305815
1.01708	5471825.155281594
1.01969	5637198.940090843
1.0223	5851533.238060611
1.02492	6061402.693201493
1.02754	6193844.8656693185
1.03017	6347995.7505064085
1.0328	6323497.072089013
1.03544	6716588.110170832
1.03808	7062184.244027135
1.04073	7094135.967170645
1.04339	7333190.013904776
1.04604	7525953.222101557
1.04871	7662500.215990972
1.05138	7870025.2848629765
1.05405	8219921.825315817
1.05673	8343909.9383305125
1.05941	8492466.272456743
1.0621	8608271.64296796
1.06479	8586687.278068682
1.06749	8655574.592788344
1.07019	8721457.993108815
1.07289	8711556.420218294
1.0756	8728435.9027809
1.07832	8537948.95889474
1.08104	8700726.088955633
1.08376	8789795.999634106
1.08649	8156962.39815461
1.08922	7195962.545845172
1.09195	6448732.18872316
1.09469	5550168.150382496
1.09743	4632828.855236896
1.10018	3621785.4086369867
1.10293	2643551.7557748486
1.10568	1867714.8950005358
1.10844	2053651.8593690165
1.1112	1388021.4636769444
1.11396	1137116.7459622636
1.11673	942213.0850449936
1.1195	1260288.465881832
1.12228	953346.6508420943
1.12505	1544069.5360914778
1.12783	1654594.1897576398
1.13062	1713886.7770822588
1.13341	664530.9573062735
1.1362	904867.7629913124
1.13899	2039102.8849852919
1.14178	2480583.5714477887
1.14458	1477354.4849760698
1.14738	1390080.6771632575
1.15019	2297447.667211031
1.153	1606592.8559494028
1.1558	1316790.8702414057
1.15862	1916155.9827716555
1.16143	1160765.0519679103
1.16425	1050670.8203003022
1.16707	1367832.2221469916
1.16989	1989854.8608577142
1.17271	2722485.5386616886
1.17554	2812996.4684471264
1.17837	2471855.2794440347
1.1812	4328953.649300129
1.18403	4420556.22866215
1.18686	4330309.921663637
1.1897	5095760.887761152
1.19253	5613574.995665852
1.19537	6297615.910131445
1.19822	6667745.08273122
1.20106	7188595.466076772
1.2039	7688325.602322976
1.20675	8550729.944939032
1.2096	8555636.79263114
1.21245	8729082.66854058
1.2153	9385602.258629303
1.21815	9268222.654386196
1.221	9933306.616547918
1.22385	10382351.494499097
1.22671	10804560.906984014
1.22957	11685930.357509322
1.23242	11747560.336280638
1.23528	11922956.44343377
1.23814	12042098.055455508
1.241	12137879.049627312
1.24387	11761239.53976771
1.24673	12820169.9147346
1.24959	12246726.46083512
1.25245	10961806.188856184
1.25532	13175618.511526605
1.25818	13876265.990830285
1.26105	14236700.107214399
1.26392	13628150.417296255
1.26678	13872210.323266607
1.26965	13410828.962773701
1.27252	13771748.466416156
1.27538	13838267.948989334
1.27825	13412854.357618233
1.28112	12908211.838445378
1.28399	10815706.89681632
1.28686	10678163.40200849
1.28973	10556834.241212621
1.2926	10036265.228595816
1.29546	8791679.470934624
1.29833	8524801.188168213
1.3012	9428327.04732024
1.30407	9613516.215360748
1.30694	8508849.849229861
1.30981	9167260.069606813
1.31267	8506242.161000535
1.31554	7338781.467985389
1.31841	6738118.885160926
1.32128	8498316.233755808
1.32414	6232155.95320002
1.32701	4584658.507355724
1.32987	2795169.929459944
1.33274	1898267.874022441
1.3356	1641576.6211980043
1.33847	389530.8110863246
1.34133	268409.1350001349
1.34419	353690.5906633948
1.34705	240887.79276928602
1.34991	270827.77103400993
1.35277	284341.271064672
1.35563	110580.30631143673
1.35849	91752.27613660427
1.36135	127336.00993797624
1.3642	249251.16211356822
1.36706	228801.7033246965
1.36991	228817.7717125592
1.37277	242388.67563254776
1.37562	310934.9428875063
1.37847	272824.4352498416
1.38132	194244.48093896967
1.38417	91810.68032658896
1.38701	47171.12708993644
1.38986	205181.20109378564
1.39271	274125.2281110299
1.39555	124470.24704008443
1.39839	187402.7632657606
1.40123	252021.24963044978
1.40407	267777.16385566886
1.40691	227709.64534898193
1.40974	164950.28014925052
1.41258	275931.9756326019
1.41541	340580.7488723111
1.41824	169692.13890003038
1.42107	107262.40718785331
1.4239	108996.63603620316
1.42673	367703.34586053656
1.42955	540945.7738377616
1.43237	361037.6657432429
1.43519	605906.0128199762
1.43801	647888.1798904866
1.44083	602267.8864702726
1.44365	710240.1315889668
1.44646	595467.0647975329
1.44927	910103.5367471171
1.45208	1362317.1874317373
1.45489	973496.319758033
1.45769	1520993.350228837
1.4605	1436820.7176298604
1.4633	991498.1504054762
1.4661	1603886.675234154
1.4689	1465074.07810485
1.47169	1403341.98085243
1.47449	1188562.8945327091
1.47728	1091256.7878964457
1.48007	1109558.6891861467
1.48286	1425071.1319550674
1.48564	1361067.8495665395
1.48842	1395373.448123228
1.4912	1534351.6165315358
1.49398	1328718.3234498827
1.49676	1583434.965252267
1.49953	2129627.525713967
1.5023	2433444.287644377
1.50507	2809735.0861093304
1.50784	2689651.8617263506
1.51061	2788324.9929926
1.51337	2585165.093249719
1.51613	2332172.8926773397
1.51888	2318056.4882172896
1.52164	2899883.4217773555
1.52439	3384933.5440490847
1.52714	3228499.9421028844
1.52989	3749938.3039146108
1.53263	4229500.823534656
1.53538	4822532.74129404
1.53812	5012158.217487824
1.54086	3946239.7874503243
1.54359	4531093.885663795
1.54632	5274041.494931211
1.54905	5107756.991037785
1.55178	4905083.429208265
1.5545	5704373.478352565
1.55723	6307422.36650054
1.55995	6911647.818401368
1.56266	6635522.156969636
1.56538	8242687.417344037
1.56809	9279436.81310819
1.5708	9085795.281165592
1.57351	8771296.26636209
1.57621	9300536.197237335
1.57891	9173360.4625193
1.58161	9697808.577957926
1.5843	9622787.228735989
1.587	9584194.205892434
1.58969	9100933.90387339
1.59238	8424466.143491099
1.59506	9059926.41271034
1.59774	9378310.52696509
1.60042	8638372.885422345
1.6031	7794369.014264096
1.60577	7133575.360735827
1.60844	6470084.302458254
1.61111	6300547.952774316
1.61378	5664461.378859806
1.61644	5000590.838066072
1.6191	4434143.868096935
1.62176	4869695.576640616
1.62441	4882797.8859744165
1.62707	4755810.4887322085
1.62971	4518592.843251567
1.63236	4480588.9244122645
1.635	5290040.583495781
1.63764	5980781.944878523
1.64028	5370942.085289169
1.64292	5299127.90515444
1.64555	4312371.810404735
1.64818	4109988.9052092764
1.65081	5368799.735098272
1.65343	5465780.955793354
1.65605	4123114.2326405505
1.65867	4529985.935532152
1.66128	6079831.380150328
1.6639	4683306.832771341
1.66651	1233077.760076328
1.66911	674530.5886700922
1.67172	2322114.8803952136
1.67432	3766844.3742455705
1.67692	4473915.000489758
1.67951	4016628.336163957
1.68211	3112096.2270495095
1.6847	2291554.418289011
1.68728	2284616.817318326
1.68987	2243952.7026901115
1.69245	1723660.569186265
1.69503	1710046.6867141176
1.6976	1568855.7339659121
1.70018	1540958.9393438306
1.70275	1231261.180982577
1.70531	1246284.4421502757
1.70788	1894836.0023049014
1.71044	2568995.577706645
1.713	3298578.3902356126
1.71556	3586194.1499413652
1.71811	3636027.3661429654
1.72066	3094208.9319492215
1.72321	2095669.0600383605
1.72575	2809757.0197109072
1.7283	3247371.900779866
1.73084	3210097.2269732286
1.73337	2639559.392763123
1.73591	2474883.3618321954
1.73844	2903868.730611978
1.74097	2908213.273654242
1.74349	2876146.721662027
1.74602	3144382.9837830467
1.74854	3712495.693593834
1.75105	3692772.769287693
1.75357	2708134.1161769563
1.75608	1687834.150505173
1.75859	1753646.7332842308
1.7611	1730003.1160515796
1.7636	1733261.8737109827
1.7661	1703076.9199975722
1.7686	1505541.5936027134
1.7711	1717162.3011120136
1.77359	1564402.1283518048
1.77608	1101615.4554792063
1.77857	1275696.727860542
1.78105	1550969.989512169
1.78354	1131660.7106276355
1.78602	890648.1417701767
1.78849	1123845.6574715765
1.79097	978819.1144413545
1.79344	836372.3746299865
1.79591	1033282.0397263488
1.79837	1412529.3580524202
1.80084	906954.532850163
1.8033	703294.9609813837
1.80576	755023.3428802191
1.80821	768593.1330811509
1.81067	772375.4139011117
1.81312	965781.3846915006
1.81557	1022687.0500108311
1.81801	714339.881903126
1.82046	571149.8523872171
1.8229	764152.7170782847
1.82533	706908.4166420937
1.82777	474595.44783096417
1.8302	488231.36989801365
1.83263	541629.6118851255
1.83506	490775.68718975934
1.83749	440198.37501653656
1.83991	505316.59987147065
1.84233	705650.1394168094
1.84475	1028249.1617724185
1.84716	780744.5620645015
1.84957	850807.515945976
1.85198	1172123.888544595
1.85439	863981.0295753235
1.8568	478792.96424970694
1.8592	302355.54487428884
1.8616	367433.13379931
1.864	419612.69793683285
1.86639	330065.3788911289
1.86878	223027.9621363037
1.87118	322265.8851425179
1.87356	412738.6381135016
1.87595	578301.3241913904
1.87833	1175781.6460034049
1.88071	1480845.741744211
1.88309	1207153.1934141642
1.88547	1044105.3191223064
1.88784	1243743.7209040127
1.89021	1295996.2350544245
1.89258	1480836.784241963
1.89494	1861670.680560579
1.89731	1590822.7875654437
1.89967	1017817.5376313427
1.90203	1005294.1640087598
1.90439	925564.1997063187
1.90674	1073903.4979286704
1.90909	1059360.719632681
1.91144	504774.2439638365
1.91379	439742.33954782836
1.91613	855591.8003757051
1.91848	994045.7907131466
1.92082	673124.3817710138
1.92315	559218.5429512892
1.92549	641507.4644099756
1.92782	640620.0656481667
1.93015	489476.3274305967
1.93248	363947.5699076959
1.93481	370816.01829921134
1.93713	351643.32605333504
1.93945	341539.2511217673
1.94177	619859.0522685291
1.94409	725398.5155780663
1.94641	595687.471277847
1.94872	534197.1206605
1.95103	667132.1282538944
1.95334	710322.6724187501
1.95564	594688.7337864838
1.95795	622377.0802571541
1.96025	560773.108502201
1.96255	513626.6884789747
1.96484	804201.0724591585
1.96714	1078991.121645352
1.96943	1042573.3175302331
1.97172	1038365.7528215472
1.97401	1019731.5810562127
1.97629	1048656.3334572357
1.97858	1131541.2670278556
1.98086	906769.4573356797
1.98314	685402.3784687194
1.98541	1003194.5714447922
1.98769	1433388.0490715385
1.98996	1296159.2281380603
1.99223	1142330.7773027993
1.9945	1484652.1165973167
1.99677	1788026.8430925338
1.99903	1795589.5553997487
2.00129	1730743.6447929763
2.00355	1606474.3006254893
2.00581	1653081.5166371926
2.00806	1829152.02734289
2.01031	1970307.9873103967
2.01256	2277862.8116230457
2.01481	2351438.8682472324
2.01706	2069351.8694693493
2.0193	2012932.4873616514
2.02154	2320144.9902881677
2.02378	2592115.4176056944
2.02602	2440936.1236086036
2.02825	2100733.0902479338
2.03049	2131979.5920949453
2.03272	2486455.9538193033
2.03494	2747807.3460180038
2.03717	2722361.4316047323
2.03939	2670656.84402548
2.04162	3102481.728609582
2.04384	3543059.049415098
2.04605	3674975.786432228
2.04827	3521385.498712112
2.05048	3442127.3995021214
2.05269	3509073.27012611
2.0549	3439379.725683727
2.05711	3494021.400809134
2.05931	3582887.282403821
2.06151	3777821.991952201
2.06371	4016805.1133896685
2.06591	4025907.064647632
2.06811	3976332.913658347
2.0703	4146262.66139706
2.07249	4411402.296945994
2.07468	4517404.78303693
2.07686	4558000.966774396
2.07905	4562157.647104361
2.08123	4461959.241438712
2.08341	4445206.33225501
2.08559	4513370.687596689
2.08776	4574679.066266981
2.08994	4614372.536132778
2.09211	4537398.272347846
2.09428	4471983.916515937
2.09645	4518040.161750965
2.09861	4485165.58572575
2.10077	4353039.531144165
2.10293	4355357.955982281
2.10509	4502174.153828406
2.10725	4551140.124244328
2.1094	4364408.149170967
2.11155	4067425.7296060086
2.1137	3987125.0909284092
2.11585	4071846.7823526254
2.11799	4162473.064938387
2.12013	4259295.747442296
2.12227	4239513.441036181
2.12441	4205998.627968679
2.12655	4182772.475220541
2.12868	4095690.028869579
2.13081	4019888.577904463
2.13294	3927332.1537239715
2.13507	3704215.1473570857
2.13719	3587569.580307077
2.13931	3766798.3314304748
2.14143	3863054.4253457664
2.14355	3649589.382677673
2.14567	3325174.445553186
2.14778	3004381.150575293
2.14989	2848851.6704751127
2.152	2873744.1641002484
2.1541	2816183.4255516343
2.15621	2699807.589128251
2.15831	2537157.658768895
2.16041	2147093.813199935
2.16251	1872524.2345036461
2.1646	1985821.628299815
2.1667	2215593.594312406
2.16879	2395073.7458455986
2.17087	2538303.9741437095
2.17296	2534581.8202283303
2.17504	2497626.047259775
2.17713	2520164.87027681
2.1792	2353688.4391574287
2.18128	1960796.6985541584
2.18336	1671614.9204705202
2.18543	1728444.2872101425
2.1875	1801259.622130659
2.18957	1629384.3398427307
2.19163	1429026.1780691566
2.1937	1304558.8555240585
2.19576	1125432.700862513
2.19782	816163.7949757817
2.19987	486624.6515164465
2.20193	336186.6604585599
2.20398	345796.7327750994
2.20603	386807.74936595745
2.20808	413485.60877173656
2.21012	404510.3452967226
2.21217	387987.7562092001
2.21421	470096.8698147595
2.21625	587950.81154904
2.21828	618202.0673174084
2.22032	595606.8138727131
2.22235	619147.0239703939
2.22438	659113.2742868887
2.22641	569470.094812185
2.22843	427309.5086231681
2.23046	335803.20201913646
2.23248	289254.19228027214
2.2345	262447.5642765786
2.23651	232346.6491594813
2.23853	233581.79437315566
2.24054	286377.00579126924
2.24255	343296.5801788962
2.24456	368319.767247919
2.24657	346427.44428383437
2.24857	296292.7178910405
2.25057	248310.0879609353
2.25257	199191.8990197115
2.25457	154921.48471519368
2.25656	147251.49716362078
2.25856	182627.43056511355
2.26055	210870.06448258186
2.26254	202038.5236269788
2.26453	187426.61297777577
2.26651	199717.28498245133
2.2685	210922.8947139399
2.27048	211341.8196151389
2.27246	241995.63116260993
2.27443	260498.86109220661
2.27641	260814.9380237896
2.27838	279034.0302671062
2.28036	280867.2397995454
2.28233	238659.81548082278
2.28429	197686.315559279
2.28626	168958.63599211944
2.28823	145381.77757349258
2.29019	127423.19186709795
2.29215	115585.8077115918
2.29411	119623.06789047919
2.29607	137851.23718706853
2.29802	164075.71813620368
2.29998	199074.0790942378
2.30193	259322.85162093057
2.30388	323574.3420632531
2.30583	363076.58487397665
2.30778	408828.49506390665
2.30972	515371.3025431874
2.31167	626490.886874031
2.31361	577949.0976603244
2.31555	376911.42150297697
2.31749	175564.96561705554
2.31943	106055.52766441816
2.32137	103161.81651744108
2.32331	105153.27422934028
2.32524	93279.23482946662
2.32718	74770.47549540734
2.32911	62296.501880729666
2.33104	61584.490565289074
2.33297	80369.67606856051
2.3349	120842.48819131979
2.33683	168643.70545940488
2.33876	192048.1912655961
2.34068	191506.9265035039
2.34261	184764.2501333235
2.34453	184195.9201873787
2.34646	198330.23268504752
2.34838	223497.42595963235
2.3503	230145.47797403182
2.35223	231922.36001261836
2.35415	223673.61500056833
2.35607	213461.56410305534
2.35799	259483.7663239296
2.35991	331489.59949551587
2.36183	374038.1627386102
2.36375	387558.8772609618
2.36566	398972.92780626315
2.36758	345724.04537047714
2.3695	256721.08324238678
2.37142	197989.17201757405
2.37334	193336.50071040663
2.37526	194361.10879368143
2.37718	186197.76597309136
2.3791	187994.61184959213
2.38101	198760.8920790347
2.38293	212059.34452246796
2.38485	225598.8644421939
2.38677	268632.42530829826
2.3887	328581.2529686783
2.39062	362604.21378815017
2.39254	371803.43210150546
2.39446	384119.45886580343
2.39639	394575.34960243816
2.39831	392567.2139760079
2.40024	435791.0681318954
2.40216	491635.22074146516
2.40409	524164.9209777939
2.40602	469227.45178062434
2.40795	409238.4696710041
2.40989	449129.7051633964
2.41182	570921.2252020679
2.41376	628860.5499883133
2.4157	625612.0217340812
2.41764	612902.0480756775
2.41958	621979.2697483666
2.42152	620708.0649329905
2.42347	599560.6644064687
2.42542	572869.2082822213
2.42737	609877.6633502363
