#wavelength	surface flux
0.676892	29652.29714976939
0.678297	31460.241744545674
0.679702	33201.08469372998
0.681109	34886.08876238597
0.682517	36425.749752847245
0.683926	37938.67617919029
0.685337	39344.154320852125
0.686749	40540.14578569856
0.688164	41548.807918435145
0.689581	42304.45007012541
0.691	42537.311854650296
0.692422	42055.078580499205
0.693847	42686.344651247906
0.695274	43025.66594004876
0.696705	43152.76493333489
0.698139	43340.19361698724
0.699576	42789.37461287869
0.701017	42093.15027797422
0.702461	41029.64470609565
0.70391	40468.78899112475
0.705362	39224.68201520602
0.706819	37982.83150441128
0.70828	36777.261476747866
0.709745	34988.82759253358
0.711216	33213.404170739705
0.71269	31607.59389874597
0.71417	29896.34161572683
0.715655	26769.961135272755
0.717145	23965.26299876097
0.71864	21551.774425149706
0.72014	20420.984753409084
0.721647	19309.072032597676
0.723158	18866.131730414483
0.724676	16912.268241659847
0.726199	15062.729297629665
0.727728	12771.009904444636
0.729264	12693.685256271774
0.730805	11240.235805701157
0.732353	10963.94293505864
0.733907	9944.665829297779
0.735468	8379.530930194242
0.737035	8227.266051397766
0.738609	7460.119976741514
0.74019	6779.535342179892
0.741777	6137.074052246935
0.743372	5626.086862655855
0.744973	5099.826730837619
0.746582	4607.131825909664
0.748197	4145.813475963519
0.74982	3814.2893181528534
0.751451	3469.188009546965
0.753088	3159.7461801036675
0.754734	2875.1142064386636
0.756386	2598.967752220245
0.758047	2322.820241940976
0.759715	2027.8387611244557
0.76139	1691.3869551794025
0.763074	1281.028468379345
0.764765	719.5762489157279
0.766464	226.1909239697428
0.768172	491.42196101545755
0.769887	340.47451483078396
0.77161	1065.932275938821
0.773341	1861.780432324737
0.775081	2501.656586126901
0.776829	3105.143058207583
0.778585	3489.6415309185777
0.780349	3492.6384172136254
0.782121	5013.819774045531
0.783902	5896.209386700552
0.785691	6835.03257831539
0.787489	7993.653078900107
0.789295	9312.522869256101
0.79111	10759.711003574566
0.792933	11449.446507174054
0.794764	8808.994631628788
0.796604	15285.72163742554
0.798453	19246.39928933278
0.80031	22661.59895650813
0.802176	26262.618990668205
0.804051	30750.01649743503
0.805934	35154.43369160329
0.807826	40375.20042506659
0.809727	45798.47281459964
0.811636	50966.554227507724
0.813554	55170.380025052495
0.81548	64308.75699027689
0.817416	75527.33862398092
0.81936	82863.92500246537
0.821313	97340.92474402241
0.823274	108020.3213922797
0.825244	117520.20497535681
0.827223	138080.68921051797
0.829211	147979.16497767522
0.831208	158975.12346527074
0.833213	187046.12341737145
0.835227	202616.40002028222
0.837249	203849.01479005962
0.83928	240631.71533491372
0.841321	270820.0120123419
0.843369	294679.487985032
0.845427	317022.9168836027
0.847493	361947.99999439967
0.849567	359045.8569774664
0.851651	267366.61619811365
0.853742	412540.3227151501
0.855843	491000.97885659704
0.857952	532491.8788758161
0.86007	574802.8019244561
0.862196	566055.3838194137
0.864331	608106.8508987087
0.866474	671399.5477178426
0.868626	725728.8786065779
0.870786	755527.7346682576
0.872955	813355.8100844073
0.875132	830044.187159356
0.877317	925977.6893556989
0.879511	965178.089350746
0.881713	821156.5568335695
0.883923	747213.8148033146
0.886142	813382.2315832288
0.888369	737168.7855736453
0.890604	812673.5120511168
0.892847	667438.3128189637
0.895099	566218.9051137076
0.897358	933775.8467952305
0.899626	1084325.6198996466
0.901901	1270707.865806215
0.904185	1587256.1366536927
0.906476	1736069.7675180626
0.908776	1465216.9994178878
0.911083	1719493.3027288408
0.913398	1598447.3684096623
0.915721	1878256.3220107737
0.918051	1821287.5683661355
0.92039	2008362.141027004
0.922736	1913309.6925114463
0.925089	1596126.201535457
0.927451	1069601.245018452
0.929819	619774.3641770268
0.932195	458251.9363289288
0.934579	434938.4905923738
0.93697	1355155.014372679
0.939369	1661717.7259380477
0.941774	1403589.9528587535
0.944187	1186236.36244171
0.946607	1572943.8796549854
0.949035	1836630.865237759
0.951469	951768.5741725301
0.953911	1246114.8947310892
0.956359	1093511.699486088
0.958814	1528334.5717398652
0.961277	923641.7874236213
0.963746	1157229.8350277185
0.966222	1585633.22634858
0.968705	1861815.3888452589
0.971194	2054105.4848831664
0.97369	1824572.469679085
0.976193	2440292.0818000026
0.978702	2248734.147158892
0.981217	2237854.894677019
0.983739	1724644.6310063258
0.986268	2357480.737103054
0.988802	2549438.1262140116
0.991343	2421252.4543785844
0.99389	3035427.7463409156
0.996444	3343505.042456536
0.999003	2515381.4167359397
1.00157	3277607.4733488597
1.00414	3799367.1334807086
1.00672	4396765.32351975
1.0093	4296847.523466057
1.01189	4716664.125114644
1.01448	5158175.279713056
1.01708	5537336.538007775
1.01969	5964548.089340833
1.0223	6085995.9127251
1.02492	6203867.647343204
1.02754	6658591.739065334
1.03017	7200876.494642426
1.0328	6951771.377348757
1.03544	7567619.348688742
1.03808	8497392.403577466
1.04073	8064986.951650938
1.04339	8518681.89705791
1.04604	8523893.187688436
1.04871	8885317.38595432
1.05138	9178639.892700192
1.05405	9969443.363796312
1.05673	9718492.37800494
1.05941	10469146.184819533
1.0621	10379721.861937894
1.06479	10506510.690145329
1.06749	10619738.402302433
1.07019	11286825.01955117
1.07289	11108068.082132144
1.0756	10989515.981526526
1.07832	10228075.379969995
1.08104	10890938.475694261
1.08376	10551713.558726238
1.08649	9662657.82318656
1.08922	7344582.350444721
1.09195	5920191.263318671
1.09469	4926263.0348042
1.09743	4069703.031557052
1.10018	3440000.288400585
1.10293	2542411.5417073793
1.10568	1828861.6937022987
1.10844	2194619.698102051
1.1112	1520649.9995484825
1.11396	1257447.7944462053
1.11673	847202.7045615315
1.1195	1212816.8326927982
1.12228	808268.4782153621
1.12505	1202424.7091048819
1.12783	1603061.9693191512
1.13062	1687816.568681797
1.13341	488886.79986693227
1.1362	669245.4374728586
1.13899	1362427.2084331564
1.14178	2088309.6424867827
1.14458	1373448.6269297784
1.14738	1222765.4113955812
1.15019	2127384.0281385053
1.153	1440981.5422193797
1.1558	1000897.9330632628
1.15862	1675258.5732846288
1.16143	830290.2471282412
1.16425	534984.9502769993
1.16707	1147589.675562251
1.16989	1398685.8109010549
1.17271	2084647.1172438827
1.17554	2292324.1358869136
1.17837	1532300.8730559042
1.1812	3658895.878665738
1.18403	4163143.051764008
1.18686	3452540.007211569
1.1897	4369152.468079051
1.19253	4797451.666062423
1.19537	5710854.4681265
1.19822	5368044.102702528
1.20106	5759234.042514068
1.2039	6802176.751828131
1.20675	8180555.331472582
1.2096	8953343.711992005
1.21245	8928164.017701594
1.2153	9479136.001331242
1.21815	9054131.571520453
1.221	9845366.459083183
1.22385	10834986.14920839
1.22671	11307041.184652671
1.22957	12886752.084559685
1.23242	12897349.953407513
1.23528	12517055.290866956
1.23814	13273577.757139124
1.241	14204906.723611638
1.24387	13179489.751930855
1.24673	15176334.025572507
1.24959	14284142.625883738
1.25245	11623990.566671586
1.25532	16182082.969913462
1.25818	16753370.057839764
1.26105	17129033.99029099
1.26392	13461858.362338712
1.26678	14987354.609231347
1.26965	12768884.288943231
1.27252	15451526.034451421
1.27538	16140489.385191295
1.27825	14577831.881323071
1.28112	14584622.082034009
1.28399	11007041.02472228
1.28686	10968667.192198006
1.28973	10652452.821280282
1.2926	10682664.99697138
1.29546	8785673.390356341
1.29833	8043665.245562532
1.3012	10486563.60374651
1.30407	10585447.289871344
1.30694	8579389.734013636
1.30981	9036446.63627924
1.31267	9078938.769068317
1.31554	6945440.101650042
1.31841	6517456.015609025
1.32128	8504879.816452736
1.32414	5508468.564196519
1.32701	3283898.574668008
1.32987	1927516.41492922
1.33274	1794460.8807142733
1.3356	1354589.6264573003
1.33847	331922.14704348653
1.34133	294019.96018396644
1.34419	358311.49348004395
1.34705	244991.08720926996
1.34991	363911.13771425356
1.35277	380490.0617138038
1.35563	143394.8554985428
1.35849	123111.19143437398
1.36135	162404.1032760372
1.3642	299238.78649911174
1.36706	245260.52049084043
1.36991	206159.06964762526
1.37277	251225.06310449046
1.37562	178847.4651096782
1.37847	139251.45625725065
1.38132	268032.36778539297
1.38417	100680.51894094807
1.38701	28477.49461547281
1.38986	196089.30629260268
1.39271	306191.7628433261
1.39555	136495.78559638566
1.39839	201521.91332415497
1.40123	299189.7962916472
1.40407	240697.15487879817
1.40691	183994.94687259023
1.40974	140150.4269146925
1.41258	327986.74944113457
1.41541	361478.83036052634
1.41824	150789.41123742049
1.42107	69353.79333254714
1.4239	85121.13385689353
1.42673	368276.4388489236
1.42955	541642.1461956096
1.43237	325743.7753091236
1.43519	615424.7104385749
1.43801	656566.8238494103
1.44083	523306.6185756182
1.44365	568075.5175326547
1.44646	505602.9239897326
1.44927	757198.5420726147
1.45208	1297372.2354751423
1.45489	1017234.3032553609
1.45769	1499851.7420138114
1.4605	1186644.6483186516
1.4633	842603.9738391892
1.4661	1397008.6816631278
1.4689	1258735.4330041436
1.47169	1057336.1692633505
1.47449	1017412.6912306343
1.47728	1075045.7364885004
1.48007	1033590.2358906004
1.48286	1107887.2108188944
1.48564	1135435.7835715532
1.48842	1406106.828731278
1.4912	1623252.0525447053
1.49398	997031.0296962912
1.49676	1379840.5403741852
1.49953	1752092.0172089972
1.5023	2602410.005176272
1.50507	3010916.9587967377
1.50784	2571613.65748508
1.51061	2858045.374496858
1.51337	3004566.515668304
1.51613	2061377.3156413753
1.51888	1709573.0116086463
1.52164	2512885.4205845403
1.52439	3254222.1809053095
1.52714	2633936.62874713
1.52989	2951254.488189137
1.53263	3666854.606208651
1.53538	4533416.597019321
1.53812	4007499.08828754
1.54086	2918952.56906606
1.54359	3112655.988494995
1.54632	4423745.876970934
1.54905	4571103.375803602
1.55178	4206489.459497143
1.5545	4278920.8930249
1.55723	5537158.053932836
1.55995	6185861.2780318195
1.56266	5095972.913439259
1.56538	7599599.468424181
1.56809	9264352.895614883
1.5708	8169394.222045991
1.57351	7841062.772460183
1.57621	7798612.485746998
1.57891	7578002.324251768
1.58161	9138268.246431004
1.5843	8520935.890403226
1.587	8324352.911159328
1.58969	7857141.381938686
1.59238	6897021.674341927
1.59506	8215568.767386293
1.59774	8763779.503392706
1.60042	7330108.035081443
1.6031	6044745.3770752
1.60577	5577831.189098351
1.60844	4619686.106877311
1.61111	4450315.665410097
1.61378	3898397.4091446735
1.61644	3867362.8505356326
1.6191	3401210.4854973126
1.62176	3989940.4110254454
1.62441	4391010.896189075
1.62707	4798848.034460696
1.62971	4902762.020616379
1.63236	4377963.336270847
1.635	5941241.329215935
1.63764	6666668.351095867
1.64028	4917741.008283549
1.64292	4303672.586109938
1.64555	3050872.201922723
1.64818	2574235.0219029505
1.65081	4763562.659626967
1.65343	5593947.888511412
1.65605	3490116.1096925708
1.65867	3083434.7184923324
1.66128	4916972.606818115
1.6639	3752761.0648752027
1.66651	892842.3098018095
1.66911	255390.95099715446
1.67172	1065362.3237814168
1.67432	2122890.3378806454
1.67692	3232410.153584238
1.67951	2588587.058220478
1.68211	1849511.0929944217
1.6847	1179408.8147558097
1.68728	980867.7499133622
1.68987	977064.5885956801
1.69245	816225.4677848597
1.69503	699426.3531879622
1.6976	738087.814713521
1.70018	801904.4829123915
1.70275	507906.11072756135
1.70531	579989.9936693001
1.70788	986745.4838041959
1.71044	1705494.2659190123
1.713	2700950.877313794
1.71556	2980230.7061180505
1.71811	2918594.300064879
1.72066	2047147.6691581812
1.72321	1146502.529023576
1.72575	1881647.731372831
1.7283	2531355.08381826
1.73084	2594247.369255282
1.73337	1590738.819711901
1.73591	1265662.5454368324
1.73844	1721044.02729461
1.74097	1643188.1895901684
1.74349	1777935.8275104451
1.74602	2355102.8924011583
1.74854	2843417.5103770616
1.75105	2973944.3704971243
1.75357	2281601.8862243663
1.75608	1255072.950104229
1.75859	946594.423333595
1.7611	862181.0217216456
1.7636	1119670.621908259
1.7661	1277803.3829705399
1.7686	1196855.8136339504
1.7711	1517522.950607321
1.77359	1126161.7096386075
1.77608	730195.4699652581
1.77857	1324653.782802479
1.78105	1839857.8957588172
1.78354	1279700.3403608988
1.78602	987028.2875987139
1.78849	1126068.9675800414
1.79097	964210.6679827652
1.79344	860193.2768619996
1.79591	1050401.1853493936
1.79837	1583650.1367725867
1.80084	1133316.913041512
1.8033	956834.8763980712
1.80576	964520.5484373982
1.80821	1023178.388237058
1.81067	1042478.9662634336
1.81312	1279627.0142240203
1.81557	1309438.0708046188
1.81801	709452.2056634527
1.82046	612901.6899378061
1.8229	918782.0431678506
1.82533	793739.3035836988
1.82777	657581.8787788954
1.8302	749866.8228603433
1.83263	705529.1529477271
1.83506	561033.7227133668
1.83749	555446.7165195443
1.83991	705407.9744725914
1.84233	966268.627330641
1.84475	1294142.3416991099
1.84716	986508.9742218906
1.84957	946647.9808841939
1.85198	1161893.292468245
1.85439	951604.7797166186
1.8568	578389.8809883259
1.8592	358870.0619673277
1.8616	474950.12008720386
1.864	536983.5495369169
1.86639	381345.7204041464
1.86878	301057.91350442194
1.87118	521528.6548448767
1.87356	595591.8656841413
1.87595	693619.9267871126
1.87833	1400887.7688771666
1.88071	1768384.104484142
1.88309	1370805.3819232092
1.88547	1256418.6317058252
1.88784	1559718.194213094
1.89021	1676958.4847841552
1.89258	1907994.1301392878
1.89494	2438273.037934994
1.89731	2119520.3814732903
1.89967	1312477.2982207958
1.90203	1254713.640028863
1.90439	1277145.2714344687
1.90674	1547506.903683965
1.90909	1456898.445911841
1.91144	676119.7017853186
1.91379	629592.1863920011
1.91613	1222923.4192227197
1.91848	1456193.338938093
1.92082	1018907.0368778465
1.92315	853984.0910198747
1.92549	990868.6258313849
1.92782	988032.5264898617
1.93015	718954.390684783
1.93248	431050.90528520424
1.93481	355288.8392074519
1.93713	356140.84770035476
1.93945	408422.6845163305
1.94177	814379.3192961675
1.94409	1015811.102223062
1.94641	965925.8951543205
1.94872	960190.2179371062
1.95103	1145601.441656273
1.95334	1166953.8566404642
1.95564	914143.2277480861
1.95795	873952.9819398192
1.96025	715397.5360371475
1.96255	641899.3855863787
1.96484	1057932.6867779668
1.96714	1423927.5728287913
1.96943	1363843.7970969782
1.97172	1436760.2540356081
1.97401	1417570.7565559994
1.97629	1300199.761934137
1.97858	1366712.9752978818
1.98086	1168881.4799445595
1.98314	862952.9986913218
1.98541	1158577.5760986244
1.98769	1795831.6451452149
1.98996	1817774.0715401042
1.99223	1637883.6970248616
1.9945	1968513.8502759833
1.99677	2233524.2750872006
1.99903	2195724.3744021603
2.00129	2088975.9286881066
2.00355	1947514.7935667667
2.00581	2036623.8542132045
2.00806	2306877.079085926
2.01031	2520342.3937389227
2.01256	2955823.441297167
2.01481	3153683.2117730924
2.01706	2790074.4594823318
2.0193	2642730.750674934
2.02154	2957241.2774640354
2.02378	3211498.4991077436
2.02602	3009419.6046757405
2.02825	2742586.2097689896
2.03049	2858895.108622327
2.03272	3281482.7073195153
2.03494	3554707.3697393597
2.03717	3428981.511969238
2.03939	3326237.4506111955
2.04162	4055134.6610719175
2.04384	4823759.7026972985
2.04605	4912561.674954083
2.04827	4475109.558735277
2.05048	4365938.801969093
2.05269	4431210.530448264
2.0549	4017798.044741816
2.05711	4111494.139622109
2.05931	4331270.824428971
2.06151	4525190.806176577
2.06371	4735305.272267937
2.06591	4573474.796708674
2.06811	4618695.82061753
2.0703	5105218.465717269
2.07249	5651833.9373499835
2.07468	5861933.3043774525
2.07686	5731501.099175951
2.07905	5565820.6844863985
2.08123	5409298.160016473
2.08341	5353841.242498021
2.08559	5387001.974301074
2.08776	5564279.968046017
2.08994	5722478.129476635
2.09211	5606828.11483582
2.09428	5636883.554552692
2.09645	5824337.440581579
2.09861	5604340.038761291
2.10077	5183842.465147995
2.10293	5102770.437007731
2.10509	5314548.664525022
2.10725	5359333.591668256
2.1094	4840438.508268983
2.11155	4103587.8481585975
2.1137	3970767.736662928
2.11585	4166487.389346387
2.11799	4454053.499481378
2.12013	4846657.152959556
2.12227	4908434.859663302
2.12441	4854082.412437081
2.12655	4775628.666921959
2.12868	4580824.191288452
2.13081	4476429.187166761
2.13294	4304591.005505857
2.13507	3813228.4011843344
2.13719	3481999.235418337
2.13931	3792662.0532225333
2.14143	4066140.027858239
2.14355	3742738.106508489
2.14567	3265764.275081942
2.14778	2785009.419283363
2.14989	2513115.8389750044
2.152	2638184.0669156467
2.1541	2715101.0219473885
2.15621	2609379.6493513836
2.15831	2336651.0981131303
2.16041	1782452.5193933663
2.16251	1456052.043027745
2.1646	1570374.017780624
2.1667	1734665.5798079758
2.16879	1936214.944986775
2.17087	2240450.8487760294
2.17296	2339653.0155288056
2.17504	2350749.910262289
2.17713	2452570.10731635
2.1792	2345290.5484484965
2.18128	1941426.0641822813
2.18336	1475330.4486859033
2.18543	1286744.9285552893
2.1875	1254596.2783122333
2.18957	1116587.5853565102
2.19163	1010148.443948909
2.1937	1040540.6263171734
2.19576	936149.034353928
2.19782	607050.0216561715
2.19987	297291.2273296637
2.20193	187654.03497094687
2.20398	202855.13847949638
2.20603	218857.10332634544
2.20808	234000.07922724378
2.21012	245766.29703365834
2.21217	260820.61562831062
2.21421	334808.42686250614
2.21625	404654.4398819389
2.21828	401903.5872623392
2.22032	396072.0445180618
2.22235	424186.3678189114
2.22438	447807.4779862529
2.22641	417313.36608155916
2.22843	399591.70865765633
2.23046	356195.8570771891
2.23248	244590.96597668363
2.2345	151159.0217679772
2.23651	112548.92712676975
2.23853	118603.2892717763
2.24054	168393.55275172976
2.24255	230374.37058876955
2.24456	274717.06726202177
2.24657	287120.05565438763
2.24857	264692.1923878132
2.25057	213925.31240163677
2.25257	149426.77939377932
2.25457	102470.94975221157
2.25656	91493.3535454037
2.25856	99913.02099457083
2.26055	101228.88193541237
2.26254	92869.37536654058
2.26453	99760.63445121325
2.26651	123672.02552449745
2.2685	130752.9527488414
2.27048	122486.92361558822
2.27246	132114.27127905673
2.27443	136394.52742346772
2.27641	137997.03198049922
2.27838	157519.41448346357
2.28036	167489.44597874326
2.28233	150950.91099659592
2.28429	126551.90600358929
2.28626	103749.79724001081
2.28823	80328.55505246912
2.29019	58189.96464593114
2.29215	44279.77263107379
2.29411	48231.92653559033
2.29607	65552.41384482286
2.29802	89174.82413302084
2.29998	124371.18097275331
2.30193	178080.16349250448
2.30388	226313.3263446063
2.30583	247131.20417910544
2.30778	269680.885777774
2.30972	327523.97710171354
2.31167	398465.1934633924
2.31361	376763.10946823034
2.31555	255484.5655373817
2.31749	118344.05286972833
2.31943	64388.797415386434
2.32137	53618.34982536015
2.32331	50011.21928578936
2.32524	44598.54684172937
2.32718	39092.935240585924
2.32911	33905.73547160501
2.33104	31272.091577372943
2.33297	40356.79477487628
2.3349	70049.53185824433
2.33683	110055.62025238262
2.33876	128199.98404818363
2.34068	124282.0567732035
2.34261	114897.94944761656
2.34453	114425.25529428794
2.34646	131491.83804570007
2.34838	162469.31039965188
2.3503	176592.61095078496
2.35223	178132.03909788007
2.35415	165253.63474601126
2.35607	144949.83552336897
2.35799	155320.12001233047
2.35991	193274.75998930578
2.36183	232317.06968818343
2.36375	254607.22446218657
2.36566	256629.3117821052
2.36758	217243.67151280137
2.3695	174682.76655158628
2.37142	159552.88842609397
2.37334	163634.77855298202
2.37526	146767.9882758146
2.37718	118532.77917687081
2.3791	101763.53400546519
2.38101	98941.31817663454
2.38293	108762.06754944395
2.38485	133098.00141755387
2.38677	179400.69155369126
2.3887	217116.88801396915
2.39062	214746.09800603375
2.39254	202260.26132790907
2.39446	216188.9332745068
2.39639	241842.32178462078
2.39831	259762.23560810462
2.40024	298724.82135739323
2.40216	345752.97364929516
2.40409	393112.2958725246
2.40602	373978.8857063799
2.40795	317063.01940925146
2.40989	303577.4482774342
2.41182	358673.08029355685
2.41376	411000.7213322653
2.4157	473031.0900919365
2.41764	507394.3987834479
2.41958	488672.4245774268
2.42152	426299.58832557866
2.42347	386922.6544253345
2.42542	405539.4460242283
