#wavelength	surface flux
0.676892	414187.9164825633
0.678297	440866.49074663944
0.679702	466920.16952649504
0.681109	491381.9631338824
0.682517	512823.6203746063
0.683926	534534.1390680482
0.685337	553289.6353472879
0.686749	569211.5089577868
0.688164	583210.0421944038
0.689581	592646.5156614536
0.691	583816.0346704994
0.692422	593835.3126309171
0.693847	584703.3107078994
0.695274	606646.1187144136
0.696705	608754.6502021968
0.698139	609820.2269183723
0.699576	605318.7567305396
0.701017	595800.4132709013
0.702461	587880.7437159067
0.70391	578314.6917974392
0.705362	559030.2742572312
0.706819	543010.64874295
0.70828	527761.8580557685
0.709745	503557.5899270285
0.711216	484664.9276153933
0.71269	463506.77608215506
0.71417	441640.5757050449
0.715655	408197.5573653311
0.717145	377932.365734577
0.71864	347773.4007871765
0.72014	332462.57044941303
0.721647	314088.09397035284
0.723158	303659.21692852024
0.724676	277950.6894007709
0.726199	253055.65280962468
0.727728	219736.00612043697
0.729264	214796.0508036869
0.730805	192926.15406052832
0.732353	182385.87518921308
0.733907	164463.1050516054
0.735468	140763.95550024672
0.737035	132938.09332630504
0.738609	118790.67987504823
0.74019	105427.45995701032
0.741777	92520.79948539009
0.743372	80926.4749063709
0.744973	69652.30857503392
0.746582	59077.03564340063
0.748197	49339.57452891537
0.74982	41272.402324063536
0.751451	33683.284956229014
0.753088	27093.489771408425
0.754734	21427.49324255419
0.756386	16601.643339961785
0.758047	12569.827666599047
0.759715	9245.940400518672
0.76139	6510.819070959172
0.763074	4221.125864013361
0.764765	2077.7524938608476
0.766464	583.6650470682692
0.768172	1314.2524854301782
0.769887	899.0475076065946
0.77161	3209.3794010775437
0.773341	6511.567821444042
0.775081	10296.500038657568
0.776829	15035.509510737136
0.778585	18744.464635513326
0.780349	19790.491458733006
0.782121	37149.84379956385
0.783902	49992.806506622015
0.785691	64389.312617175376
0.787489	81879.50140471882
0.789295	102073.58495154539
0.79111	124192.14425633187
0.792933	133941.64693906432
0.794764	90529.41708407982
0.796604	191917.88696849608
0.798453	251247.78248469927
0.80031	299172.94656772
0.802176	349164.9213650741
0.804051	406261.91851785633
0.805934	465021.52067199105
0.807826	530566.3313926079
0.809727	598980.9185230595
0.811636	669244.0632724323
0.813554	738256.4635652894
0.81548	835016.1648198825
0.817416	933674.6633759197
0.81936	935408.0827109573
0.821313	1172597.9656361565
0.823274	1320922.9009584235
0.825244	1427165.0878420349
0.827223	1617423.0510226467
0.829211	1721757.0160170046
0.831208	1857785.491197384
0.833213	2139678.151384454
0.835227	2296027.8397044037
0.837249	2336493.773917766
0.83928	2675428.949060202
0.841321	2974803.6726422445
0.843369	3195959.1906537744
0.845427	3403045.894764436
0.847493	3788607.6498885876
0.849567	3724789.276894797
0.851651	2594322.666513737
0.853742	4105926.6052660057
0.855843	4987213.450586694
0.857952	5383938.649578647
0.86007	5666754.52428405
0.862196	4285742.846243379
0.864331	4633131.819701983
0.866474	5260396.330828905
0.868626	5438680.40642857
0.870786	5353998.965411182
0.872955	5686098.115517976
0.875132	5292781.250107129
0.877317	7372683.358426288
0.879511	7740302.927562093
0.881713	6963163.352146013
0.883923	7399745.518556808
0.886142	8419387.533351729
0.888369	7861354.992543503
0.890604	9088495.669953544
0.892847	7238678.972680299
0.895099	6279941.609956517
0.897358	9937060.755444039
0.899626	11538327.075006714
0.901901	12779134.347237563
0.904185	15451556.27666603
0.906476	14881438.519773
0.908776	12548006.268164095
0.911083	14703580.057199348
0.913398	15444795.530095339
0.915721	18222559.682912838
0.918051	18684862.73810637
0.92039	20899335.127939153
0.922736	19772462.83563408
0.925089	18084802.594277248
0.927451	14422978.493973734
0.929819	10116114.256434126
0.932195	7611577.285821824
0.934579	7413687.732813248
0.93697	17042827.027983297
0.939369	19399778.457208324
0.941774	17055690.48506003
0.944187	14989602.534421971
0.946607	20119016.208764803
0.949035	21931387.994926505
0.951469	13916615.896879349
0.953911	17353949.395360727
0.956359	14643810.608611654
0.958814	20167714.459611375
0.961277	14598868.262778245
0.963746	13961217.143781051
0.966222	20340891.136577703
0.968705	21947362.43101739
0.971194	24742371.51935073
0.97369	22367629.829268165
0.976193	28959026.149956755
0.978702	27044297.805627275
0.981217	28518006.27116928
0.983739	22738902.286849484
0.986268	29367560.40213149
0.988802	31909475.39029988
0.991343	26520274.022011932
0.99389	32441171.231051087
0.996444	34104251.18353072
0.999003	19078083.38670385
1.00157	20627283.70746528
1.00414	23680222.882155955
1.00672	25357112.416332554
1.0093	24882258.17535292
1.01189	27137656.9667202
1.01448	33620503.23486011
1.01708	34388395.33748708
1.01969	41926264.73121809
1.0223	42309946.389840655
1.02492	42521036.363662414
1.02754	42783729.03743812
1.03017	52806659.51170502
1.0328	51315434.82177365
1.03544	53362453.64885933
1.03808	65454309.700349994
1.04073	62572879.00701153
1.04339	63807746.13886225
1.04604	59381106.838752724
1.04871	60700862.23365898
1.05138	62921243.70512124
1.05405	69167055.10314162
1.05673	64377599.90776522
1.05941	75108254.1937841
1.0621	70591285.84689331
1.06479	76351296.8144551
1.06749	79410705.96399416
1.07019	88690505.59740756
1.07289	85306505.28312138
1.0756	87003234.85405709
1.07832	86049149.44819002
1.08104	88334078.52068466
1.08376	87518556.49926351
1.08649	79871224.52196681
1.08922	65765966.657376096
1.09195	54385063.49648332
1.09469	49002835.94803919
1.09743	38138915.84067597
1.10018	36168562.70678956
1.10293	29165577.46066782
1.10568	21792608.639796786
1.10844	26697485.307404913
1.1112	21034391.080043584
1.11396	17638293.86654258
1.11673	12032483.107521515
1.1195	18331853.005348936
1.12228	14531180.202593492
1.12505	17197027.72386324
1.12783	24196666.39289857
1.13062	22176656.506962907
1.13341	8217795.721222699
1.1362	10822774.10283718
1.13899	14426459.961593978
1.14178	23080577.922415894
1.14458	18177606.295727056
1.14738	19187965.826295726
1.15019	29536455.8593342
1.153	22045889.828457013
1.1558	15580521.472616933
1.15862	25522095.86444969
1.16143	15358576.36390875
1.16425	9738937.607636377
1.16707	15471552.647088854
1.16989	15874737.92206716
1.17271	24184028.68881796
1.17554	21014482.504760988
1.17837	13632845.671108639
1.1812	31128523.37906626
1.18403	35625729.159783244
1.18686	31190516.299927834
1.1897	35140975.273232184
1.19253	40747076.16093392
1.19537	48176068.98592016
1.19822	41256252.700595625
1.20106	43972002.75084811
1.2039	50408260.254778475
1.20675	59210388.08723242
1.2096	69368254.85156539
1.21245	71688874.88771605
1.2153	73224509.99766193
1.21815	74000021.97049008
1.221	77370489.76609027
1.22385	84682877.86162463
1.22671	87020119.37425236
1.22957	95395608.62256852
1.23242	98175276.92284454
1.23528	91185693.5422932
1.23814	96830852.4139154
1.241	97768709.92180209
1.24387	80853424.55049491
1.24673	107591266.0505637
1.24959	94213822.9696468
1.25245	60958745.44837722
1.25532	106795370.3764953
1.25818	117812220.91051759
1.26105	126350284.502383
1.26392	97650454.49136457
1.26678	113905165.6263979
1.26965	96866648.62072773
1.27252	119427265.37475753
1.27538	124873404.44596839
1.27825	114601625.56825405
1.28112	118598884.17340647
1.28399	92508791.8211041
1.28686	97115408.16214915
1.28973	92140706.81199339
1.2926	98043189.72895719
1.29546	83255804.57911327
1.29833	72763842.66128914
1.3012	95723184.66352433
1.30407	98605678.6005426
1.30694	76353237.19221488
1.30981	79746423.63786526
1.31267	86287110.87205584
1.31554	66705472.59946866
1.31841	62111681.749636464
1.32128	70316130.05328558
1.32414	48442172.91683377
1.32701	28119112.873452093
1.32987	20538167.10163436
1.33274	15561780.930365473
1.3356	11621423.05308336
1.33847	3425638.5681454143
1.34133	2940977.5039660847
1.34419	3391527.5572886094
1.34705	2825714.5176230334
1.34991	4043939.160328424
1.35277	4512756.744068207
1.35563	1847032.6557385195
1.35849	1949337.7777348715
1.36135	2535770.707066099
1.3642	3920202.190259199
1.36706	3350888.596297532
1.36991	2766384.6731001856
1.37277	3405231.63020713
1.37562	2011066.2109203478
1.37847	1507800.7155558174
1.38132	3476054.4715607916
1.38417	1560249.93050845
1.38701	396260.6197650948
1.38986	2096768.9850026364
1.39271	2864563.6274660514
1.39555	1824994.084892798
1.39839	3069002.1067782505
1.40123	4648110.193283303
1.40407	4048082.123280017
1.40691	2651851.469562675
1.40974	1916238.086862006
1.41258	3585458.350614364
1.41541	3542636.0236970996
1.41824	1577577.0980227976
1.42107	856099.8372252978
1.4239	992439.6418618446
1.42673	3724830.292506689
1.42955	4943784.842860833
1.43237	2913713.304911095
1.43519	5214119.446879085
1.43801	5998580.875804251
1.44083	4495396.524550347
1.44365	4957253.658456275
1.44646	4411906.852604276
1.44927	5784906.569774827
1.45208	9031427.764191417
1.45489	7706746.305829677
1.45769	11667923.907524372
1.4605	10008204.87651786
1.4633	5888140.812745655
1.4661	8893745.236141473
1.4689	8517827.2429265
1.47169	7737640.07682522
1.47449	8513792.02397097
1.47728	9008703.325212814
1.48007	9042576.62029155
1.48286	9392393.367518786
1.48564	8836015.635848982
1.48842	10166150.3706962
1.4912	12941304.959492937
1.49398	9023754.554990666
1.49676	12173166.888106758
1.49953	13431456.656239705
1.5023	19802481.01825462
1.50507	22833581.440105483
1.50784	18047797.376227424
1.51061	20145015.99354973
1.51337	22539513.62376754
1.51613	16729536.726200886
1.51888	14028478.875091536
1.52164	17677664.378598154
1.52439	23283085.793013543
1.52714	17538100.931662604
1.52989	19043232.099347565
1.53263	24333630.13727793
1.53538	29070445.021517362
1.53812	23711090.0911146
1.54086	20730460.797247265
1.54359	17645691.178263143
1.54632	25336907.88064252
1.54905	28137760.327100504
1.55178	27836545.982246794
1.5545	25922581.48204233
1.55723	29460752.547936253
1.55995	33241824.733874433
1.56266	31490427.795358494
1.56538	37685052.869923264
1.56809	44764136.844598375
1.5708	40173855.47393372
1.57351	42920576.7270831
1.57621	41383115.06022963
1.57891	39370039.58385598
1.58161	46193228.94185354
1.5843	44852272.81741657
1.587	45791889.24426391
1.58969	43907890.71562049
1.59238	38803557.190055236
1.59506	46082080.64341644
1.59774	49447802.95009939
1.60042	42628540.18912384
1.6031	39117222.5125419
1.60577	36740714.47413365
1.60844	31831900.7180636
1.61111	36142725.89430417
1.61378	35758866.570524305
1.61644	34395290.19510251
1.6191	31361502.90936497
1.62176	34288629.71033183
1.62441	35585722.88811898
1.62707	38854467.32182224
1.62971	37903928.641317375
1.63236	39087856.417085655
1.635	47777405.055791795
1.63764	51052959.05309697
1.64028	36243710.44054025
1.64292	35036561.455453955
1.64555	30270768.10086061
1.64818	30011244.425746832
1.65081	40730410.824141115
1.65343	41959468.23611122
1.65605	32429029.506043155
1.65867	30768377.97661286
1.66128	42674426.016807996
1.6639	33820401.52485117
1.66651	10024815.400566317
1.66911	3839591.4516801354
1.67172	12784999.213226672
1.67432	22529626.784992594
1.67692	30124293.855762936
1.67951	27031463.47563453
1.68211	22922874.2604695
1.6847	15683319.753706586
1.68728	15163570.722077098
1.68987	15273431.196117792
1.69245	13161098.203879064
1.69503	11349490.651600262
1.6976	12165840.644217802
1.70018	13416977.217401488
1.70275	9291043.416631652
1.70531	8477882.805235222
1.70788	12714361.712862628
1.71044	17834572.719336893
1.713	22860430.6141413
1.71556	24565347.69859839
1.71811	24748900.973264456
1.72066	18432706.175221175
1.72321	10793457.206614217
1.72575	14980117.941685626
1.7283	20517539.67610893
1.73084	20928555.90059358
1.73337	13803042.427284418
1.73591	11698500.193698507
1.73844	13992073.62805807
1.74097	12532147.328233628
1.74349	12455167.488491694
1.74602	15815844.2625042
1.74854	19774057.07837083
1.75105	19853759.415937107
1.75357	14852926.540589703
1.75608	9715120.142508514
1.75859	8097692.776143976
1.7611	7689727.660663148
1.7636	9819727.680254579
1.7661	9751864.42947464
1.7686	8810558.928035486
1.7711	10759623.921431081
1.77359	7933605.332116509
1.77608	5276668.231381868
1.77857	8826403.990765035
1.78105	11291518.506209048
1.78354	8199169.3677098015
1.78602	6979550.591592991
1.78849	8119338.950604907
1.79097	7110971.98879733
1.79344	6595244.507651176
1.79591	7755321.798982296
1.79837	10641222.788935153
1.80084	7658320.43627689
1.8033	6914193.972853774
1.80576	6963266.385471617
1.80821	7267213.926566007
1.81067	7266058.541205773
1.81312	8108890.819538353
1.81557	8562596.797323009
1.81801	5077394.2892465815
1.82046	4656386.557018667
1.8229	6506196.041406226
1.82533	5593691.0417659115
1.82777	5216342.139123077
1.8302	6024595.381010636
1.83263	5556503.572742028
1.83506	4766589.134134132
1.83749	5112309.022760355
1.83991	5923960.246075739
1.84233	6965989.142011607
1.84475	8037359.978707423
1.84716	6620894.903279219
1.84957	6079459.890285643
1.85198	6060550.551491468
1.85439	5333965.204135361
1.8568	3957960.2377680014
1.8592	2715076.105550565
1.8616	3349030.8219101653
1.864	3733455.1104331235
1.86639	3045933.996733117
1.86878	2982354.6524728993
1.87118	4862258.897079258
1.87356	5215778.00473928
1.87595	4986016.464674273
1.87833	7869136.033098088
1.88071	10127338.60572589
1.88309	8331934.188395434
1.88547	7603381.739917849
1.88784	9177632.910647536
1.89021	9982640.830297029
1.89258	11183322.346158018
1.89494	13271386.879475275
1.89731	11722474.165819563
1.89967	8259770.831718886
1.90203	7932847.854158629
1.90439	8422077.43318708
1.90674	10539524.843355631
1.90909	11069276.819118232
1.91144	7004544.4506415995
1.91379	6827485.949532169
1.91613	10302013.600033572
1.91848	11336475.923870903
1.92082	8903766.029724607
1.92315	7600172.663279424
1.92549	8361958.092810058
1.92782	8625309.486802084
1.93015	6726857.370828271
1.93248	4920641.26324602
1.93481	4037844.988328235
1.93713	3023406.000516858
1.93945	3064241.4619799135
1.94177	5634124.038204494
1.94409	7408669.4045535745
1.94641	7553352.070434748
1.94872	8152293.155474485
1.95103	10087032.943225166
1.95334	9549351.56114894
1.95564	6839441.505840431
1.95795	6071533.62635003
1.96025	4991296.219356236
1.96255	4610176.718293967
1.96484	6885142.577341273
1.96714	8448040.39271246
1.96943	7770734.966788674
1.97172	8436327.346502429
1.97401	8793386.334020019
1.97629	8434853.963638283
1.97858	9117167.616744535
1.98086	8263961.559998069
1.98314	6295675.963676184
1.98541	6976371.414081118
1.98769	9989572.437308216
1.98996	10415861.971489288
1.99223	9376477.66804632
1.9945	10348194.53236693
1.99677	10825004.753304198
1.99903	10094056.946342645
2.00129	9710654.563203946
2.00355	10363084.409207443
2.00581	11570877.385667767
2.00806	11831918.712748935
2.01031	12756400.651233
2.01256	16334784.807561656
2.01481	17676513.22509056
2.01706	14804783.63748885
2.0193	14214471.439992666
2.02154	16452195.235890036
2.02378	16494191.846229706
2.02602	14065676.566635367
2.02825	13368104.401648004
2.03049	14794261.214744017
2.03272	17529129.551245995
2.03494	18381300.145845678
2.03717	17326718.02246168
2.03939	17006532.487258546
2.04162	19066745.836739704
2.04384	21813739.971089333
2.04605	21957548.589318298
2.04827	20246945.603300687
2.05048	20463505.866268296
2.05269	20224835.84309913
2.0549	17914938.247640494
2.05711	19253900.32568082
2.05931	20993943.50595535
2.06151	20563756.40780822
2.06371	19942681.404781926
2.06591	19124348.691672005
2.06811	20234695.364753257
2.0703	22359129.995093748
2.07249	23750361.272451192
2.07468	23898187.01773178
2.07686	22803792.04931698
2.07905	22760798.91782641
2.08123	24012968.52261653
2.08341	24376831.841371845
2.08559	23345933.86294702
2.08776	23543378.64939303
2.08994	24701424.464224473
2.09211	24942250.35605503
2.09428	25812296.160388984
2.09645	26883302.37160028
2.09861	25811924.351729263
2.10077	23785299.36637408
2.10293	23058116.2294048
2.10509	23619568.062742323
2.10725	23673432.718948886
2.1094	21373628.043966237
2.11155	18106013.8084269
2.1137	17608731.00589076
2.11585	18366284.88762457
2.11799	19395188.317698557
2.12013	21304021.23315717
2.12227	22037899.54226242
2.12441	22221286.94532814
2.12655	22095294.831001285
2.12868	20945458.899829235
2.13081	20500173.501127396
2.13294	20346468.93950088
2.13507	18334183.625002757
2.13719	16656722.375404516
2.13931	17652792.78517483
2.14143	18776478.336476956
2.14355	18146568.744420964
2.14567	16984842.559866797
2.14778	14835916.933817837
2.14989	13051745.050383048
2.152	13265439.180137942
2.1541	13622120.498547543
2.15621	13460613.70369069
2.15831	12803256.4653099
2.16041	11282255.330588436
2.16251	10759606.025352424
2.1646	11024326.207298841
2.1667	10862129.193865579
2.16879	11432509.509449627
2.17087	12613944.100590022
2.17296	12618960.377469925
2.17504	12175972.573001942
2.17713	12245064.1158703
2.1792	11704975.813831763
2.18128	9899154.350443343
2.18336	7519432.94190515
2.18543	6326075.051548939
2.1875	6135209.001213646
2.18957	5830571.401114819
2.19163	5925383.366950416
2.1937	6584272.100412236
2.19576	6074067.529817844
2.19782	4110832.3762815236
2.19987	2296739.5328719127
2.20193	1600214.9388397106
2.20398	1573298.7911701933
2.20603	1527281.3259439762
2.20808	1524587.0137330678
2.21012	1635698.363968385
2.21217	1817178.823290298
2.21421	2251508.659805252
2.21625	2664798.5323952134
2.21828	2755336.750084463
2.22032	2898200.4892193335
2.22235	3075281.91188319
2.22438	3015511.2250248482
2.22641	2715187.3445918723
2.22843	2687192.956184643
2.23046	2537481.8513588905
2.23248	1910084.0486466235
2.2345	1383518.9145717612
2.23651	1182992.5680952393
2.23853	1205619.1167836257
2.24054	1465364.6094491314
2.24255	1852111.3200131718
2.24456	2195672.026787588
2.24657	2361711.0965681872
2.24857	2322643.8640063372
2.25057	2085713.2435089517
2.25257	1744637.3320911573
2.25457	1429409.6308745032
2.25656	1250739.4385143234
2.25856	1182728.766933818
2.26055	1147438.190200108
2.26254	977601.148117285
2.26453	838683.371340165
2.26651	881183.4983308997
2.2685	979885.6456129897
2.27048	1028005.8455269937
2.27246	1063371.7869821552
2.27443	1037869.5383890616
2.27641	1054263.81906932
2.27838	1153466.0093554175
2.28036	1157913.156700946
2.28233	1061303.544080203
2.28429	948575.3648514563
2.28626	853464.5220229697
2.28823	772224.6796469722
2.29019	674488.1453030333
2.29215	570806.57482552
2.29411	545645.9582854115
2.29607	614003.387826868
2.29802	769150.6149785926
2.29998	997171.3345942217
2.30193	1298595.08968161
2.30388	1553650.8657708438
2.30583	1683328.644016982
2.30778	1838527.4224439529
2.30972	2069791.2616552422
2.31167	2255301.3437005924
2.31361	2025250.0871473209
2.31555	1455933.7995197442
2.31749	891667.9349187949
2.31943	694278.9343711192
2.32137	613329.4296568263
2.32331	511449.04581157584
2.32524	425942.0045999163
2.32718	367904.4360753907
2.32911	347163.38273874344
2.33104	372112.95473624323
2.33297	435061.436966379
2.3349	557131.2445585902
2.33683	753800.0857975001
2.33876	888994.7269502195
2.34068	934488.2364271638
2.34261	956131.922189923
2.34453	1032211.7994538909
2.34646	1158818.646531143
2.34838	1263568.6399489779
2.3503	1239901.459339591
2.35223	1195064.3540526882
2.35415	1117731.8127642507
2.35607	972364.5107678997
2.35799	958717.108889108
2.35991	1143545.5500220351
2.36183	1396985.7861014646
2.36375	1580867.8632759082
2.36566	1664476.9670608547
2.36758	1597045.706738708
2.3695	1486069.8516791766
2.37142	1427337.494138845
2.37334	1347582.3385457632
2.37526	1112187.8951224308
2.37718	845114.6640385151
2.3791	702197.303513289
2.38101	653659.1046898388
2.38293	670448.6357371362
2.38485	811467.3081845919
2.38677	1106537.7214281552
2.3887	1324345.856127701
2.39062	1279348.0438249751
2.39254	1206954.8090443392
2.39446	1364894.0094664495
2.39639	1586039.2555979954
2.39831	1662283.7033802902
2.40024	1715730.3724371018
2.40216	1864622.2428263593
2.40409	2140326.707377827
2.40602	2199551.6943137283
2.40795	2047731.9085225193
2.40989	2031829.2638017952
2.41182	2230382.857335665
2.41376	2356743.3197119376
2.4157	2547085.540642916
2.41764	2638327.7870215974
2.41958	2527868.052379426
2.42152	2272394.7216130453
2.42347	2174433.8026505364
2.42542	2289667.2591868956
2.42737	2784785.0068937233
