#wavelength	surface flux
0.676892	1355372.7915571074
0.678297	1434984.1427281084
0.679702	1516008.2536713206
0.681109	1593896.0991745233
0.682517	1655294.6150277604
0.683926	1729336.6681602527
0.685337	1779731.136855847
0.686749	1826934.5931558674
0.688164	1871816.4508801613
0.689581	1911702.3477396236
0.691	1887427.0388760462
0.692422	1923714.2023580987
0.693847	1871098.2074083285
0.695274	1974859.7642369654
0.696705	1993168.5118623646
0.698139	1985970.3546149791
0.699576	1978012.644262821
0.701017	1955239.728234548
0.702461	1939179.3457640638
0.70391	1906358.462944955
0.705362	1834121.4073604203
0.706819	1770741.597378711
0.70828	1731156.7473161255
0.709745	1657611.745371321
0.711216	1611203.6100440938
0.71269	1546117.649470062
0.71417	1480159.41087399
0.715655	1406539.4582114131
0.717145	1323981.0873149824
0.71864	1247447.7320283235
0.72014	1193662.3749115982
0.721647	1128606.471835191
0.723158	1075895.9146171496
0.724676	999443.4678130745
0.726199	922543.1245901491
0.727728	831644.7289474074
0.729264	788235.4281050983
0.730805	717979.8753089254
0.732353	668789.6115684152
0.733907	606139.7666437097
0.735468	534944.2526595012
0.737035	492759.576053157
0.738609	440712.2001350569
0.74019	391571.357512939
0.741777	344935.3083318345
0.743372	301692.81514701276
0.744973	260293.72400303883
0.746582	221545.31730134028
0.748197	185912.10637434895
0.74982	154497.2524923868
0.751451	125382.74073413677
0.753088	99560.3562031422
0.754734	76943.26815401176
0.756386	57504.6103473918
0.758047	41236.0289010867
0.759715	28106.99326742754
0.76139	17936.57427842194
0.763074	10407.42348234168
0.764765	4782.111868769316
0.766464	1407.1938838920748
0.768172	3017.086143722451
0.769887	2109.3386262895965
0.77161	7476.285295320342
0.773341	16725.849189563534
0.775081	29358.36812480829
0.776829	46427.4946419286
0.778585	60080.53990812383
0.780349	64008.97325862481
0.782121	128594.7448606518
0.783902	175978.75352139602
0.785691	227773.583464525
0.787489	288199.94894915447
0.789295	356691.14445184683
0.79111	430730.8950003282
0.792933	461918.41134135105
0.794764	308416.5778877123
0.796604	650540.6356350901
0.798453	843436.1490165544
0.80031	993862.7587531263
0.802176	1148776.8067526778
0.804051	1320485.5561213435
0.805934	1506029.3342769227
0.807826	1705253.0349979461
0.809727	1912938.3797646519
0.811636	2135026.3899715715
0.813554	2360889.308466292
0.81548	2645773.208561364
0.817416	2849076.597468788
0.81936	2715365.7882801825
0.821313	3550415.54324209
0.823274	3991907.495392642
0.825244	4334528.846002599
0.827223	4804450.648206913
0.829211	5166620.333285181
0.831208	5573696.932773694
0.833213	6212307.88784521
0.835227	6662409.125240782
0.837249	6988317.6069044145
0.83928	7747833.665794798
0.841321	8435190.686909461
0.843369	9003217.668511542
0.845427	9416579.131867837
0.847493	10146332.89127101
0.849567	10197815.44327802
0.851651	6862676.569833747
0.853742	10730671.373344054
0.855843	13117705.470479688
0.857952	13988529.570347022
0.86007	14355568.1821215
0.862196	9269145.316099083
0.864331	10041655.762633983
0.866474	11650881.190961163
0.868626	11894383.8942395
0.870786	11365510.20914613
0.872955	11829998.951738268
0.875132	10551149.77463211
0.877317	16504936.410990227
0.879511	17334754.966533307
0.881713	16083966.538211087
0.883923	18120523.60483125
0.886142	20382006.788161654
0.888369	19087178.747219432
0.890604	22848070.707431834
0.892847	18489882.403304845
0.895099	16096209.035187542
0.897358	24034932.732632533
0.899626	27960906.223736517
0.901901	30845397.84315436
0.904185	36594501.059660114
0.906476	33012555.60579869
0.908776	29809048.65394936
0.911083	33326666.127967738
0.913398	37145707.75269251
0.915721	43154806.1837016
0.918051	45226895.12203311
0.92039	50539376.8350076
0.922736	48153712.51071546
0.925089	45735195.23133012
0.927451	39727450.16143922
0.929819	30290000.531812083
0.932195	26195242.593294803
0.934579	26649702.654236805
0.93697	45482029.06954197
0.939369	48456870.51388436
0.941774	47005756.11966394
0.944187	40769527.58924552
0.946607	52511243.80404278
0.949035	55047778.622496665
0.951469	42913165.227819055
0.953911	46827435.20692731
0.956359	40123750.53453527
0.958814	52298005.432423875
0.961277	41291777.32166797
0.963746	36631869.27226638
0.966222	52387348.09733094
0.968705	56355695.7299964
0.971194	63367021.24914987
0.97369	59314712.42406893
0.976193	71639634.4976352
0.978702	69293561.94765452
0.981217	75206775.95147897
0.983739	66178487.05959896
0.986268	78832710.42890261
0.988802	80216272.79799955
0.991343	59542626.24517166
0.99389	68788913.90773246
0.996444	70584572.42036423
0.999003	42446374.500371225
1.00157	40738267.44499353
1.00414	46266296.00672303
1.00672	47243640.14140857
1.0093	47932826.19938206
1.01189	50547456.26842129
1.01448	63705353.477843195
1.01708	62834003.62631352
1.01969	77839887.13076994
1.0223	79750623.20623645
1.02492	79111131.5091602
1.02754	74701716.9561919
1.03017	93455057.36796844
1.0328	94430460.01492754
1.03544	94939224.79821248
1.03808	114632938.61422926
1.04073	113353286.65104376
1.04339	112409775.60100687
1.04604	104698784.53878604
1.04871	102179948.95849548
1.05138	104458052.20368744
1.05405	113677508.54712604
1.05673	106185860.44137159
1.05941	121806151.43874796
1.0621	117058165.9119659
1.06479	126992975.84848815
1.06749	131735596.04177448
1.07019	148378344.30698344
1.07289	143170310.3745877
1.0756	150104435.4015699
1.07832	155659999.07788602
1.08104	153647088.19231102
1.08376	162588203.83003074
1.08649	146162495.4603682
1.08922	136140571.24520257
1.09195	122970087.5604401
1.09469	122677780.19754885
1.09743	94377592.72974584
1.10018	91973736.78911573
1.10293	78158429.8450767
1.10568	61029193.78828892
1.10844	75346649.31975496
1.1112	65159395.27060736
1.11396	56074874.31184757
1.11673	42532768.70769601
1.1195	61568968.22601374
1.12228	51374137.58931422
1.12505	58249815.40730321
1.12783	78173886.7299019
1.13062	68141052.6954685
1.13341	32760393.53321803
1.1362	42108336.12298738
1.13899	42187066.71909302
1.14178	64896046.37228518
1.14458	59292035.01863338
1.14738	64632005.81941822
1.15019	92764035.37710893
1.153	72789220.98224914
1.1558	58250051.13418815
1.15862	84602800.90927148
1.16143	57275028.15581011
1.16425	40602153.993342355
1.16707	44173812.309149064
1.16989	45865304.616372675
1.17271	67340178.74108572
1.17554	50608037.33423094
1.17837	35558988.158326514
1.1812	72890756.57541093
1.18403	78675103.03997019
1.18686	77736088.19104345
1.1897	86208318.90291417
1.19253	95692140.36465439
1.19537	105077677.32694489
1.19822	100631597.09166618
1.20106	108946070.19706139
1.2039	115085026.89798269
1.20675	125825187.79976696
1.2096	141592692.09133047
1.21245	150210014.40841022
1.2153	155391290.25515422
1.21815	156353141.14097646
1.221	163885919.2407111
1.22385	176689232.57178617
1.22671	182895581.82880238
1.22957	187962920.1454464
1.23242	196216387.9658632
1.23528	182820726.28714824
1.23814	187885332.68018633
1.241	171337257.29819915
1.24387	138470680.1445175
1.24673	192797779.52250645
1.24959	163344940.68635717
1.25245	100563778.54189718
1.25532	180424684.44869652
1.25818	210496627.35130915
1.26105	231029373.87173516
1.26392	197991865.80457693
1.26678	223908792.22694582
1.26965	204745655.62026832
1.27252	232557121.82746926
1.27538	236659143.9301781
1.27825	225524314.39740983
1.28112	234127638.8554812
1.28399	195692106.67445013
1.28686	207147386.90443158
1.28973	198148175.9083346
1.2926	208312671.2347516
1.29546	184606761.9085653
1.29833	168303877.01103714
1.3012	203172590.80189508
1.30407	210259403.1292942
1.30694	172311866.37793654
1.30981	185881978.30779076
1.31267	193413525.02300337
1.31554	164998181.01491037
1.31841	152259656.520553
1.32128	166906160.56685302
1.32414	122354682.11879604
1.32701	80052251.86803699
1.32987	69723629.83455288
1.33274	43118139.48433016
1.3356	30681036.47990168
1.33847	10837220.545164442
1.34133	9480542.67652573
1.34419	11392674.374146532
1.34705	9853749.400036896
1.34991	12555275.619098876
1.35277	15042780.44894005
1.35563	6504833.518216445
1.35849	7289408.011596613
1.36135	9662246.129057175
1.3642	13091709.731244884
1.36706	12538043.079584792
1.36991	11289095.179221215
1.37277	12612116.153851649
1.37562	8669937.191043219
1.37847	6773756.317557753
1.38132	10922152.324633213
1.38417	6071991.877888794
1.38701	2228178.2218555827
1.38986	8484574.704867119
1.39271	10025374.528841816
1.39555	7829179.099185588
1.39839	12459403.501094157
1.40123	16660962.330195496
1.40407	14909007.556619927
1.40691	10311728.152823705
1.40974	7509820.804818606
1.41258	11945808.908907626
1.41541	11770081.479133228
1.41824	5632153.959769823
1.42107	3993806.237893962
1.4239	4315579.366905011
1.42673	11682567.088371668
1.42955	14931838.741577929
1.43237	10060081.687142054
1.43519	15190380.229378227
1.43801	17491884.856412496
1.44083	14392119.834523166
1.44365	16334706.143806502
1.44646	14833571.628965277
1.44927	18082227.35885102
1.45208	23802235.64484461
1.45489	19776342.221394338
1.45769	29353031.835820343
1.4605	26021941.248569105
1.4633	15558463.632785197
1.4661	23175281.654130008
1.4689	23012890.213376198
1.47169	22253460.946006358
1.47449	23374937.989148855
1.47728	24044762.36819327
1.48007	24766037.65029582
1.48286	27074647.513990488
1.48564	24547351.06933125
1.48842	26312394.581067488
1.4912	31938523.23470814
1.49398	25328150.972284988
1.49676	32632423.46379749
1.49953	35093021.98853771
1.5023	46056132.65821136
1.50507	53056218.375059545
1.50784	43403913.83333472
1.51061	47342341.54274986
1.51337	53087568.44238168
1.51613	41843067.85940832
1.51888	36428604.65201048
1.52164	43089925.28584711
1.52439	54455875.75440539
1.52714	44846496.604812086
1.52989	47914478.15710205
1.53263	57532939.80995077
1.53538	66485373.87655447
1.53812	59371498.236406535
1.54086	53914472.15074292
1.54359	46561815.01336477
1.54632	61859165.594513446
1.54905	66240219.39713686
1.55178	67572908.85121988
1.5545	65381828.648391835
1.55723	67369685.2687664
1.55995	74942565.73835042
1.56266	74562885.11239816
1.56538	81184894.1325334
1.56809	93292222.28932203
1.5708	89508821.89180505
1.57351	94237023.94396669
1.57621	92679970.50824285
1.57891	89959656.05997409
1.58161	98088845.84923553
1.5843	98529647.66234596
1.587	101883560.97593115
1.58969	98029966.58744232
1.59238	90662807.45234162
1.59506	101187286.0079692
1.59774	106273389.20299482
1.60042	99836528.62863296
1.6031	96418922.33395708
1.60577	92548457.12827584
1.60844	87286691.94766818
1.61111	96774016.21009651
1.61378	96502221.75078452
1.61644	90901700.43029633
1.6191	86053277.07572779
1.62176	92350563.46617658
1.62441	94140442.02733825
1.62707	98035107.14734986
1.62971	91802076.36356524
1.63236	98616982.44261524
1.635	109358863.30638707
1.63764	112638071.44639578
1.64028	87493238.97841811
1.64292	89399017.11211218
1.64555	83922762.7710414
1.64818	91595045.90669939
1.65081	102845847.80316395
1.65343	99781601.22172286
1.65605	91462869.08199635
1.65867	89698945.56961901
1.66128	104300025.0856466
1.6639	91299607.7843363
1.66651	41830303.56858295
1.66911	29345292.60423181
1.67172	55058701.462075055
1.67432	75202267.44299664
1.67692	86312835.33204782
1.67951	82596370.34079282
1.68211	75642338.38171531
1.6847	60498710.67989039
1.68728	63730079.55677538
1.68987	61148567.50725181
1.69245	53379557.56094517
1.69503	51391521.55977497
1.6976	53648110.601147234
1.70018	55965341.07147837
1.70275	46344961.82340234
1.70531	41935074.51701387
1.70788	51554029.95318673
1.71044	57742413.56333401
1.713	60577552.01068624
1.71556	63422709.37019651
1.71811	66408738.2271178
1.72066	55895680.511366755
1.72321	36792819.46951465
1.72575	44106227.936418295
1.7283	57017296.17167109
1.73084	55453348.58618625
1.73337	41576794.45802332
1.73591	40011651.10075151
1.73844	43842831.75801794
1.74097	39344980.772699386
1.74349	36559062.63587765
1.74602	40532217.121686354
1.74854	49955303.61281752
1.75105	48912259.70284237
1.75357	37160556.88673887
1.75608	28403514.50929428
1.75859	27950981.497218374
1.7611	27717631.260675635
1.7636	30609473.847019978
1.7661	28137580.50461165
1.7686	25254507.85469216
1.7711	28462055.73647428
1.77359	23171639.65702526
1.77608	16332342.125950266
1.77857	22174576.7822963
1.78105	25830703.41439212
1.78354	19912158.439215243
1.78602	18094838.75761453
1.78849	21269450.4005653
1.79097	18775163.824912302
1.79344	17638977.038810115
1.79591	20692594.8242725
1.79837	26228147.35203481
1.80084	19160148.785223138
1.8033	18374878.653965738
1.80576	18621368.976830047
1.80821	18233713.961005185
1.81067	18149900.964013383
1.81312	19585676.459311575
1.81557	21399215.7350077
1.81801	15000544.2377284
1.82046	13257648.596613025
1.8229	16345567.264016384
1.82533	14844048.952516777
1.82777	14274185.694445064
1.8302	15758072.690851271
1.83263	14849545.632649586
1.83506	14232869.316138553
1.83749	15643841.714614488
1.83991	16595508.516276354
1.84233	18114975.924605366
1.84475	19716372.383867804
1.84716	17055728.744762827
1.84957	16897376.758918013
1.85198	16793083.523314398
1.85439	13988801.002325756
1.8568	10902046.28817135
1.8592	8272709.952042491
1.8616	9395619.444454592
1.864	10250872.201762188
1.86639	9388425.421867024
1.86878	9373172.636560954
1.87118	13464545.380993059
1.87356	14537095.593832625
1.87595	13869757.006535104
1.87833	18255443.77090948
1.88071	22694756.633552384
1.88309	19912716.218944877
1.88547	18778669.66102626
1.88784	22213994.751278676
1.89021	23968191.24597079
1.89258	25971555.56000061
1.89494	28156743.265895218
1.89731	24981154.018756066
1.89967	20028247.19015758
1.90203	19596290.526331
1.90439	20635933.39403505
1.90674	25512340.336071394
1.90909	27217791.340265717
1.91144	19225847.831617378
1.91379	18616223.445150692
1.91613	25096307.906728312
1.91848	26909668.801568832
1.92082	22576951.299886025
1.92315	19825888.41519921
1.92549	21485509.36486728
1.92782	22476803.170284584
1.93015	18723313.841466594
1.93248	15659621.338415345
1.93481	13621483.666861929
1.93713	9925796.976078797
1.93945	8864521.97017167
1.94177	14325881.174037203
1.94409	18286562.334113356
1.94641	18169967.440132715
1.94872	19344239.186832838
1.95103	23794787.608584285
1.95334	22850003.579907715
1.95564	16884360.00394556
1.95795	15073697.00479279
1.96025	13124287.743323142
1.96255	12664095.602123424
1.96484	17160591.033719484
1.96714	19832348.957072094
1.96943	18090172.216984782
1.97172	19487621.516318228
1.97401	20581855.097205043
1.97629	20071849.640852135
1.97858	21383917.8544758
1.98086	19621789.705012
1.98314	15839374.58963153
1.98541	17283448.149645958
1.98769	22601765.683215562
1.98996	22591258.4724043
1.99223	20501837.14879761
1.9945	22261142.86056341
1.99677	22751474.762475714
1.99903	21123756.093336
2.00129	20262538.65661267
2.00355	21741303.181708656
2.00581	24717060.816189222
2.00806	24702815.510997497
2.01031	25283916.9252231
2.01256	31383958.476419058
2.01481	33865932.603358984
2.01706	28761693.390301384
2.0193	27928138.228653703
2.02154	32521815.092542265
2.02378	32677067.385420017
2.02602	27743381.487698212
2.02825	26461955.81512313
2.03049	29425807.650018513
2.03272	34287444.1405084
2.03494	35326209.533922516
2.03717	33858350.8893581
2.03939	34473669.171241134
2.04162	37364495.81879072
2.04384	40559817.745550066
2.04605	40426069.90106488
2.04827	37542474.29734632
2.05048	38018775.22774775
2.05269	38043759.38661202
2.0549	34457871.69239367
2.05711	36661157.170158066
2.05931	39452554.558820635
2.06151	38816923.691246
2.06371	38547081.55895075
2.06591	37965869.688037224
2.06811	39809308.24585558
2.0703	42759857.94436216
2.07249	44325583.450619064
2.07468	43761005.02124501
2.07686	41938358.00329331
2.07905	42755712.71239787
2.08123	45648412.28066534
2.08341	46964329.98565343
2.08559	45757660.372194976
2.08776	45790767.93959744
2.08994	47346673.233953975
2.09211	47842703.89469364
2.09428	48893341.55129432
2.09645	50266010.86379915
2.09861	49045569.75877975
2.10077	46428452.33749645
2.10293	45735202.77423227
2.10509	47109578.887012534
2.10725	47468143.21115206
2.1094	44332772.66344208
2.11155	39773808.44364332
2.1137	39026601.732159056
2.11585	40055680.25874884
2.11799	41150823.91053417
2.12013	43681896.5586996
2.12227	45144488.13595935
2.12441	45612383.55061232
2.12655	45300280.868905835
2.12868	43504640.45088792
2.13081	43123733.960316025
2.13294	43858642.47913073
2.13507	41800190.60850481
2.13719	39652109.71832098
2.13931	40618604.506816074
2.14143	41813824.063727625
2.14355	41361676.713630825
2.14567	40278129.87166306
2.14778	37491001.30445202
2.14989	34992428.133738734
2.152	34854618.52351039
2.1541	34809398.115569286
2.15621	34604240.71040422
2.15831	34123490.76102905
2.16041	32657357.949796364
2.16251	32317584.016317822
2.1646	32433547.088035807
2.1667	32206405.92988244
2.16879	33248710.68670391
2.17087	34537731.16767487
2.17296	33938464.62125048
2.17504	33038793.613732234
2.17713	32913405.938924406
2.1792	31442279.214808967
2.18128	27291439.391438935
2.18336	22586231.348656893
2.18543	20977094.12404261
2.1875	21175825.16939709
2.18957	20639162.41926364
2.19163	20864352.8804858
2.1937	22231019.049096577
2.19576	21017669.093188703
2.19782	16445295.58049033
2.19987	11554089.423553657
2.20193	8994946.775990276
2.20398	8209941.512919395
2.20603	7695329.772788997
2.20808	7769460.721516754
2.21012	8201582.312570583
2.21217	8721280.936683493
2.21421	10263199.846832607
2.21625	11947335.959503597
2.21828	12480237.409641087
2.22032	12959157.88355239
2.22235	13369636.917591838
2.22438	12789773.887231518
2.22641	11308050.55688466
2.22843	10909242.667760141
2.23046	10717230.52348175
2.23248	9476437.965542762
2.2345	8344493.724623383
2.23651	7553856.570459682
2.23853	7193413.001707188
2.24054	7854804.5359697
2.24255	9320329.197887605
2.24456	10785478.842848595
2.24657	11422563.678616505
2.24857	11133689.955133276
2.25057	10433063.829094073
2.25257	9800972.39270019
2.25457	8872450.870758876
2.25656	7749577.029780182
2.25856	6921331.598342056
2.26055	6579354.883693477
2.26254	5803155.575840829
2.26453	5070445.348830477
2.26651	5017253.181033703
2.2685	5325351.863240309
2.27048	5603587.851686783
2.27246	5896456.2694509225
2.27443	5922954.441058526
2.27641	6078407.11637505
2.27838	6461531.094923116
2.28036	6231446.443622278
2.28233	5546401.456329447
2.28429	5014574.864223376
2.28626	4699226.361417416
2.28823	4509155.618520332
2.29019	4290925.527107412
2.29215	4027949.9677270083
2.29411	3880692.7653943445
2.29607	3903457.2297861907
2.29802	4313737.393187504
2.29998	5191620.908391261
2.30193	6371644.965754101
2.30388	7351942.629543738
2.30583	7930501.645784913
2.30778	8592447.091599999
2.30972	9135725.564693993
2.31167	9022417.727821052
2.31361	7668600.3861642
2.31555	5905734.141416393
2.31749	4591754.905295266
2.31943	4298963.728456055
2.32137	3973809.42501778
2.32331	3342978.1046291855
2.32524	2783712.5938194892
2.32718	2349884.808117489
2.32911	2134315.1222237647
2.33104	2240688.43203912
2.33297	2567487.9948292505
2.3349	3081511.988503463
2.33683	3869598.740673597
2.33876	4485005.248852016
2.34068	4844243.027958986
2.34261	5152121.96551225
2.34453	5583289.3129608575
2.34646	5926825.767957645
2.34838	5933451.468362706
2.3503	5544798.266763134
2.35223	5361833.9520264305
2.35415	5177393.8554829145
2.35607	4644498.696374537
2.35799	4614217.136265329
2.35991	5424926.346985474
2.36183	6464628.168272833
2.36375	7076387.272435696
2.36566	7162488.70739828
2.36758	6783798.491454221
2.3695	6393349.991932538
2.37142	6260428.380180293
2.37334	5931267.386464019
2.37526	5059594.1827106215
2.37718	4140440.0737730274
2.3791	3706752.6444660663
2.38101	3539282.094857147
2.38293	3470757.5237150793
2.38485	3832007.4072776735
2.38677	4886539.006901937
2.3887	5838768.009891393
2.39062	5806088.764085159
2.39254	5438886.787882774
2.39446	5656147.603185936
2.39639	6143166.492868222
2.39831	6248860.751120908
2.40024	6282820.2380260965
2.40216	6560633.006033219
2.40409	7306186.152073593
2.40602	7580172.70293136
2.40795	7360779.735734944
2.40989	7653595.125849672
2.41182	8480380.65513885
2.41376	8798767.233135175
2.4157	8972119.716803437
2.41764	8895729.898676181
2.41958	8600664.424639564
2.42152	8180751.333724253
2.42347	8153829.401935965
2.42542	8277295.234770691
2.42737	9168971.838564945
2.42932	10209480.889870275
