#wavelength	surface flux
0.676892	199725.08065541906
0.678297	212332.16864857948
0.679702	224453.81865261897
0.681109	235986.3524300243
0.682517	246403.19213775097
0.683926	256710.80066151626
0.685337	266052.1515910968
0.686749	274049.72811913973
0.688164	280986.13075999863
0.689581	285968.85508216155
0.691	284673.69807913294
0.692422	286827.1443369054
0.693847	285997.1200320431
0.695274	293336.61930348905
0.696705	294507.08785630733
0.698139	295697.3429655438
0.699576	293184.8394418815
0.701017	289030.8814457392
0.702461	283977.35668753076
0.70391	279753.0232768011
0.705362	271511.69851974037
0.706819	263718.9658843252
0.70828	256150.71490301134
0.709745	244946.57858961416
0.711216	234489.09562105345
0.71269	224362.51360122778
0.71417	213425.8812242533
0.715655	194944.243980415
0.717145	178903.3721261396
0.71864	163454.75248007156
0.72014	155726.06869621464
0.721647	147172.68910855122
0.723158	142831.1418231873
0.724676	129759.59528046292
0.726199	117202.05354988466
0.727728	100620.75812026885
0.729264	98879.2444760022
0.730805	88143.10236365117
0.732353	83885.8010482224
0.733907	75392.01759582126
0.735468	63661.88103806313
0.737035	60573.1755738877
0.738609	53915.38214797539
0.74019	47714.00914321376
0.741777	41747.832568255435
0.743372	36525.63252909338
0.744973	31422.824544681393
0.746582	26681.903201449186
0.748197	22349.792269277
0.74982	18876.42877802765
0.751451	15618.18128992084
0.753088	12827.061800374224
0.754734	10454.749073952456
0.756386	8437.0093434971
0.758047	6730.8133241070145
0.759715	5265.557180268857
0.76139	3960.1147881139477
0.763074	2728.3663921419056
0.764765	1401.8349847372097
0.766464	404.3497458816526
0.768172	899.7112062815019
0.769887	620.029249402328
0.77161	2140.991192799265
0.773341	4115.753124471177
0.775081	6107.648868047542
0.776829	8395.004260505777
0.778585	10105.104995743979
0.780349	10512.248531696207
0.782121	18357.283054414893
0.783902	24073.54497663461
0.785691	30578.703372275017
0.787489	38646.2456912042
0.789295	48076.72708978006
0.79111	58542.64696970654
0.792933	63301.301149768835
0.794764	43521.62009676918
0.796604	91385.04518363823
0.798453	120352.92699055708
0.80031	144326.49128994552
0.802176	169495.44491795904
0.804051	198925.79835416793
0.805934	228659.17015719495
0.807826	262415.2012998443
0.809727	297688.9262242258
0.811636	333000.5992712545
0.813554	366076.25827776705
0.81548	418224.00737697334
0.817416	476816.5527744698
0.81936	492636.9372939222
0.821313	602463.5674607555
0.823274	675989.0103891055
0.825244	730787.1458288546
0.827223	836874.8449100733
0.829211	891155.8141050588
0.831208	959230.8729716777
0.833213	1114232.3740847495
0.835227	1197586.9690159222
0.837249	1210099.361502447
0.83928	1400429.0803114108
0.841321	1563722.5150530864
0.843369	1685637.2361857877
0.845427	1801506.6503404006
0.847493	2021409.492159733
0.849567	1989904.7463958175
0.851651	1418822.4627182437
0.853742	2226530.250984277
0.855843	2685332.463843466
0.857952	2909169.761588935
0.86007	3090597.4700586395
0.862196	2590107.6757277576
0.864331	2800161.0175870573
0.866474	3137497.847034528
0.868626	3304287.44198492
0.870786	3301611.864325763
0.872955	3525930.6032568
0.875132	3399821.9620393645
0.877317	4369470.501575475
0.879511	4586031.1260420475
0.881713	4069901.4390282994
0.883923	4118066.7535200845
0.886142	4613277.066401484
0.888369	4267734.260941655
0.890604	4853991.122955122
0.892847	3894196.6236648806
0.895099	3352918.937488455
0.897358	5433875.640168384
0.899626	6303304.688405088
0.901901	7110555.0905981185
0.904185	8611730.877145931
0.906476	8647839.991342882
0.908776	7292190.540811113
0.911083	8601228.163466336
0.913398	8638539.320607921
0.915721	10149002.247919159
0.918051	10241642.184749784
0.92039	11463069.185884146
0.922736	10929415.62729983
0.925089	9739810.261551099
0.927451	7332916.044282245
0.929819	4874807.190781323
0.932195	3603738.7735795057
0.934579	3492369.4579617395
0.93697	8958126.863893785
0.939369	10498350.679935174
0.941774	9046326.703797806
0.944187	7922427.838421399
0.946607	10603371.135198863
0.949035	11791559.84172815
0.951469	6916969.726911502
0.953911	8951364.467925187
0.956359	7585911.224081675
0.958814	10609787.483899156
0.961277	7194986.265706518
0.963746	7509553.1985598495
0.966222	10759656.940133944
0.968705	11898836.602227934
0.971194	13303980.30410416
0.97369	11944892.320032945
0.976193	15763177.751261562
0.978702	14568903.039284889
0.981217	15086436.668607466
0.983739	11814031.260175422
0.986268	15702923.791878702
0.988802	17227204.741812278
0.991343	15043071.992219666
0.99389	18646529.389341366
0.996444	19729099.44120622
0.999003	11867998.47332203
1.00157	13545353.543546448
1.00414	15675916.487923386
1.00672	17255285.701326184
1.0093	16940253.63864727
1.01189	18525346.849131458
1.01448	22191592.957354456
1.01708	23261833.06869248
1.01969	27288103.673711717
1.0223	27548922.175444223
1.02492	27794176.865925938
1.02754	28778403.736033972
1.03017	34138845.56143081
1.0328	33162329.882967774
1.03544	34724918.9777405
1.03808	41966244.98832231
1.04073	39919238.57112103
1.04339	41189414.12276828
1.04604	39059183.04873164
1.04871	40566870.47746807
1.05138	42081912.50696022
1.05405	46235795.94788765
1.05673	43729692.603145085
1.05941	49995267.679399654
1.0621	47482607.229226254
1.06479	50661922.854433484
1.06749	52288154.41234089
1.07019	57409968.303689435
1.07289	55309445.73769831
1.0756	56020441.85077653
1.07832	54429289.68450902
1.08104	56473396.44699585
1.08376	55524261.2312852
1.08649	50451404.329462886
1.08922	39932714.97846615
1.09195	32346634.886885412
1.09469	27958907.473285977
1.09743	22144824.857478622
1.10018	19986329.64755187
1.10293	15534022.454526965
1.10568	11405496.414957454
1.10844	13877407.540848633
1.1112	10367159.888422979
1.11396	8626814.120381644
1.11673	5832993.100387584
1.1195	8812061.34029072
1.12228	6597255.954224656
1.12505	8414129.477511378
1.12783	11651493.641112937
1.13062	11231803.099388447
1.13341	3709723.5468499977
1.1362	4939402.855197614
1.13899	7785361.807743951
1.14178	12353817.117625564
1.14458	9068080.083143247
1.14738	9082209.719586816
1.15019	14751875.655239375
1.153	10620601.121231174
1.1558	7337384.022661023
1.15862	12281318.886474987
1.16143	6833569.09781001
1.16425	4296295.874149024
1.16707	7780547.455813643
1.16989	8405051.134275012
1.17271	12754336.079390723
1.17554	12007562.478033619
1.17837	7788815.741372542
1.1812	18495394.46993818
1.18403	21219368.86854459
1.18686	17990892.278529923
1.1897	21028664.128465228
1.19253	24078947.596842676
1.19537	28914175.37299571
1.19822	25256937.34698121
1.20106	26933168.56377637
1.2039	31307100.048025817
1.20675	37301404.811568774
1.2096	43442093.82872047
1.21245	44312028.53387972
1.2153	45523894.05719536
1.21815	45850808.29159434
1.221	48210615.31424583
1.22385	52770310.90972328
1.22671	54592270.906981
1.22957	60789045.927975826
1.23242	61819838.345732294
1.23528	58191562.287051484
1.23814	62088289.37646688
1.241	63727282.615734465
1.24387	53808553.52395707
1.24673	69452732.95282477
1.24959	61707148.87678268
1.25245	42030909.345937155
1.25532	70671595.2737436
1.25818	77078256.73883885
1.26105	81480331.56215379
1.26392	62811252.70600286
1.26678	72288766.59916535
1.26965	61026389.955504164
1.27252	75445230.01026325
1.27538	79325821.60873403
1.27825	72396849.0982784
1.28112	74100588.57253554
1.28399	56632983.27304752
1.28686	58584954.13261657
1.28973	55844528.67390647
1.2926	58453489.03643973
1.29546	48680641.40507515
1.29833	42731431.581429034
1.3012	56709838.44379153
1.30407	58256070.87876179
1.30694	45308567.034821756
1.30981	47050054.748426646
1.31267	50469877.877837725
1.31554	38194091.889039814
1.31841	35407583.79726917
1.32128	41881886.93277593
1.32414	27844404.448941305
1.32701	15950313.389845401
1.32987	10688942.355978345
1.33274	8629632.127180435
1.3356	6445379.664351331
1.33847	1665682.4134919045
1.34133	1410956.944623925
1.34419	1693017.2511058562
1.34705	1317173.9170366258
1.34991	1976195.8708205915
1.35277	2106127.105645639
1.35563	816072.0750256415
1.35849	802255.9912352154
1.36135	1080079.7439345869
1.3642	1813503.1327941606
1.36706	1471172.9711889317
1.36991	1203408.1249627003
1.37277	1488540.0408741634
1.37562	902117.6523079241
1.37847	692171.2488081744
1.38132	1621558.4888021927
1.38417	668722.2989075149
1.38701	158335.8491811658
1.38986	967322.2609663339
1.39271	1447370.736117423
1.39555	776193.2719505611
1.39839	1270485.44083306
1.40123	1952449.5491777135
1.40407	1685421.677035785
1.40691	1156190.623087253
1.40974	834941.568403892
1.41258	1650323.2645095536
1.41541	1742711.8628735144
1.41824	756727.3899233576
1.42107	362850.8560523995
1.4239	437647.28909234743
1.42673	1852845.982583354
1.42955	2557122.344254973
1.43237	1481285.3984738423
1.43519	2702218.2226013225
1.43801	3032314.0137877814
1.44083	2287975.515312112
1.44365	2526533.4747514636
1.44646	2201705.1254399824
1.44927	3074504.599158129
1.45208	5195517.32844718
1.45489	4268292.64722733
1.45769	6546054.323265138
1.4605	5564560.890455206
1.4633	3350681.5196081507
1.4661	5326030.549316785
1.4689	4994792.491144894
1.47169	4423938.406782129
1.47449	4734017.862743894
1.47728	5094781.534796173
1.48007	5004366.740398828
1.48286	5272829.599850925
1.48564	5112629.130559877
1.48842	5953577.772726384
1.4912	7441746.613966839
1.49398	5080839.2114769835
1.49676	7023618.159308778
1.49953	7893544.425356542
1.5023	11833190.030072521
1.50507	13659257.722252468
1.50784	10919680.4216983
1.51061	12494695.067623233
1.51337	13635305.809973693
1.51613	9843438.803570012
1.51888	8154689.129305628
1.52164	10744597.155516181
1.52439	14061094.681243207
1.52714	10791068.890340183
1.52989	11851207.379224107
1.53263	15286575.15496471
1.53538	18518760.560294997
1.53812	15137060.036601173
1.54086	12404871.8011958
1.54359	11200242.732655747
1.54632	16419463.243455965
1.54905	18046065.90750085
1.55178	17270487.922992475
1.5545	16451695.52730435
1.55723	19720317.75626492
1.55995	22083862.073015783
1.56266	19872674.613208026
1.56538	25363487.79671736
1.56809	30591535.244288784
1.5708	27141068.483249817
1.57351	27993719.716461875
1.57621	27051684.958970256
1.57891	26037753.80709867
1.58161	30968661.42742635
1.5843	29567847.45269608
1.587	29614191.245476786
1.58969	28157419.13113026
1.59238	24822127.781538036
1.59506	29509742.695302665
1.59774	31583657.49657568
1.60042	26821907.64770906
1.6031	23747664.562824707
1.60577	22057199.98646017
1.60844	18688927.890019502
1.61111	20234439.214339938
1.61378	19272165.81414476
1.61644	18802752.995253243
1.6191	16837896.428567592
1.62176	18968175.571223766
1.62441	19978190.79361466
1.62707	21820341.84758796
1.62971	21560925.739874505
1.63236	21446165.120235022
1.635	27378769.388717026
1.63764	29735041.639926463
1.64028	21207892.919112768
1.64292	19849234.6203208
1.64555	15933550.590853624
1.64818	14822875.160318634
1.65081	22617648.61099243
1.65343	24340093.54793797
1.65605	16955805.624676827
1.65867	15718163.146655077
1.66128	23783402.622993305
1.6639	18329508.559187606
1.66651	4812104.509868692
1.66911	1500928.2470236043
1.67172	5822634.515897711
1.67432	11018021.497015486
1.67692	15689348.38948013
1.67951	13495067.503112689
1.68211	10729880.366203638
1.6847	6959207.954860969
1.68728	6412280.504918615
1.68987	6555854.474857606
1.69245	5529195.467869211
1.69503	4620530.894302754
1.6976	4923259.935191269
1.70018	5517515.186815689
1.70275	3618919.8736867667
1.70531	3586935.3492675354
1.70788	5770948.476675188
1.71044	8827988.284090176
1.713	12421122.847205462
1.71556	13407832.348272182
1.71811	13178854.83277709
1.72066	9464902.260857351
1.72321	5426192.047223915
1.72575	8067364.794426543
1.7283	11041536.51783805
1.73084	11391205.667377565
1.73337	7179238.538459028
1.73591	5757827.546709024
1.73844	7230437.453015901
1.74097	6609677.832512671
1.74349	6759556.966118144
1.74602	8868100.591910565
1.74854	11147899.801055012
1.75105	11423099.86608548
1.75357	8490860.059183551
1.75608	5087892.592286248
1.75859	4067700.1654957994
1.7611	3797996.9510261687
1.7636	4978134.524184014
1.7661	5207817.249100899
1.7686	4661906.778734584
1.7711	5809239.217369577
1.77359	4298587.886912834
1.77608	2812664.0972209726
1.77857	4921279.231457757
1.78105	6517988.168105263
1.78354	4575404.6059472505
1.78602	3713360.3534858213
1.78849	4356209.606731742
1.79097	3826186.417803336
1.79344	3469541.2002387284
1.79591	4121117.048737237
1.79837	5931139.664490367
1.80084	4210116.833449155
1.8033	3642418.588032575
1.80576	3677346.286117109
1.80821	3887562.5696587986
1.81067	3922341.6584161567
1.81312	4587232.900431985
1.81557	4788010.77945876
1.81801	2684057.3547255676
1.82046	2418491.239108151
1.8229	3543464.4312739307
1.82533	3021230.6717424705
1.82777	2694327.0184007557
1.8302	3129473.223470935
1.83263	2886803.3653456937
1.83506	2380921.5313574676
1.83749	2487942.815181774
1.83991	3008894.8896119823
1.84233	3712252.62024186
1.84475	4496481.474722059
1.84716	3574472.3992603635
1.84957	3312307.9526517983
1.85198	3588076.6102096587
1.85439	3071526.8098894623
1.8568	2104858.321345493
1.8592	1383428.3088213059
1.8616	1750426.5826748444
1.864	1964608.2680171893
1.86639	1518429.9544504217
1.86878	1388760.2946106598
1.87118	2352245.4334465195
1.87356	2571647.596500454
1.87595	2601540.5509562166
1.87833	4580459.429810543
1.88071	5948933.439983916
1.88309	4788850.337460866
1.88547	4284504.101882133
1.88784	5201729.36030271
1.89021	5660930.807296904
1.89258	6511358.164116804
1.89494	8089026.19637309
1.89731	7104727.713467483
1.89967	4712220.202270355
1.90203	4504331.456230898
1.90439	4715614.020916089
1.90674	5946566.065972562
1.90909	6105249.843610998
1.91144	3450866.0923111523
1.91379	3315402.3570103766
1.91613	5531304.1061012475
1.91848	6269670.697749175
1.92082	4655350.441601789
1.92315	3875404.101617891
1.92549	4341548.383366796
1.92782	4398349.131422643
1.93015	3312380.8798139156
1.93248	2228510.2167411316
1.93481	1804939.7895594584
1.93713	1484651.4832287915
1.93945	1594505.4722210295
1.94177	3082528.588954606
1.94409	4050716.3119870056
1.94641	4074981.5103446026
1.94872	4319964.434649188
1.95103	5319221.076002705
1.95334	5109481.982348143
1.95564	3704898.943298892
1.95795	3309357.2153341686
1.96025	2669014.5710136257
1.96255	2428846.4949769676
1.96484	3807781.436184378
1.96714	4827657.924789293
1.96943	4520541.82058493
1.97172	4956186.543210742
1.97401	5092681.288858915
1.97629	4805573.48015634
1.97858	5120771.24518403
1.98086	4488309.63727098
1.98314	3356231.747978302
1.98541	4036130.6160774464
1.98769	6013591.441311777
1.98996	6147341.2333573
1.99223	5449819.257819768
1.9945	6236787.490412827
1.99677	6714746.663172456
1.99903	6304154.418142221
2.00129	6105307.7999907285
2.00355	6424792.277638253
2.00581	7074722.669112037
2.00806	7328576.188625888
2.01031	7977184.219434433
2.01256	10217116.267900674
2.01481	11103384.946898147
2.01706	9383019.391820353
2.0193	9006590.141346417
2.02154	10394578.284693753
2.02378	10606098.404201765
2.02602	9203364.455049258
2.02825	8645285.713289281
2.03049	9507495.395797944
2.03272	11264048.295164388
2.03494	11869590.45581406
2.03717	11083450.030362355
2.03939	10746792.945827132
2.04162	12490562.45702525
2.04384	14604999.448726524
2.04605	14787873.760849936
2.04827	13587402.335605614
2.05048	13581610.675845027
2.05269	13426804.129116235
2.0549	11917340.936456334
2.05711	12785684.875098044
2.05931	13883813.895701047
2.06151	13710877.783818161
2.06371	13456759.5147373
2.06591	12849221.41499889
2.06811	13471268.393646056
2.0703	15022662.551757218
2.07249	16187474.740849731
2.07468	16377703.827256937
2.07686	15642491.47113423
2.07905	15454473.540569305
2.08123	15972715.40544028
2.08341	16100741.770459501
2.08559	15569941.027426664
2.08776	15810070.1940435
2.08994	16524911.402410202
2.09211	16545651.361912418
2.09428	17034629.986775916
2.09645	17717729.359526392
2.09861	16940818.64082924
2.10077	15534619.44072108
2.10293	15059027.794782761
2.10509	15464556.781269131
2.10725	15493736.98877142
2.1094	13904943.231632141
2.11155	11647053.08728254
2.1137	11280830.134037044
2.11585	11861435.185094127
2.11799	12653727.960509233
2.12013	13901221.821507866
2.12227	14269381.44314129
2.12441	14318154.294668822
2.12655	14178551.702069804
2.12868	13416188.38039926
2.13081	13059553.166287284
2.13294	12765868.258441687
2.13507	11364626.226639407
2.13719	10312742.664731931
2.13931	11087475.013370309
2.14143	11865092.763419157
2.14355	11217567.93992393
2.14567	10136779.582744455
2.14778	8653216.468470836
2.14989	7595378.881092476
2.152	7843657.364250863
2.1541	8111780.9241439765
2.15621	7947254.060988169
2.15831	7370128.823785781
2.16041	6144177.748558408
2.16251	5629610.914738187
2.1646	5889284.516354685
2.1667	5965341.027350589
2.16879	6402613.233548341
2.17087	7217998.213653137
2.17296	7295769.768877294
2.17504	7075125.130848895
2.17713	7170304.348890375
2.1792	6836720.916257397
2.18128	5731582.912073903
2.18336	4322269.563464187
2.18543	3637282.432979015
2.1875	3520101.0838288893
2.18957	3290350.7752418634
2.19163	3270274.639639078
2.1937	3587144.9498390183
2.19576	3265627.809273916
2.19782	2142823.233754722
2.19987	1130648.0023309889
2.20193	766837.0666240115
2.20398	782097.5240823333
2.20603	784203.9946015504
2.20808	800379.0418154378
2.21012	864941.8310489135
2.21217	958134.0236767288
2.21421	1186641.4803432147
2.21625	1394829.914606276
2.21828	1423286.5568914234
2.22032	1484857.4638589188
2.22235	1583252.1852858653
2.22438	1570975.0676932521
2.22641	1425926.3176669858
2.22843	1415694.7434145794
2.23046	1317034.6205819573
2.23248	943157.6790562131
2.2345	626652.7044308897
2.23651	513377.2086345024
2.23853	542550.5999241761
2.24054	701046.2685829399
2.24255	911145.8462168692
2.24456	1082159.8709382967
2.24657	1162986.6120502623
2.24857	1141876.3157207638
2.25057	992474.6748992373
2.25257	742659.1661353625
2.25457	535626.4422813224
2.25656	475745.0824550851
2.25856	499480.7472529165
2.26055	506103.28731340833
2.26254	436602.6621793781
2.26453	384355.1999273066
2.26651	424913.06180003006
2.2685	480650.3978182741
2.27048	499486.60128133255
2.27246	523306.3208925989
2.27443	514983.7276523743
2.27641	522518.1136257793
2.27838	581877.2031590927
2.28036	598216.0188582398
2.28233	550043.5872323457
2.28429	482705.6617781931
2.28626	418698.458775559
2.28823	356853.35667979217
2.29019	293612.9176178341
2.29215	240037.9738427285
2.29411	236713.20888973604
2.29607	283545.8145067625
2.29802	369269.2206891512
2.29998	492029.47266757226
2.30193	658468.4702755612
2.30388	799483.385336035
2.30583	861691.9136386999
2.30778	929822.5443330551
2.30972	1069458.4261317018
2.31167	1223856.4536199865
2.31361	1132649.2436813668
2.31555	798943.2011532107
2.31749	443877.53138439223
2.31943	312400.14748299506
2.32137	270710.16780107695
2.32331	229705.02410153754
2.32524	194169.30270748024
2.32718	169349.87144153807
2.32911	159246.0992090109
2.33104	168794.47293121848
2.33297	202039.25285540315
2.3349	275792.4799445001
2.33683	388773.1851662709
2.33876	459067.4125834462
2.34068	472631.3350694795
2.34261	469736.1954087703
2.34453	497585.3966226279
2.34646	566865.2994179829
2.34838	640914.5982274947
2.3503	643947.1436238592
2.35223	623403.3454450105
2.35415	577100.7154342596
2.35607	499843.868320766
2.35799	503518.52026702685
2.35991	609532.3344992216
2.36183	744295.5584900222
2.36375	842450.4004374124
2.36566	891609.3802868008
2.36758	837442.8143442919
2.3695	748819.3930453709
2.37142	699924.5771729567
2.37334	668443.8773284476
2.37526	559855.6840272023
2.37718	427858.0527106187
2.3791	354857.787652693
2.38101	332981.0674588064
2.38293	350974.9427394131
2.38485	433204.677650525
2.38677	595281.3745005272
2.3887	715270.5925927942
2.39062	694279.5553282207
2.39254	659781.2447658032
2.39446	747580.965395643
2.39639	862979.1673963247
2.39831	899375.4720303653
2.40024	943400.5660342231
2.40216	1042603.0222711583
2.40409	1194323.006549021
2.40602	1197006.0887007527
2.40795	1083536.0854861494
2.40989	1065866.408021368
2.41182	1193058.1480515394
2.41376	1290527.7419562014
2.4157	1431324.9907153144
2.41764	1507917.5371965712
2.41958	1446614.7269657555
2.42152	1279851.9839877717
2.42347	1198974.6712408091
2.42542	1262150.9157850745
