#wavelength	surface flux
0.8	1846341.1160632563
0.8002000000000001	1867584.021535009
0.8004000500000003	1898164.5462152665
0.8006001500125003	1928458.2244482383
0.8008003000500035	1957438.2213900269
0.8010005001250161	1986863.0146731706
0.8012007502500472	2017811.019593945
0.8014010504376099	2041781.8692352895
0.8016014007002193	2071718.730564944
0.8018018010503944	2101853.495602294
0.8020022515006572	2131146.553310028
0.8022027520635323	2161881.811832771
0.8024033027515483	2193480.3359870394
0.8026039035772362	2221221.2160178632
0.8028045545531306	2246030.5066905967
0.8030052556917691	2279045.4507742072
0.803206007005692	2310496.670220492
0.8034068085074435	2341756.6972104604
0.8036076602095705	2377980.301117649
0.8038085621246229	2409752.075292354
0.8040095142651542	2441345.0772598768
0.8042105166437206	2465363.101699686
0.8044115692728815	2502003.854317774
0.8046126721651998	2533418.876945312
0.8048138253332411	2569165.894417678
0.8050150287895745	2605097.6246552113
0.805216282546772	2634830.1639966522
0.8054175866174087	2661791.863468237
0.8056189410140631	2696869.0821777945
0.8058203457493168	2729720.6915295073
0.8060218008357541	2770766.7273344775
0.8062233062859632	2790801.7932363395
0.8064248621125346	2826150.7158196806
0.806626468328063	2873156.2556076054
0.8068281249451449	2904832.633451633
0.8070298319763813	2935448.2723534736
0.8072315894343755	2961648.8139630104
0.8074333973317341	3007214.999916083
0.8076352556810671	3048752.3783856262
0.8078371644949874	3077300.8158553536
0.8080391237861113	3124957.0534961177
0.8082411335670578	3151750.9102934184
0.8084431938504498	3179908.8074269174
0.8086453046489125	3219196.060807088
0.8088474659750746	3253462.028824611
0.8090496778415686	3284210.037360085
0.809251940261029	3304524.3342046444
0.8094542532460944	3367740.5063057225
0.8096566168094059	3413037.328914262
0.8098590309636085	3450066.670309342
0.8100614957213493	3448162.649185576
0.8102640110952797	3506253.372610764
0.8104665770980536	3541975.48587631
0.8106691937423283	3588635.4296943625
0.8108718610407639	3617515.8982844
0.8110745790060241	3652735.697787679
0.8112773476507757	3705830.4331953186
0.8114801669876885	3724314.4889049153
0.8116830370294355	3761151.03804947
0.8118859577886929	3846674.726404281
0.8120889292781401	3866186.758886199
0.8122919515104597	3885297.9207368814
0.8124950244983374	3897784.484425075
0.8126981482544621	3992798.8978596786
0.8129013227915257	4045783.462867931
0.8131045481222237	4079036.238037198
0.8133078242592543	4086383.555942502
0.8135111512153191	4129634.1463598246
0.813714529003123	4170758.7447322034
0.8139179576353739	4238955.521124549
0.8141214371247829	4271270.790689612
0.8143249674840641	4278010.469473544
0.814528548725935	4359064.827099711
0.8147321808631167	4431953.039359509
0.8149358639083326	4440675.040948996
0.8151395978743097	4441038.054593445
0.8153433827737784	4568773.976418899
0.8155472186194719	4583711.134748086
0.8157511054241268	4626443.932403777
0.815955043200483	4697253.765850891
0.8161590319612831	4747595.471249005
0.8163630717192736	4694934.87855761
0.8165671624872033	4815561.610620457
0.8167713042778252	4872060.130354148
0.8169754971038948	4936314.471799541
0.8171797409781707	4896787.253082555
0.8173840359134155	5026384.589047256
0.8175883819223938	5036988.938075241
0.8177927790178745	5065503.527510874
0.8179972272126291	4989090.844765792
0.8182017265194322	4533599.9369672835
0.8184062769510622	4314219.048542025
0.8186108785203001	5069514.547156775
0.8188155312399301	5162889.069711065
0.8190202351227402	5115819.53901869
0.819224990181521	4697783.768009413
0.8194297964290664	3417470.329574011
0.8196346538781738	4190908.8509954344
0.8198395625416434	5162805.966037888
0.8200445224322789	5441668.004461978
0.820249533562887	5606348.715347848
0.8204545959462778	5696088.8268987285
0.8206597095952644	5768231.456687081
0.8208648745226633	5854227.598424841
0.8210700907412941	5913184.373518243
0.8212753582639793	5980142.763776313
0.8214806771035456	6039066.612577446
0.8216860472728215	6099633.701415222
0.8218914687846397	6145837.344941436
0.822096941651836	6204523.430659106
0.822302465887249	6273686.190486982
0.8225080415037209	6329728.671257188
0.8227136685140968	6296163.332925083
0.8229193469312254	6221617.683066205
0.8231250767679583	6269465.865882892
0.8233308580371503	6458711.226824902
0.8235366907516598	6503876.316550253
0.8237425749243477	6609401.326577341
0.8239485105680789	6668489.726158352
0.824154497695721	6748591.998357831
0.824360536320145	6775725.103460799
0.8245666264542252	6770402.438638181
0.8247727681108388	6940439.152462545
0.8249789613028664	7006059.648203851
0.8251852060431922	7070399.027822368
0.825391502344703	7150784.765341173
0.8255978502202894	7204941.999773476
0.8258042496828445	7236954.284163698
0.8260107007452654	7309955.368337429
0.8262172034204517	7298909.971838581
0.8264237577213068	7398206.34893881
0.8266303636607373	7475107.911807555
0.8268370212516525	7556304.159699839
0.8270437305069654	7614757.0221329145
0.8272504914395923	7665250.095641863
0.8274573040624523	7693146.965470909
0.8276641683884679	7773456.93765797
0.8278710844305652	7823799.792240983
0.8280780522016729	7921424.841161031
0.8282850717147234	7937621.934797813
0.8284921429826521	8035983.091907362
0.8286992660183978	8100350.75377856
0.8289064408349024	8110076.5700892145
0.8291136674451112	8132782.064621
0.8293209458619727	8234736.861180597
0.8295282760984382	8246453.07211602
0.829735658167463	8212059.348231839
0.8299430920820048	8428300.97210471
0.8301505778550254	8522546.567964971
0.8303581154994891	8569333.065902987
0.8305657050283641	8656707.041034207
0.8307733464546212	8631000.833632747
0.8309810397912352	8787809.102060258
0.8311887850511829	8874167.461147282
0.8313965822474458	8860972.37540216
0.8316044313930077	8993526.584102208
0.8318123325008561	9049449.392067093
0.8320202855839813	9078352.71697538
0.8322282906553774	9172164.798966333
0.8324363477280413	9193223.957484027
0.8326444568149735	9346933.089308739
0.8328526179291771	9429185.643241262
0.8330608310836596	9438705.121928105
0.8332690962914304	9456013.442282697
0.8334774135655034	9555491.650038848
0.833685782918895	9606043.04433646
0.8338942043646247	9745090.298390007
0.834102677915716	9721492.998264277
0.834311203585195	9870151.517484179
0.8345197813860912	9956503.688530983
0.8347284113314379	10052214.721760204
0.8349370934342709	10124627.809914032
0.8351458277076294	10023448.020932011
0.8353546141645565	10221698.10471312
0.8355634528180977	10175800.881438041
0.8357723436813022	10250363.16954797
0.8359812867672226	10222650.451709209
0.8361902820889144	10510366.101881428
0.8363993296594368	10328228.650049984
0.8366084294918518	10629838.465903442
0.8368175815992247	10675088.885258581
0.8370267859946247	10695129.964520682
0.8372360426911234	10877255.000602543
0.8374453517017962	10970336.505829275
0.8376547130397217	10899738.60765236
0.8378641267179816	10933332.552264564
0.8380735927496613	11177690.155099444
0.8382831111478488	11272559.705807192
0.8384926819256358	11346937.408941792
0.8387023050961173	11335628.674501633
0.8389119806723914	11354634.31550909
0.8391217086675596	11589106.118234755
0.8393314890947265	11699570.336135993
0.8395413219670003	11732009.142377062
0.8397512072974922	11809233.694159588
0.8399611450993165	11796641.965171473
0.8401711353855914	11901946.61188141
0.8403811781694378	12039225.803240914
0.8405912734639802	12017591.190333642
0.8408014212823464	12065111.17031849
0.8410116216376671	12236540.462663852
0.8412218745430766	12365959.197314993
0.8414321800117124	12474699.219109006
0.8416425380567154	12476833.481841233
0.8418529486912297	12560841.672978343
0.8420634119284025	12431183.791880202
0.8422739277813847	12677390.741861144
0.8424844962633302	12791769.334672378
0.842695117387396	12964729.21738861
0.8429057911667428	13022696.144791007
0.8431165176145345	12969249.425657136
0.8433272967439382	13150138.445037825
0.8435381285681244	13033068.761563348
0.8437490131002665	13052507.698009608
0.8439599503535415	13286649.8729855
0.84417094034113	13315048.084071083
0.8443819830762154	13265103.203911325
0.8445930785719846	13326461.226458933
0.8448042268416277	13470704.728836123
0.8450154278983382	13570261.773637107
0.8452266817553128	13640426.611599512
0.8454379884257517	13572714.04600769
0.8456493479228583	13475694.21782266
0.845860760259839	13806453.06306918
0.846072225449904	13953824.235125722
0.8462837435062666	14033967.978904182
0.8464953144421433	13906244.273150396
0.8467069382707537	14032170.180696134
0.8469186150053215	14220426.502029182
0.847130344659073	14224878.269384451
0.8473421272452377	14356210.212949598
0.8475539627770492	14382274.369076302
0.8477658512677435	14513285.656664379
0.8479777927305605	14645782.404476656
0.8481897871787432	14707830.180508299
0.848401834625538	14801651.852103882
0.8486139350841944	14866234.045846395
0.8488260885679657	14891933.850843908
0.8490382950901076	14936138.494869728
0.8492505546638802	15074315.768413527
0.8494628673025462	15028622.966432856
0.8496752330193721	15187638.680794341
0.8498876518276269	15127280.421261007
0.8501001237405839	14955998.515337018
0.8503126487715191	14988163.64338306
0.850525226933712	14924798.738248764
0.8507378582404455	14647258.168210398
0.8509505427050057	14159503.250126904
0.8511632803406821	13575445.903696474
0.8513760711607672	12329503.578259723
0.8515889151785576	10221315.564741185
0.8518018124073523	6500622.23994705
0.8520147628604541	1813075.4978282214
0.8522277665511693	2110236.325076708
0.8524408234928071	6921629.262361407
0.8526539336986805	10650618.114418987
0.8528670971821053	12882274.947232751
0.8530803139564007	14240220.411270818
0.8532935840348901	15083074.509710867
0.8535069074308987	15784475.13216545
0.8537202841577566	16225998.344295796
0.8539337142287962	16539105.0606368
0.8541471976573534	16721129.667195698
0.8543607344567677	16755854.667708017
0.8545743246403821	17171159.06319716
0.8547879682215422	17314818.871770874
0.8550016652135977	17517516.257061593
0.8552154156299011	17628129.31867447
0.8554292194838088	17761217.759033024
0.8556430767886797	17866876.927791845
0.855856987557877	18100126.75118558
0.8560709518047664	18237490.55317105
0.8562849695427177	18394640.71815751
0.8564990407851035	18463924.8711454
0.8567131655452999	18650596.78208532
0.8569273438366862	18807323.994263817
0.8571415756726455	18869240.714264918
0.8573558610665638	18575545.084615633
0.8575702000318304	18704511.330114152
0.8577845925818384	19021318.839306206
0.857999038729984	19271989.569789533
0.8582135384896665	19416021.856867697
0.858428091874289	19462435.56254244
0.8586426988972576	19594067.17849722
0.8588573595719821	19490123.03771512
0.8590720739118751	19589016.867920198
0.8592868419303532	19755675.60016408
0.8595016636408359	19862848.282987356
0.8597165390567462	19992591.816367727
0.8599314681915105	19980884.90946843
0.8601464510585584	19934501.429634884
0.860361487671323	20220308.221186183
0.8605765780432408	20281449.14992843
0.8607917221877518	20308656.253903665
0.8610069201182988	19924921.133439023
0.8612221718483286	17878641.660508793
0.8614374773912907	11965983.819595117
0.8616528367606385	14153228.631502558
0.8618682499698288	11769004.98464245
0.8620837170323213	11613606.716410082
0.8622992379615795	13425528.888020864
0.8625148127710699	13275317.703885559
0.8627304414742627	11276693.843437217
0.8629461240846313	16230438.957389986
0.8631618606156526	11897704.552488415
0.8633776510808066	11384046.31473285
0.8635934954935769	12021740.137373855
0.8638093938674504	12911704.808286319
0.8640253462159173	13681309.753685782
0.8642413525524714	12676442.929685155
0.8644574128906095	14657243.413646253
0.8646735272438323	14887604.606936831
0.8648896956256433	11805286.48229501
0.8651059180495498	15798817.076930847
0.8653221945290621	13950536.544726834
0.8655385250776946	18617822.345593046
0.8657549097089641	15953690.276532732
0.8659713484363913	15757686.195736904
0.8661878412735006	16392739.307101881
0.866404388233819	16782186.6690192
0.8666209893308775	15089238.36466214
0.8668376445782103	19855722.569740564
0.8670543539893549	16783649.09264704
0.8672711175778525	16477757.084192576
0.8674879353572469	16426165.436867774
0.8677048073410862	17984092.742806654
0.8679217335429217	18876797.47621468
0.8681387139763074	18312167.378842026
0.8683557486548015	15721615.094716195
0.8685728375919655	14852320.69914354
0.8687899808013633	18701438.773700636
0.8690071782965637	19654087.304287255
0.869224430091138	20622862.793457016
0.8694417361986609	19329849.058754984
0.8696590966327107	14992159.388673311
0.869876511406869	16290666.40459545
0.8700939805347206	18119626.68058439
0.8703115040298544	18777633.565369397
0.870529081905862	16736440.231814308
0.8707467141763385	18498829.366733313
0.8709644008548827	16129503.844057726
0.8711821419550964	15623470.280619813
0.8713999374905854	15860839.042028833
0.871617787474958	19020352.04234146
0.8718356919218269	18214447.153831847
0.8720536508448075	15729116.746305456
0.8722716642575187	17121530.946964536
0.8724897321735832	16040008.52608898
0.8727078546066265	19350379.03908643
0.8729260315702784	16650567.235726118
0.873144263078171	18614818.35576806
0.8733625491439405	19192679.91031677
0.8735808897812266	15201835.047704602
0.8737992850036719	17622545.27941992
0.874017734824923	18215832.473974887
0.8742362392586293	20065261.37610766
0.874454798318444	20090207.477678932
0.8746734120180236	20097578.431485515
0.8748920803710283	20945580.89879672
0.875110803391121	18818908.686617333
0.8753295810919689	17550090.808483597
0.875548413487242	21476177.60112948
0.8757673005906139	20884024.653480515
0.8759862424157616	22110353.626932587
0.8762052389763657	22169989.082016382
0.8764242902861098	20212510.18488193
0.8766433963586814	21862994.238759983
0.8768625572077712	18319070.764808457
0.8770817728470732	16973580.774238244
0.8773010432902849	22113781.79251269
0.8775203685511077	20896121.755884387
0.8777397486432454	25364951.09958616
0.8779591835804065	24132320.67152874
0.8781786733763015	20144059.350695185
0.8783982180446457	21429886.325844187
0.878617817599157	22665482.08180188
0.8788374720535569	18546592.56667283
0.8790571814215703	20707610.74151728
0.8792769457169257	21851500.955130994
0.879496764953355	21511186.273221973
0.8797166391445934	26578148.39337551
0.8799365683043796	26108076.7654769
0.8801565524464557	21984598.323194325
0.8803765915845676	19811811.532092948
0.8805966857324639	22255326.552081425
0.880816834903897	19754752.795820504
0.881037039112623	23399739.61834615
0.8812572983724012	23034718.706972867
0.8814776126969944	22374677.647072956
0.8816979821001687	24508933.963751834
0.8819184065956938	28336932.55174618
0.8821388861973429	26579298.105328146
0.8823594209188923	22307120.42285671
0.882580010774122	22223765.582615115
0.8828006557768155	22911123.595214967
0.8830213559407598	21648237.95247701
0.8832421112797452	28504069.278052215
0.8834629218075651	22935590.90636818
0.8836837875380171	22206654.472468395
0.8839047084849018	26189342.798954267
0.884125684662023	29608143.16259762
0.8843467160831886	29654352.089566197
0.8845678027622095	28261065.623730578
0.8847889447129001	19720206.907409526
0.8850101419490785	22594304.17008075
0.8852313944845657	24325140.649590727
0.885452702333187	31483676.32107752
0.8856740655087704	28692841.191116206
0.8858954840251476	22099944.314401384
0.8861169578961539	22589020.930768166
0.886338487135628	30907776.864395406
0.886560071757412	30358702.959352557
0.8867817117753515	29724794.63737623
0.8870034072032955	26868873.60323438
0.8872251580550963	20313252.691572957
0.8874469643446101	22929553.295547813
0.8876688260856963	25039514.315307286
0.8878907432922178	30805671.62143849
0.8881127159780409	32577822.035475027
0.8883347441570356	29902291.607771322
0.8885568278430749	20167603.45459746
0.8887789670500358	27683787.337095752
0.8890011617917983	30346680.295834985
0.8892234120822464	33180044.67131022
0.8894457179352669	31141474.717128728
0.8896680793647509	24810672.275095966
0.8898904963845921	21050511.975318134
0.8901129690086883	27739004.090502337
0.8903354972509405	33873486.6304355
0.8905580811252535	33259084.59411409
0.8907807206455347	30804661.81155323
0.8910034158256963	28722177.99085688
0.8912261666796527	22863886.779364508
0.8914489732213227	30668872.71641777
0.8916718354646282	33941645.527617306
0.8918947534234944	28937357.765751537
0.8921177271118502	25920651.01976169
0.8923407565436284	29715372.67277398
0.8925638417327644	22064518.021462586
0.8927869826931977	27983614.976787686
0.8930101794388711	28241444.73276203
0.8932334319837308	28024584.196305297
0.8934567403417267	28936889.258426722
0.8936801045268123	24084300.430300914
0.8939035245529441	16270072.370751789
0.8941270004340824	8212990.930418622
0.894350532184191	2199486.7128721774
0.8945741198172371	9479479.078216197
0.8947977633471915	17820972.09648738
0.8950214627880284	24746928.202442586
0.8952452181537254	26067886.308404032
0.8954690294582639	21367074.776448816
0.8956928967156286	29618232.242962617
0.8959168199398075	34121506.61739054
0.8961407991447926	36022180.18281566
0.8963648343445789	35841547.59706599
0.896588925553165	30890144.942748375
0.8968130727845534	25810210.763153803
0.8970372760527496	27824589.416456264
0.8972615353717629	33606077.629851885
0.8974858507556059	32376960.54773162
0.8977102222182949	34732475.16177243
0.8979346497738496	38112208.00778656
0.8981591334362931	33613531.23437152
0.8983836732196523	27803810.34930963
0.8986082691379572	34591181.87661611
0.8988329212052417	39426984.10700706
0.8990576294355432	37066126.13693419
0.8992823938429022	38539789.46883314
0.8995072144413631	39569474.59505767
0.8997320912449734	33254358.02313933
0.8999570242677847	32547535.828670528
0.9001820135238516	29744997.370891392
0.9004070590272328	37763585.710209675
0.9006321607919896	41266461.79712741
0.9008573188321878	42454192.95583464
0.9010825331618959	40281316.80087672
0.9013078037951865	33749333.572516605
0.9015331307461353	35332248.67495477
0.9017585140288219	35445928.17897742
0.9019839536573292	43253623.47937985
0.9022094496457435	43923195.19330066
0.9024350020081551	42838316.06688273
0.9026606107586572	42580598.70973924
0.902886275911347	32333287.420425694
0.9031119974803249	32875507.026427142
0.9033377754796951	37388698.78137373
0.903563609923565	41792902.54377354
0.903789500826046	47954784.15252624
0.9040154482012526	48525954.44860541
0.904241452063303	41891397.63284324
0.9044675124263188	37041872.8983102
0.9046936293044254	39774160.94720667
0.9049198027117517	40149542.76558764
0.9051460326624297	45429815.22109735
0.9053723191705955	47388428.46917322
0.9055986622503881	42930697.27312848
0.9058250619159507	44556658.655147366
0.9060515181814298	37510226.07906709
0.9062780310609752	41279916.00634886
0.9065046005687405	42347232.46931697
0.906731226718883	42398709.26324604
0.9069579095255627	46932569.33230109
0.907184649002944	43976012.49390359
0.907411445165195	45640923.529303506
0.9076382980264862	42380347.91709316
0.907865207600993	43303454.087114856
0.9080921739028933	44840888.30852284
0.9083191969463691	39910268.79956096
0.9085462767456058	45601379.67021941
0.9087734133147922	49930839.6016213
0.9090006066681211	46581013.819962144
0.909227856819788	45883651.39599136
0.9094551637839932	44777790.74087134
0.9096825275749393	48553073.80481967
0.9099099482068329	44771281.75570994
0.9101374256938848	46327984.1503726
0.9103649600503083	45672055.13166125
0.9105925512903209	54683634.122467406
0.9108201994281437	46310971.6863817
0.9110479044780008	44179740.06775712
0.9112756664541204	48694706.67621888
0.911503485370734	47919472.0872316
0.9117313612420768	52067864.56084611
0.9119592940823873	45042942.15663291
0.912187283905908	52843608.41577408
0.9124153307268845	53536894.4279179
0.9126434345595664	54180476.05298515
0.9128715954182063	47554662.679029666
0.9130998133170609	47578528.57827038
0.9133280882703902	46947343.56119138
0.913556420292458	53703005.96028665
0.9137848093975312	51561609.3391225
0.9140132555998806	47846216.189868115
0.9142417589137806	52197780.79131881
