#wavelength	surface flux
0.8	120170.72026237485
0.8002000000000001	122197.60570689474
0.8004000500000003	124419.55539962056
0.8006001500125003	126551.66408558935
0.8008003000500035	128788.65925212613
0.8010005001250161	130929.67329064953
0.8012007502500472	133427.69105567134
0.8014010504376099	135606.34390789142
0.8016014007002193	137715.65863415276
0.8018018010503944	140202.38284252488
0.8020022515006572	142282.1967344839
0.8022027520635323	144852.0181643125
0.8024033027515483	147300.72173067133
0.8026039035772362	149472.11006736715
0.8028045545531306	152324.3500117608
0.8030052556917691	154457.14957742445
0.803206007005692	157192.24490238362
0.8034068085074435	159467.13213246365
0.8036076602095705	162393.56716407376
0.8038085621246229	165104.9237675535
0.8040095142651542	167906.35036442522
0.8042105166437206	169993.93015824028
0.8044115692728815	172801.83969568321
0.8046126721651998	175413.48981432858
0.8048138253332411	178605.49452277625
0.8050150287895745	181729.80393994824
0.805216282546772	184355.21477291602
0.8054175866174087	186537.69688221952
0.8056189410140631	189813.4598264474
0.8058203457493168	192494.79273479184
0.8060218008357541	195920.8542002782
0.8062233062859632	197564.19893476626
0.8064248621125346	201492.07535670622
0.806626468328063	204795.29441178788
0.8068281249451449	207448.24027571158
0.8070298319763813	210217.14118845185
0.8072315894343755	212993.94022632207
0.8074333973317341	216837.19770654387
0.8076352556810671	220330.31077168745
0.8078371644949874	223277.74593413688
0.8080391237861113	227259.52506599747
0.8082411335670578	229087.4805091727
0.8084431938504498	232384.03834582603
0.8086453046489125	235766.20610122304
0.8088474659750746	238455.09205326627
0.8090496778415686	241943.59068388506
0.809251940261029	242623.8919270359
0.8094542532460944	249548.21673447618
0.8096566168094059	252713.42320198327
0.8098590309636085	256125.82616684158
0.8100614957213493	255954.58779031917
0.8102640110952797	261409.20269295276
0.8104665770980536	264612.9305660987
0.8106691937423283	269144.7352427651
0.8108718610407639	271532.3630335662
0.8110745790060241	273822.4844012391
0.8112773476507757	278673.46711660083
0.8114801669876885	281658.40003805055
0.8116830370294355	284060.2137786858
0.8118859577886929	294654.15375956945
0.8120889292781401	294851.9770259052
0.8122919515104597	295613.5662523775
0.8124950244983374	297411.11092564795
0.8126981482544621	306932.76671047846
0.8129013227915257	311213.60608135915
0.8131045481222237	314380.14582664083
0.8133078242592543	313720.05056366726
0.8135111512153191	317978.41278009716
0.813714529003123	320133.2231357695
0.8139179576353739	328931.01109904965
0.8141214371247829	333105.0834259391
0.8143249674840641	330955.8713400882
0.814528548725935	342508.05232147966
0.8147321808631167	349639.6269184406
0.8149358639083326	350523.3052193505
0.8151395978743097	346400.3713933412
0.8153433827737784	363710.5073565963
0.8155472186194719	362581.6587990996
0.8157511054241268	367099.71898789785
0.815955043200483	376031.0904294141
0.8161590319612831	382739.0033051321
0.8163630717192736	373474.9688416755
0.8165671624872033	386942.76388689666
0.8167713042778252	394138.3949739745
0.8169754971038948	403244.8988760628
0.8171797409781707	393378.34464701725
0.8173840359134155	413959.7939493278
0.8175883819223938	419470.1130185856
0.8177927790178745	421622.2142511015
0.8179972272126291	418295.07846056105
0.8182017265194322	424697.01909265656
0.8184062769510622	420559.82952794316
0.8186108785203001	441155.75191835035
0.8188155312399301	442891.6759486392
0.8190202351227402	448123.3118963984
0.819224990181521	441909.3691928547
0.8194297964290664	423783.98442360497
0.8196346538781738	443675.5194136277
0.8198395625416434	470057.5437107895
0.8200445224322789	473972.5421930009
0.820249533562887	484814.3537862275
0.8204545959462778	493297.8492566514
0.8206597095952644	498844.83442114893
0.8208648745226633	504443.935875407
0.8210700907412941	509829.7952924898
0.8212753582639793	516009.2762207535
0.8214806771035456	522942.12868366914
0.8216860472728215	528848.5457520214
0.8218914687846397	533200.4813062762
0.822096941651836	539478.0960889931
0.822302465887249	545251.5117208707
0.8225080415037209	551115.8841334302
0.8227136685140968	544207.8498308766
0.8229193469312254	526317.9044755431
0.8231250767679583	524439.7907600409
0.8233308580371503	552626.9727411076
0.8235366907516598	566077.1896028202
0.8237425749243477	578978.1222150351
0.8239485105680789	584070.7798427976
0.824154497695721	595817.3241583141
0.824360536320145	597921.6743370786
0.8245666264542252	595628.5185842871
0.8247727681108388	621209.4288193985
0.8249789613028664	626250.4771622176
0.8251852060431922	633038.762176777
0.825391502344703	641447.4745169783
0.8255978502202894	647639.8993474283
0.8258042496828445	648288.7915117159
0.8260107007452654	659536.8300287578
0.8262172034204517	656105.0317294543
0.8264237577213068	667896.2442912245
0.8266303636607373	674742.280378626
0.8268370212516525	687173.2440531258
0.8270437305069654	693247.0063826198
0.8272504914395923	698562.5896535598
0.8274573040624523	699485.5299019751
0.8276641683884679	704829.4780830492
0.8278710844305652	712394.8182831032
0.8280780522016729	725601.1271158151
0.8282850717147234	727328.2516665886
0.8284921429826521	736159.6652235371
0.8286992660183978	746995.8760463444
0.8289064408349024	744691.2544976842
0.8291136674451112	746565.9306255777
0.8293209458619727	763511.8749007825
0.8295282760984382	761002.437209726
0.829735658167463	751495.6157335426
0.8299430920820048	783853.9009797847
0.8301505778550254	792519.6217019294
0.8303581154994891	797896.8657250989
0.8305657050283641	807126.2509913504
0.8307733464546212	797685.1248498951
0.8309810397912352	824483.6575605669
0.8311887850511829	835216.1887580208
0.8313965822474458	827468.8977924677
0.8316044313930077	846412.8478286342
0.8318123325008561	849854.957454696
0.8320202855839813	850586.0713061634
0.8322282906553774	862756.1073228328
0.8324363477280413	858968.3640745105
0.8326444568149735	889915.2410554348
0.8328526179291771	898880.0524199794
0.8330608310836596	895662.3526014751
0.8332690962914304	892694.4754520679
0.8334774135655034	904608.1155059356
0.833685782918895	914120.9963040754
0.8338942043646247	933469.0691374196
0.834102677915716	917165.0701769543
0.834311203585195	945176.6565519241
0.8345197813860912	957165.5934497437
0.8347284113314379	970600.9395434499
0.8349370934342709	976367.8268046593
0.8351458277076294	960205.6806729746
0.8353546141645565	987988.4298206486
0.8355634528180977	974544.5388648603
0.8357723436813022	987296.0628903223
0.8359812867672226	978482.3793834436
0.8361902820889144	1022554.3242505477
0.8363993296594368	987375.5789146918
0.8366084294918518	1031384.0138182739
0.8368175815992247	1036511.1137402225
0.8370267859946247	1035437.7175952685
0.8372360426911234	1060171.2262357492
0.8374453517017962	1072396.3259152214
0.8376547130397217	1058819.460887418
0.8378641267179816	1059194.9820507534
0.8380735927496613	1095440.6588590592
0.8382831111478488	1109581.5899416667
0.8384926819256358	1117399.362200566
0.8387023050961173	1110507.3370361787
0.8389119806723914	1114828.188957657
0.8391217086675596	1148757.689173215
0.8393314890947265	1162647.952760527
0.8395413219670003	1162201.6606992774
0.8397512072974922	1169151.0672142904
0.8399611450993165	1159877.1926436157
0.8401711353855914	1178032.8969787052
0.8403811781694378	1196831.0073575138
0.8405912734639802	1189637.7672754447
0.8408014212823464	1191081.2674682843
0.8410116216376671	1216399.5571994244
0.8412218745430766	1237093.1051888
0.8414321800117124	1249929.7072283425
0.8416425380567154	1242208.8462088623
0.8418529486912297	1257247.8930822355
0.8420634119284025	1233079.8126679284
0.8422739277813847	1275474.4495353107
0.8424844962633302	1289776.6649411155
0.842695117387396	1309014.3430020856
0.8429057911667428	1313392.739219118
0.8431165176145345	1304394.675694112
0.8433272967439382	1329250.0909243147
0.8435381285681244	1327462.4337233172
0.8437490131002665	1334545.6411991129
0.8439599503535415	1358208.4831155597
0.84417094034113	1352392.6713596683
0.8443819830762154	1346746.6090932714
0.8445930785719846	1380776.3767572986
0.8448042268416277	1394326.2026464217
0.8450154278983382	1398268.3227736065
0.8452266817553128	1408745.201046094
0.8454379884257517	1416710.656238634
0.8456493479228583	1406256.1615111001
0.845860760259839	1450303.2689150139
0.846072225449904	1469575.4695381902
0.8462837435062666	1470861.9945089119
0.8464953144421433	1453849.2072121657
0.8467069382707537	1478537.1844133872
0.8469186150053215	1505024.265483801
0.847130344659073	1503038.5627648912
0.8473421272452377	1520818.9010943007
0.8475539627770492	1526775.0103367183
0.8477658512677435	1538056.070160979
0.8479777927305605	1556600.3737839472
0.8481897871787432	1566394.6494708399
0.848401834625538	1578709.9080473732
0.8486139350841944	1583934.0181882565
0.8488260885679657	1582942.870123924
0.8490382950901076	1591847.1186056952
0.8492505546638802	1613978.3875330514
0.8494628673025462	1609222.6347866957
0.8496752330193721	1631981.236385346
0.8498876518276269	1623697.5191263834
0.8501001237405839	1615209.5581495902
0.8503126487715191	1621491.5886289207
0.850525226933712	1618223.240769093
0.8507378582404455	1601041.8174666984
0.8509505427050057	1561699.4321295915
0.8511632803406821	1510070.6601148648
0.8513760711607672	1389517.611553788
0.8515889151785576	1181575.416324952
0.8518018124073523	777396.6561665593
0.8520147628604541	238745.41295040667
0.8522277665511693	273782.32720051415
0.8524408234928071	830806.3377932573
0.8526539336986805	1238758.5452924012
0.8528670971821053	1467823.42855823
0.8530803139564007	1602687.2251964877
0.8532935840348901	1683820.6202805294
0.8535069074308987	1754183.3159688215
0.8537202841577566	1796820.6559809889
0.8539337142287962	1823120.6825483162
0.8541471976573534	1848425.0713863845
0.8543607344567677	1885788.9727197636
0.8545743246403821	1910913.662654668
0.8547879682215422	1923982.4418182427
0.8550016652135977	1944033.3582847537
0.8552154156299011	1956832.4464864533
0.8554292194838088	1972077.460775363
0.8556430767886797	1985564.3404652432
0.855856987557877	2012353.8572188357
0.8560709518047664	2032476.7844783077
0.8562849695427177	2047578.4793851036
0.8564990407851035	2049820.4796848153
0.8567131655452999	2074469.2696881627
0.8569273438366862	2096073.3538863743
0.8571415756726455	2108395.744524196
0.8573558610665638	2118773.217879785
0.8575702000318304	2120274.3940301584
0.8577845925818384	2144709.0724480213
0.857999038729984	2169200.739580697
0.8582135384896665	2180953.441131498
0.858428091874289	2189305.427141433
0.8586426988972576	2207553.520317444
0.8588573595719821	2218131.859451616
0.8590720739118751	2233424.6870369427
0.8592868419303532	2248158.9951352202
0.8595016636408359	2267533.7498025713
0.8597165390567462	2282887.833361314
0.8599314681915105	2288608.4257076452
0.8601464510585584	2299903.002035127
0.860361487671323	2318252.670831284
0.8605765780432408	2331687.218523644
0.8607917221877518	2341306.0756028295
0.8610069201182988	2354302.9407391893
0.8612221718483286	2280870.7787549323
0.8614374773912907	2050140.428534338
0.8616528367606385	2155038.457854656
0.8618682499698288	2060561.9085307338
0.8620837170323213	2048700.0491048438
0.8622992379615795	2154149.4960910375
0.8625148127710699	2130346.3631699327
0.8627304414742627	2064775.6785145432
0.8629461240846313	2300588.5473108334
0.8631618606156526	2113312.698650169
0.8633776510808066	2114899.860904027
0.8635934954935769	2156030.283484693
0.8638093938674504	2209148.4229173115
0.8640253462159173	2240647.2025742624
0.8642413525524714	2197831.026301499
0.8644574128906095	2310762.483286652
0.8646735272438323	2326904.51986354
0.8648896956256433	2199366.8683281606
0.8651059180495498	2396450.1906645787
0.8653221945290621	2310977.361596071
0.8655385250776946	2542925.5859810137
0.8657549097089641	2437897.328744079
0.8659713484363913	2444394.210179955
0.8661878412735006	2492118.527030844
0.866404388233819	2518650.670217463
0.8666209893308775	2449477.4992307634
0.8668376445782103	2661662.627330076
0.8670543539893549	2531342.9496163265
0.8672711175778525	2551812.2053286475
0.8674879353572469	2550129.9849521993
0.8677048073410862	2645882.376771264
0.8679217335429217	2691521.759300957
0.8681387139763074	2668621.040674263
0.8683557486548015	2573762.792195023
0.8685728375919655	2542830.246523587
0.8687899808013633	2735979.784500202
0.8690071782965637	2782045.998285066
0.869224430091138	2842899.9495495292
0.8694417361986609	2803242.9144965857
0.8696590966327107	2588173.465801038
0.869876511406869	2678790.8686253554
0.8700939805347206	2773752.3193978616
0.8703115040298544	2821899.323906929
0.870529081905862	2736860.2489904673
0.8707467141763385	2810148.8787722806
0.8709644008548827	2706800.557739844
0.8711821419550964	2715221.7008280987
0.8713999374905854	2741827.9456363013
0.871617787474958	2917623.20855098
0.8718356919218269	2884432.495014997
0.8720536508448075	2776334.848921558
0.8722716642575187	2818788.649882259
0.8724897321735832	2793579.1897638324
0.8727078546066265	2968782.8584299805
0.8729260315702784	2855219.2365141064
0.873144263078171	2953675.5837042527
0.8733625491439405	3000751.772660077
0.8735808897812266	2815784.865068736
0.8737992850036719	2937698.16752136
0.874017734824923	2958096.5938437963
0.8742362392586293	3092947.415196366
0.874454798318444	3090531.2880753754
0.8746734120180236	3098519.3566827527
0.8748920803710283	3152942.5498509887
0.875110803391121	3060075.9123586942
0.8753295810919689	2976868.514990769
0.875548413487242	3188339.2300282447
0.8757673005906139	3172207.964398057
0.8759862424157616	3254128.325249366
0.8762052389763657	3255541.4755909294
0.8764242902861098	3173647.4030353357
0.8766433963586814	3298477.31456098
0.8768625572077712	3114165.8794165114
0.8770817728470732	3041298.0689865407
0.8773010432902849	3299858.4081112524
0.8775203685511077	3251910.542303904
0.8777397486432454	3483088.1971220495
0.8779591835804065	3417800.199114781
0.8781786733763015	3235444.6854983135
0.8783982180446457	3330973.8814309975
0.878617817599157	3400539.9735332457
0.8788374720535569	3187624.5405963403
0.8790571814215703	3330505.908644275
0.8792769457169257	3414311.622994123
0.879496764953355	3378904.2190752397
0.8797166391445934	3613400.004936266
0.8799365683043796	3601836.302624566
0.8801565524464557	3413514.526258214
0.8803765915845676	3337852.042707941
0.8805966857324639	3467056.76925219
0.880816834903897	3289739.474040743
0.881037039112623	3476949.862513525
0.8812572983724012	3469962.1708488367
0.8814776126969944	3445205.3714469234
0.8816979821001687	3523786.6448784377
0.8819184065956938	3655386.9840309825
0.8821388861973429	3563140.777587432
0.8823594209188923	3362777.5216131127
0.882580010774122	3364519.1990240626
0.8828006557768155	3397350.5710066487
0.8830213559407598	3333504.539950419
0.8832421112797452	3603570.3555018175
0.8834629218075651	3377793.563809216
0.8836837875380171	3355301.2843894414
0.8839047084849018	3539098.611755426
0.884125684662023	3710659.9933944535
0.8843467160831886	3757711.561849618
0.8845678027622095	3748355.0071065896
0.8847889447129001	3375082.6599090504
0.8850101419490785	3530751.0911007393
0.8852313944845657	3580080.9033900243
0.885452702333187	3865856.954893996
0.8856740655087704	3791795.095558452
0.8858954840251476	3505387.3695829264
0.8861169578961539	3501987.726921875
0.886338487135628	3843162.3265926572
0.886560071757412	3831956.1230902523
0.8867817117753515	3741064.3710294464
0.8870034072032955	3597644.2841069466
0.8872251580550963	3262910.8891113815
0.8874469643446101	3391220.9060783074
0.8876688260856963	3523706.3069277555
0.8878907432922178	3776720.1916949134
0.8881127159780409	3861867.776651775
0.8883347441570356	3803962.4291796493
0.8885568278430749	3385105.1497280407
0.8887789670500358	3806229.4025465334
0.8890011617917983	3907596.6019736826
0.8892234120822464	4075204.8893084186
0.8894457179352669	4031984.640512815
0.8896680793647509	3771946.320299171
0.8898904963845921	3528995.9791046116
0.8901129690086883	3855347.9098933344
0.8903354972509405	4086146.2157658776
0.8905580811252535	4084311.4517719215
0.8907807206455347	3980800.2523689796
0.8910034158256963	3839376.2628743416
0.8912261666796527	3540638.215139933
0.8914489732213227	3907652.6221589753
0.8916718354646282	4004392.8071811534
0.8918947534234944	3817618.2160902047
0.8921177271118502	3666699.414278896
0.8923407565436284	3829524.434846028
0.8925638417327644	3409855.308639199
0.8927869826931977	3686709.178489551
0.8930101794388711	3624377.3864322957
0.8932334319837308	3508149.0056575136
0.8934567403417267	3446496.9378434964
0.8936801045268123	2900511.197552505
0.8939035245529441	2333785.8122425517
0.8941270004340824	1252900.765158788
0.894350532184191	350032.93350187305
0.8945741198172371	1317951.8431955047
0.8947977633471915	2395407.7422637763
0.8950214627880284	3059981.2225586423
0.8952452181537254	3442878.860846428
0.8954690294582639	3328535.3372126534
0.8956928967156286	3587834.9841897488
0.8959168199398075	4042289.248641234
0.8961407991447926	4263658.693943946
0.8963648343445789	4202391.721391833
0.896588925553165	3866830.0082293614
0.8968130727845534	3873610.5336938053
0.8970372760527496	4170374.982222781
0.8972615353717629	4257090.350521378
0.8974858507556059	4154365.933385692
0.8977102222182949	4486083.275277631
0.8979346497738496	4760055.0370305
0.8981591334362931	4562461.8255522
0.8983836732196523	4182619.433311199
0.8986082691379572	4649553.879263352
0.8988329212052417	4617305.06304184
0.8990576294355432	4393146.633127957
0.8992823938429022	4464912.78714745
0.8995072144413631	4696196.87041049
0.8997320912449734	4800265.929012801
0.8999570242677847	4802682.890366576
0.9001820135238516	4467848.493132257
0.9004070590272328	4934427.274832625
0.9006321607919896	5093593.537880922
0.9008573188321878	5080667.727113733
0.9010825331618959	4925319.939786623
0.9013078037951865	4973052.543438456
0.9015331307461353	5077542.134836083
0.9017585140288219	5032269.6295623835
0.9019839536573292	5207833.003218963
0.9022094496457435	5571321.761034419
0.9024350020081551	5391498.3283478115
0.9026606107586572	5456797.384414433
0.902886275911347	5076979.267814595
0.9031119974803249	5226770.917154008
0.9033377754796951	5387774.042358764
0.903563609923565	5613536.746621953
0.903789500826046	5832661.256519389
0.9040154482012526	5896955.277180912
0.904241452063303	5658612.163332408
0.9044675124263188	5489869.175351948
0.9046936293044254	5661297.813124141
0.9049198027117517	5645603.347147555
0.9051460326624297	5891858.495844611
0.9053723191705955	6002054.7085890025
0.9055986622503881	5881594.190790849
0.9058250619159507	6010594.638937718
0.9060515181814298	5767996.674128171
0.9062780310609752	5868175.722870338
0.9065046005687405	5855558.266128912
0.906731226718883	5933415.440009663
0.9069579095255627	6141409.118638431
0.907184649002944	5878866.403566727
0.907411445165195	5888259.011480758
0.9076382980264862	5943649.446398335
0.907865207600993	6119789.303479336
0.9080921739028933	6007220.333111168
0.9083191969463691	5748465.679588022
0.9085462767456058	6296903.796186161
0.9087734133147922	6282498.298446797
0.9090006066681211	5981162.181131149
0.909227856819788	6261932.63291561
0.9094551637839932	6210398.657412347
0.9096825275749393	6316275.506014413
0.9099099482068329	6253376.339497967
0.9101374256938848	6229840.079178241
0.9103649600503083	6250658.88018938
0.9105925512903209	6590015.516434802
0.9108201994281437	5677628.249371422
0.9110479044780008	5886440.9141871
0.9112756664541204	6506930.136827195
0.911503485370734	6506608.144364687
0.9117313612420768	6614129.2579670185
0.9119592940823873	6308578.452652905
0.912187283905908	6505841.880750422
0.9124153307268845	6766731.1274075825
0.9126434345595664	6797374.612061004
0.9128715954182063	6435979.4739697315
0.9130998133170609	5721931.207534185
0.9133280882703902	6097811.920876166
0.913556420292458	6655070.905732152
0.9137848093975312	6294080.093573391
0.9140132555998806	6369153.000151985
0.9142417589137806	6856595.744065218
