#wavelength	surface flux
0.6450077295303345	1.7643115321060636e+22
0.6472567915916443	2.9421437284107525e+22
0.6494921445846558	4.2835607334628425e+22
0.6517150402069092	5.831383839559842e+22
0.6539263725280762	6.803903015865455e+22
0.6561272740364075	5.6317485968605254e+22
0.6583186388015747	3.791214055919902e+22
0.6605015397071838	3.087802848965066e+22
0.6626768708229065	2.843538002874264e+22
0.6648455858230591	2.1758500391456327e+22
0.6670085787773132	1.343902282438775e+22
0.6691668033599854	9.459175740218966e+21
0.6713210344314575	8.379328278882122e+21
0.6734722256660461	8.936414723707425e+21
0.6756211519241333	1.3810915888696517e+22
0.6777685880661011	2.090712830386183e+22
0.6799154281616211	2.9863864339237247e+22
0.6820623278617859	4.957313871042178e+22
0.6842101216316223	7.701297054999823e+22
0.6863595843315125	1.1300846451375844e+23
0.688511312007904	2.170038181878506e+23
0.6906660795211792	4.002117186575495e+23
0.6928245425224304	5.5849641383876935e+23
0.6949873566627502	7.534149628413851e+23
0.6971551775932312	1.0713143822010164e+24
0.6993286609649658	1.3777835243274868e+24
0.7015084028244019	1.6438552162760096e+24
0.7036949396133423	1.6751568700068656e+24
0.7058889269828796	1.029527204257166e+24
0.7080909013748169	2.5634601931673193e+23
0.710301399230957	1.5560043834394752e+22
0.712520956993103	9.7890398459595e+21
0.7147500514984131	1.1601289042139657e+22
0.7169892191886902	2.186093428051777e+22
0.7192389369010925	4.083280273875368e+22
0.7214996814727783	7.714767229198116e+22
0.723771870136261	1.5745282765311008e+23
0.7260559797286987	2.8109623414549778e+23
0.7283523678779602	4.166621502987678e+23
0.7306615710258484	5.560397090574326e+23
0.7329838871955872	6.507656741610949e+23
0.7353196740150452	6.635145563152655e+23
0.7376693487167358	6.392776624090097e+23
0.7400332689285278	5.7510494816946604e+23
0.7424117922782898	4.833487407754009e+23
0.7448052167892456	3.982896550236457e+23
0.7472138404846191	3.155386443058313e+23
0.7496379613876343	2.3523741318783434e+23
0.7520779371261597	1.5702910207076315e+23
0.7545340061187744	9.070251022657788e+22
0.7570064663887024	4.486757896503189e+22
0.7594954967498779	1.8202633870598212e+22
0.7620013952255249	5.716496117224283e+21
0.7645244002342224	1.2928175464044125e+21
0.7670646905899048	1.8893806024601482e+20
0.7696225643157959	1.979749886861417e+20
0.7721980810165405	1.5632301291422113e+21
0.7747915983200073	6.424496710566701e+21
0.7774031162261963	1.4237197095229708e+22
0.7800329327583313	3.0871469444742565e+22
0.7826811671257019	7.83195767553753e+22
0.7853479981422424	1.6131816037188037e+23
0.7880334854125977	2.7558120365690657e+23
0.7907378077507019	3.692028007088155e+23
0.7934610247612	3.881092083625094e+23
0.7962033748626709	5.790597621728338e+23
0.7989648580551147	1.1695404042755314e+24
0.801745593547821	2.0463291966797023e+24
0.8045456409454346	3.116520480896141e+24
0.8073651194572449	4.4542122855896136e+24
0.8102040886878967	6.177419108040407e+24
0.8130625486373901	8.341700040203879e+24
0.8159406185150146	1.0591101451466465e+25
0.8188382983207703	1.1491743128613332e+25
0.8217556476593018	1.0798749825052076e+25
0.8246926665306091	1.0155515566174424e+25
0.8276493549346924	9.405215725252372e+24
0.8306257724761963	7.438981877818131e+24
0.8336219191551208	4.5250303297885487e+24
0.8366377949714661	2.0517047838007766e+24
0.8396733403205872	1.0497822491160994e+24
0.8427285552024841	9.848595413595904e+23
0.8458034992218018	1.1548111537600387e+24
0.8488980531692505	1.7204578333817767e+24
0.8520121574401855	3.21164279079835e+24
0.8551458716392517	5.991091199239001e+24
0.8582990765571594	9.922534511028954e+24
0.8614717125892639	1.416829020924185e+25
0.8646637797355652	1.6884548821092498e+25
0.8678751587867737	1.720722220192379e+25
0.8711057901382446	1.7561110883827881e+25
0.8743556141853333	1.95281618216297e+25
0.87762451171875	2.1899781575369604e+25
0.8809124231338501	2.5450839783029736e+25
0.8842192888259888	2.7916517355774855e+25
0.8875449895858765	2.4726065178747013e+25
0.8908893465995789	2.0612297211179883e+25
0.894252359867096	2.575504765395571e+25
0.8976338505744934	3.7788319225348155e+25
0.9010337591171265	4.3404167135282615e+25
0.9044519662857056	3.824136536918876e+25
0.9078882932662964	2.728641562509663e+25
0.9113426208496094	1.959248918589112e+25
0.914814829826355	1.7606115216825001e+25
0.9183048605918884	1.6362477655762737e+25
0.9218124747276306	1.424210979954937e+25
0.925337553024292	8.973096907892737e+24
0.9288799166679382	3.18030526191413e+24
0.9324395060539246	3.379245063713672e+24
0.9360161423683167	8.940073203609251e+24
0.9396095871925354	1.288614538203175e+25
0.943219780921936	1.331382372331923e+25
0.9468464851379395	1.5097385640322395e+25
0.9504896402359009	1.61010939417629e+25
0.9541489481925964	1.209342642080067e+25
0.9578243494033813	7.234616020968731e+24
0.9615156054496765	5.610838130757499e+24
0.9652225375175476	7.729613091430467e+24
0.9689450263977051	1.2184771712273929e+25
0.9726828336715698	1.428939290201872e+25
0.9764357805252075	1.4717982590989066e+25
0.9802037477493286	1.9180949575871852e+25
0.983986496925354	3.2909668288041804e+25
0.9877838492393494	4.594340688085586e+25
0.9915955662727356	4.061214612665456e+25
0.9954215884208679	3.333851565650228e+25
0.9992615580558777	3.5641443413791997e+25
1.0031154155731201	3.6231982842304438e+25
1.0069829225540161	3.728365698644654e+25
1.0108637809753418	4.2027038523211526e+25
1.0147579908370972	4.863875259236422e+25
1.018665075302124	5.6710108921942444e+25
1.022585153579712	6.803735659329426e+25
1.0265177488327026	8.291441264433859e+25
1.0304628610610962	1.0045585788193076e+26
1.0344202518463135	1.2075398609449458e+26
1.0383895635604858	1.444561164977183e+26
1.0423706769943237	1.698947114378248e+26
1.0463634729385376	1.760325789608484e+26
1.0503677129745483	1.4758377792098502e+26
1.0543830394744873	1.1297010010236762e+26
1.058409333229065	9.441497145375385e+25
1.0624464750289917	9.118066883326912e+25
1.0664942264556885	1.0436632270336546e+26
1.0705522298812866	1.3184704794402458e+26
1.0746204853057861	1.6790432992052e+26
1.0786986351013184	2.0249550289381473e+26
1.0827864408493042	2.2368690946563096e+26
1.086883783340454	2.0168894371426567e+26
1.0909905433654785	1.3740035521404878e+26
1.0951062440872192	8.473349180208404e+25
1.0992310047149658	6.0275014482248785e+25
1.10336434841156	4.503924516980141e+25
1.1075061559677124	3.3442887017871294e+25
1.1116561889648438	2.7049265400336307e+25
1.115814208984375	2.2127869803209932e+25
1.1199802160263062	1.5633608471567906e+25
1.124153733253479	9.729498509816467e+24
1.1283347606658936	5.262696228283155e+24
1.1325229406356812	2.8809048006602023e+24
1.1367181539535522	2.918500943819782e+24
1.1409201622009277	4.4882811433980096e+24
1.145128846168518	9.135333144635602e+24
1.1493438482284546	1.3445759949853935e+25
1.1535650491714478	1.1959639879976502e+25
1.1577922105789185	1.2826492783959876e+25
1.1620250940322876	2.1087724083264846e+25
1.1662636995315552	3.133011029513766e+25
1.170507550239563	4.186361710012672e+25
1.174756646156311	5.548278221228224e+25
1.1790107488632202	7.665969236009132e+25
1.1832695007324219	1.0444053638054354e+26
1.1875330209732056	1.4050268998806198e+26
1.191800832748413	1.740531924262226e+26
1.1960728168487549	1.7406999443940487e+26
1.2003488540649414	1.574010673202115e+26
1.2046287059783936	1.6699243843943976e+26
1.2089121341705322	1.908924637748594e+26
1.2131990194320679	2.0326927137433076e+26
1.2174891233444214	2.283512752340366e+26
1.2217823266983032	2.752450026571602e+26
1.2260783910751343	3.190497914828916e+26
1.230377197265625	3.475935036394721e+26
1.2346785068511963	3.602547408199928e+26
1.238982081413269	3.5569405623080585e+26
1.2432878017425537	3.429015405966031e+26
1.2475954294204712	3.513837624470029e+26
1.2519049644470215	3.862667747707972e+26
1.256216049194336	4.415482744078206e+26
1.2605286836624146	4.850834471494495e+26
1.2648425102233887	5.00810830694824e+26
1.2691574096679688	4.88890761884894e+26
1.2734732627868652	4.361467504093073e+26
1.2777899503707886	3.7451469016087424e+26
1.2821072340011597	3.245036192662068e+26
1.2864248752593994	2.653200648060773e+26
1.2907428741455078	1.9903941118964733e+26
1.2950609922409058	1.7388714648247892e+26
1.2993791103363037	1.810255235432693e+26
1.303696870803833	1.7306519352507568e+26
1.3080145120620728	1.4905989743847968e+26
1.3123314380645752	1.127355018437946e+26
1.3166478872299194	7.468891379416922e+25
1.3209635019302368	5.012326359445092e+25
1.3252781629562378	3.154298609021005e+25
1.3295916318893433	1.4230737841428964e+25
1.3339040279388428	4.338866691445165e+24
1.3382149934768677	1.3459670938320807e+24
1.3425244092941284	6.832481328786966e+23
1.3468321561813354	4.8130493776487455e+23
1.3511382341384888	3.103047453312416e+23
1.3554422855377197	1.367175325050577e+23
1.3597444295883179	7.085059935056199e+22
1.3640443086624146	7.682068507596767e+22
1.3683418035507202	1.1383107830265462e+23
1.3726370334625244	1.6409483527466493e+23
1.3769296407699585	1.8189887002533057e+23
1.381219506263733	1.3628687310460372e+23
1.3855066299438477	1.1312392420737939e+23
1.3897908926010132	1.4227493790848604e+23
1.3940720558166504	1.4006673312642666e+23
1.3983501195907593	1.2320033710473479e+23
1.4026249647140503	1.3202907016023837e+23
1.4068963527679443	1.5971395104870523e+23
1.4111642837524414	1.7881996250592936e+23
1.4154287576675415	1.621199857567072e+23
1.419689416885376	1.4717834109923997e+23
1.4239463806152344	2.0699108855190002e+23
1.4281994104385376	3.389189195591765e+23
1.4324485063552856	3.9329436457488334e+23
1.436693549156189	3.7334645861682764e+23
1.440934419631958	4.388342703292388e+23
1.4451709985733032	6.9300466000047e+23
1.449403166770935	9.964636895957851e+23
1.453631043434143	1.3649399457126936e+24
1.4578542709350586	2.02073045572239e+24
1.4620729684829712	2.232472559153691e+24
1.4662868976593018	1.687710002278458e+24
1.4704961776733398	1.3156665691220274e+24
1.4747005701065063	1.3992511605752176e+24
1.4788999557495117	1.5333046903139646e+24
1.4830944538116455	1.808737266237878e+24
1.4872838258743286	2.435910905957128e+24
1.491468071937561	3.3563195505877305e+24
1.4956470727920532	4.1440266005849705e+24
1.4998208284378052	4.956728209033846e+24
1.5039892196655273	6.462666827712393e+24
1.5081522464752197	8.456958826256119e+24
1.5123097896575928	1.100265629678497e+25
1.5164618492126465	1.4632163978308422e+25
1.5206083059310913	1.982582497191094e+25
1.5247491598129272	2.5417976385404997e+25
1.5288842916488647	3.1376393908287046e+25
1.5330137014389038	4.138634958106768e+25
1.5371372699737549	5.502028177452985e+25
1.541254997253418	7.339616303513602e+25
1.545366883277893	1.0035438604798721e+26
1.5494728088378906	1.2531396151600608e+26
1.5535727739334106	1.4711555120432395e+26
1.5576666593551636	1.7370771961759617e+26
1.561754584312439	2.0022896532806552e+26
1.5658363103866577	2.3665502381127338e+26
1.5699119567871094	2.7251379732067663e+26
1.5739814043045044	2.9460071648751916e+26
1.5780447721481323	3.3079664344228144e+26
1.582101821899414	3.640489771265142e+26
1.5861525535583496	3.7079069097602214e+26
1.5901970863342285	3.896836875812508e+26
1.5942351818084717	4.177468559824315e+26
1.5982669591903687	4.320430142623668e+26
1.6022924184799194	4.568505621808458e+26
1.606311559677124	4.80686489365407e+26
1.6103241443634033	4.811180452928821e+26
1.6143304109573364	4.50315034925018e+26
1.6183301210403442	3.294479482744822e+26
1.6223233938217163	1.6711956396556053e+26
1.6263102293014526	8.839883432087263e+25
1.6302905082702637	7.002939514623757e+25
1.634264349937439	6.42998569107197e+25
1.638231635093689	9.449731996880124e+25
1.6421923637390137	1.4491764543179798e+26
1.646146535873413	1.4980410769486666e+26
1.6500942707061768	1.3565464547342267e+26
1.6540353298187256	1.4662188355026976e+26
1.6579699516296387	1.5479880957722435e+26
1.661897897720337	1.4501754149422857e+26
1.6658192873001099	1.0002785159156949e+26
1.6697341203689575	6.293097867854505e+25
1.6736423969268799	9.768089584052215e+25
1.677544116973877	1.4565954247012476e+26
1.6814392805099487	1.2459707761351935e+26
1.6853278875350952	6.718062236289223e+25
1.6892099380493164	3.8038699890408997e+25
1.6930854320526123	3.1247883500930185e+25
1.696954369544983	2.1567540400111425e+25
1.7008168697357178	9.679993859977312e+24
1.7046726942062378	5.638005084217226e+24
1.708522081375122	1.4731469656995408e+25
1.712364912033081	4.419864076891926e+25
1.7162011861801147	7.354433751965182e+25
1.7200311422348022	5.723431006062657e+25
1.723854422569275	2.077106268309227e+25
1.7276713848114014	6.958815701570966e+24
1.731481909751892	7.044044837827532e+24
1.7352858781814575	1.108942713695859e+25
1.7390835285186768	1.6079912088622862e+25
1.7428747415542603	1.9095004138354934e+25
1.7466596364974976	1.9035886160467648e+25
1.7504380941390991	1.880652825594933e+25
1.7542102336883545	2.186634862758304e+25
1.7579760551452637	2.42746826170527e+25
1.7617355585098267	2.019102927480375e+25
1.7654887437820435	1.5048426456203645e+25
1.7692357301712036	1.1778872647182246e+25
1.7729763984680176	8.303857053604998e+24
1.776710867881775	9.10106495102398e+24
1.7804391384124756	1.2085014376754473e+25
1.7841613292694092	1.0221486884650955e+25
1.7878772020339966	7.213671532541413e+24
1.7915871143341064	5.241331170608817e+24
1.7952908277511597	4.7878314232544514e+24
1.7989884614944458	5.743666108607499e+24
1.8026801347732544	5.352551405888786e+24
1.806365728378296	5.110254789100541e+24
1.8100452423095703	4.557084133310626e+24
1.8137187957763672	3.671727529276182e+24
1.817386507987976	4.890641670573828e+24
1.8210482597351074	8.680752537937125e+24
1.8247040510177612	9.807894491942178e+24
1.828354001045227	5.93773449283939e+24
1.8319982290267944	3.079038517260738e+24
1.8356364965438843	2.765223260499495e+24
1.8392690420150757	3.0732621887398154e+24
1.8428958654403687	3.688447144300493e+24
1.8465168476104736	3.511318360760927e+24
1.8501322269439697	2.917181158248468e+24
1.8537418842315674	2.5907609711526307e+24
1.8573459386825562	2.5385492365621656e+24
1.860944390296936	2.7080421150124535e+24
1.864537239074707	2.590658213005724e+24
1.8681244850158691	2.3965382643979783e+24
1.871706247329712	1.7311016442729164e+24
1.8752825260162354	1.1905862072557839e+24
1.8788533210754395	2.1133823114828473e+24
1.8824186325073242	3.319451134435315e+24
1.8859784603118896	3.9270844220538505e+24
1.8895330429077148	4.1149029771323256e+24
1.8930821418762207	3.8971803686823967e+24
1.8966259956359863	5.168070221556002e+24
1.9001644849777222	1.0467799801358074e+25
1.9036977291107178	1.3348783955746057e+25
1.9072256088256836	9.673790820467066e+24
1.9107483625411987	5.009889718034067e+24
1.9142658710479736	3.686467496542102e+24
1.9177782535552979	5.472010266174981e+24
1.9212853908538818	5.150746845032919e+24
1.9247875213623047	2.8834231970717935e+24
1.9282845258712769	2.0082392233205083e+24
1.9317764043807983	2.439552592460746e+24
1.9352631568908691	3.536821242813326e+24
1.9387450218200684	4.7485982479587355e+24
1.942221760749817	6.816214559767388e+24
1.9456936120986938	7.68900887128401e+24
1.9491604566574097	6.358853309498652e+24
1.952622413635254	5.686925309829527e+24
1.956079363822937	6.218824521670104e+24
1.959531545639038	7.586724683448876e+24
1.962978720664978	8.562252623260992e+24
1.966421127319336	9.070618945503886e+24
1.9698586463928223	1.0200330302058618e+25
1.9732913970947266	1.1580347444830383e+25
1.9767193794250488	1.2757035404048042e+25
1.9801424741744995	1.3722586012840528e+25
1.9835609197616577	1.7692950034399045e+25
1.9869745969772339	2.03818194826887e+25
1.990383505821228	2.271638853244745e+25
1.9937876462936401	2.919064020433735e+25
1.9971871376037598	3.223686238487283e+25
2.000581979751587	3.677103100808742e+25
2.003972291946411	4.457884286977726e+25
2.007357597351074	5.3464796385961325e+25
2.0107386112213135	6.106292881519925e+25
2.0141148567199707	5.317309332113618e+25
2.017486572265625	4.839825365600527e+25
2.0208535194396973	6.500370764648817e+25
2.0242159366607666	7.778266043593436e+25
2.027573823928833	6.935212783568148e+25
2.0309269428253174	6.4526864355349185e+25
2.034275770187378	7.483617425162454e+25
2.0376198291778564	7.6309901778088775e+25
2.040959596633911	7.556021239944464e+25
2.044294595718384	8.528045356472267e+25
2.0476250648498535	8.789037854916232e+25
2.0509510040283203	8.356815493871487e+25
2.054272413253784	8.998124923977642e+25
2.057589530944824	9.826921227241048e+25
2.0609018802642822	9.875236605052035e+25
2.0642096996307373	9.871684659122791e+25
2.0675129890441895	1.008838375798935e+26
2.0708119869232178	1.0415028694685606e+26
2.074106216430664	1.0570653010502367e+26
2.0773961544036865	1.0404541413279289e+26
2.080681324005127	1.0265188158458041e+26
2.0839622020721436	1.0312822574592524e+26
2.087238311767578	1.0345190327278415e+26
2.090510129928589	1.052148674606325e+26
2.0937774181365967	1.0972204774890768e+26
2.0970399379730225	1.125217086840884e+26
2.1002981662750244	1.1041695557338577e+26
2.1035518646240234	1.0782253813170108e+26
2.1068007946014404	1.0921558618912053e+26
2.1100454330444336	1.1088015771378007e+26
2.1132853031158447	1.0968486342132166e+26
2.116520881652832	1.0873138831727487e+26
2.1197516918182373	1.096294356761885e+26
2.1229779720306396	1.1099151650296935e+26
2.12619948387146	1.109099140245459e+26
2.1294167041778564	1.1089882457276556e+26
2.132629156112671	1.1193812742476004e+26
2.1358368396759033	1.1104038591663145e+26
2.139039993286133	1.0582514992743697e+26
2.1422386169433594	9.744435258236491e+25
2.145432472229004	8.976921212743327e+25
2.1486217975616455	7.931700315349189e+25
2.151806354522705	6.928084721342347e+25
2.1549863815307617	6.8819992783607e+25
2.1581614017486572	7.420233877742593e+25
2.16133189201355	7.684334148573735e+25
2.1644976139068604	7.620797837271788e+25
2.167658567428589	7.685838318743491e+25
2.1708147525787354	8.049069027338513e+25
2.173966407775879	8.35871594528908e+25
2.1771130561828613	8.401077381239489e+25
2.1802549362182617	8.499313853610113e+25
2.183391809463501	8.623699883480682e+25
2.1865241527557373	8.955228636230356e+25
2.1896514892578125	9.458005354178352e+25
2.1927738189697266	9.373980259425951e+25
2.1958916187286377	7.2082220507994325e+25
2.1990041732788086	3.3849306591874668e+25
2.2021119594573975	1.2574918390426765e+25
2.2052149772644043	2.234593956054533e+25
2.208312749862671	4.911021659460826e+25
2.2114057540893555	6.679193429188805e+25
2.214493751525879	5.866831732626855e+25
2.217576742172241	3.676680424635914e+25
2.2206547260284424	2.0459327139280564e+25
2.2237277030944824	1.243791901721791e+25
2.2267956733703613	8.417444120844212e+24
2.2298583984375	6.92691433375352e+24
2.2329163551330566	6.432761819492212e+24
2.235969066619873	7.035381913870243e+24
2.2390167713165283	7.438633956460089e+24
2.2420592308044434	6.475974936461049e+24
2.2450966835021973	5.351239663522243e+24
2.248128890991211	4.3663804488602347e+24
2.2511560916900635	3.6440403843232097e+24
2.254178285598755	3.865334194088415e+24
2.257194995880127	6.233841119447835e+24
2.260206699371338	9.078738177532458e+24
2.2632133960723877	9.806936393725467e+24
2.266214609146118	9.257395803262018e+24
2.2692108154296875	1.036837059564452e+25
2.2722020149230957	1.39272459188366e+25
2.2751877307891846	1.5066709312515584e+25
2.278168201446533	1.498299738889918e+25
2.2811436653137207	1.4187618511785522e+25
2.284113883972168	9.41293064656836e+24
2.287078857421875	5.008697027895296e+24
2.290038824081421	3.509650731848701e+24
2.2929933071136475	2.9564551515652544e+24
2.295942783355713	2.430740060261373e+24
2.298887014389038	2.551232772311762e+24
2.301826238632202	3.356720696443663e+24
2.304760217666626	5.3937070676427e+24
2.3076889514923096	1.464282960533129e+25
2.310612440109253	3.481107502387008e+25
2.3135311603546143	4.405033086398758e+25
2.3164443969726562	2.6328750853560223e+25
2.319352865219116	7.288877837632176e+24
2.322256088256836	4.6360150298008296e+24
2.3251543045043945	9.773129768055278e+24
2.328047275543213	1.3919448439685409e+25
2.330935478210449	1.157678093394046e+25
2.3338186740875244	6.141866531089072e+24
