#wavelength	surface flux
0.6450077295303345	209.50429631416526
0.6472567915916443	333.9453958095059
0.6494921445846558	450.8080445172787
0.6517150402069092	534.905324781112
0.6539263725280762	621.7851905174372
0.6561272740364075	715.628714975184
0.6583186388015747	824.8230626333459
0.6605015397071838	957.1768756799938
0.6626768708229065	1104.831226505771
0.6648455858230591	1268.1196729496119
0.6670085787773132	1426.8025968086645
0.6691668033599854	1515.9094148900326
0.6713210344314575	1639.1084892514957
0.6734722256660461	1940.347889830675
0.6756211519241333	2256.835948040961
0.6777685880661011	2482.0482649008995
0.6799154281616211	2684.0048176610217
0.6820623278617859	2874.8339365778597
0.6842101216316223	3046.300829112738
0.6863595843315125	3177.135902111782
0.688511312007904	3209.565919446722
0.6906660795211792	3015.1878768924885
0.6928245425224304	2725.3792020443393
0.6949873566627502	2742.2788151557093
0.6971551775932312	2959.965299233732
0.6993286609649658	2975.703214856142
0.7015084028244019	2821.6702789207743
0.7036949396133423	2691.3030484358974
0.7058889269828796	2601.1212651284013
0.7080909013748169	2512.2420497504645
0.710301399230957	2396.8105391573554
0.712520956993103	2225.201905414534
0.7147500514984131	1932.5584030619502
0.7169892191886902	1547.8973982580055
0.7192389369010925	1309.3553128866645
0.7214996814727783	1243.9410539892162
0.723771870136261	1172.9390228560794
0.7260559797286987	1094.1110922090782
0.7283523678779602	1037.893502588184
0.7306615710258484	971.894437071629
0.7329838871955872	946.9456900827603
0.7353196740150452	948.3295193723313
0.7376693487167358	911.4610822813239
0.7400332689285278	874.5579906584582
0.7424117922782898	850.1385050694246
0.7448052167892456	827.5370411246303
0.7472138404846191	798.6104705072096
0.7496379613876343	750.7570963641523
0.7520779371261597	685.8126784881342
0.7545340061187744	608.3180089412084
0.7570064663887024	519.2677474857895
0.7594954967498779	419.600508575873
0.7620013952255249	305.6417129348655
0.7645244002342224	184.3961275925026
0.7670646905899048	104.72119163536632
0.7696225643157959	116.3662860430994
0.7721980810165405	237.2401765757245
0.7747915983200073	433.644287276427
0.7774031162261963	619.9570763555287
0.7800329327583313	801.3586235918312
0.7826811671257019	1077.4347294000738
0.7853479981422424	1411.3456708100555
0.7880334854125977	1742.6516821467806
0.7907378077507019	2043.6764956329293
0.7934610247612	2225.1844536977756
0.7962033748626709	2565.761791033358
0.7989648580551147	3227.006038272673
0.801745593547821	3888.3749393050643
0.8045456409454346	4437.81129680975
0.8073651194572449	4762.625332672396
0.8102040886878967	4767.22695523277
0.8130625486373901	4877.712210325906
0.8159406185150146	5705.34003802238
0.8188382983207703	7099.67157690455
0.8217556476593018	8285.315525445072
0.8246926665306091	9716.711961917032
0.8276493549346924	11658.664612864233
0.8306257724761963	13507.040294157721
0.8336219191551208	15556.739959804381
0.8366377949714661	18201.483943415227
0.8396733403205872	21666.93700763402
0.8427285552024841	26067.689908993747
0.8458034992218018	31331.293678053018
0.8488980531692505	35897.91884203312
0.8520121574401855	40666.41035672916
0.8551458716392517	51150.3340774346
0.8582990765571594	64781.17663653619
0.8614717125892639	76184.90978860523
0.8646637797355652	86300.11780859684
0.8678751587867737	95647.28562778562
0.8711057901382446	104526.37168985396
0.8743556141853333	112526.65415203029
0.87762451171875	118934.50178174996
0.8809124231338501	127936.51487431368
0.8842192888259888	142275.46694437772
0.8875449895858765	145978.1800293184
0.8908893465995789	120170.96875440756
0.894252359867096	90497.96801290911
0.8976338505744934	99444.82777901273
0.9010337591171265	146828.3900321017
0.9044519662857056	202709.30494136058
0.9078882932662964	230277.6703634552
0.9113426208496094	220970.61535941027
0.914814829826355	195767.02998579296
0.9183048605918884	190630.64394095994
0.9218124747276306	197186.83362672842
0.925337553024292	146857.1323569636
0.9288799166679382	62193.58633924634
0.9324395060539246	21040.214870105898
0.9360161423683167	21797.21532939276
0.9396095871925354	32880.08597877637
0.943219780921936	39893.73926605242
0.9468464851379395	41840.11428592106
0.9504896402359009	42469.93452329277
0.9541489481925964	41070.44581468061
0.9578243494033813	38655.51829018738
0.9615156054496765	45060.61405940857
0.9652225375175476	68713.10674856472
0.9689450263977051	97093.43490028945
0.9726828336715698	108140.48389473378
0.9764357805252075	109947.92737507363
0.9802037477493286	120853.81531619461
0.983986496925354	140227.50587324667
0.9877838492393494	173077.991063081
0.9915955662727356	226805.66700258307
0.9954215884208679	289883.60350505786
0.9992615580558777	328040.98117236857
1.0031154155731201	369397.3015819284
1.0069829225540161	451629.1681532471
1.0108637809753418	529339.8924407981
1.0147579908370972	590351.8830779803
1.018665075302124	663549.6000447487
1.022585153579712	794916.9284098311
1.0265177488327026	996187.8854801352
1.0304628610610962	1162318.4967084546
1.0344202518463135	1295295.7614898058
1.0383895635604858	1535553.484496422
1.0423706769943237	1853007.906690479
1.0463634729385376	2120033.4297273075
1.0503677129745483	2379904.4649525764
1.0543830394744873	2705216.284952417
1.058409333229065	2942799.4130367544
1.0624464750289917	3037944.6275253226
1.0664942264556885	3018109.1746989493
1.0705522298812866	2921724.948498133
1.0746204853057861	2897682.510678963
1.0786986351013184	2860614.8667780836
1.0827864408493042	2614975.9614997986
1.086883783340454	1998007.1276105656
1.0909905433654785	1146951.5719900045
1.0951062440872192	524014.0759455702
1.0992310047149658	260527.80181753106
1.10336434841156	150624.54529494114
1.1075061559677124	80800.34291806878
1.1116561889648438	39548.35059325661
1.115814208984375	18291.2703079939
1.1199802160263062	10491.277923150765
1.124153733253479	7793.28039967161
1.1283347606658936	7992.082931350411
1.1325229406356812	7490.459043163836
1.1367181539535522	9070.953941715086
1.1409201622009277	13869.025421650334
1.145128846168518	13123.207681946793
1.1493438482284546	7561.414508528838
1.1535650491714478	4076.5001850336384
1.1577922105789185	3397.3028384515032
1.1620250940322876	3292.42360897643
1.1662636995315552	3866.5576870845825
1.170507550239563	7281.42384222148
1.174756646156311	13591.153770665369
1.1790107488632202	24551.18030612423
1.1832695007324219	39832.059989366935
1.1875330209732056	57817.42208021686
1.191800832748413	95519.32357967779
1.1960728168487549	155976.92604651907
1.2003488540649414	219998.02866285277
1.2046287059783936	305415.9938899324
1.2089121341705322	404262.8569534033
1.2131990194320679	494969.63831612206
1.2174891233444214	597285.4384332844
1.2217823266983032	748547.7440204708
1.2260783910751343	981088.7326872307
1.230377197265625	1266986.44609353
1.2346785068511963	1582789.6829598881
1.238982081413269	1970077.7508552773
1.2432878017425537	2424669.112413305
1.2475954294204712	2856151.542379985
1.2519049644470215	3186255.4219262954
1.256216049194336	3529445.1623807256
1.2605286836624146	3778450.0161177665
1.2648425102233887	3609396.666546861
1.2691574096679688	3123847.777479759
1.2734732627868652	2571176.1651116707
1.2777899503707886	2085605.2231987442
1.2821072340011597	1652215.910353457
1.2864248752593994	1243976.9775893802
1.2907428741455078	992238.7362476407
1.2950609922409058	890007.946649519
1.2993791103363037	779122.3335341064
1.303696870803833	616744.7809954588
1.3080145120620728	467117.42632405704
1.3123314380645752	348335.3576196545
1.3166478872299194	281867.47504096926
1.3209635019302368	278256.2190557226
1.3252781629562378	249171.35171503076
1.3295916318893433	147991.0497897191
1.3339040279388428	49005.332525953396
1.3382149934768677	11056.45055141196
1.3425244092941284	4631.132089480872
1.3468321561813354	1697.3466628643787
1.3511382341384888	667.2242766623534
1.3554422855377197	299.1411503626382
1.3597444295883179	190.39569420105917
1.3640443086624146	256.9415681963073
1.3683418035507202	343.6136164370363
1.3726370334625244	510.6928885518121
1.3769296407699585	737.1377991375062
1.381219506263733	671.3985124811031
1.3855066299438477	516.0993470878543
1.3897908926010132	571.8995433054657
1.3940720558166504	633.1781800585588
1.3983501195907593	662.7879730915824
1.4026249647140503	709.6839331124653
1.4068963527679443	717.8583903548546
1.4111642837524414	870.635909342521
1.4154287576675415	1170.5781514448158
1.419689416885376	1270.1871753796484
1.4239463806152344	1514.7740891122253
1.4281994104385376	2497.656866294356
1.4324485063552856	3550.159350634114
1.436693549156189	4214.920929915663
1.440934419631958	5153.945205584382
1.4451709985733032	7394.76913292807
1.449403166770935	11766.126623242993
1.453631043434143	15845.094429151402
1.4578542709350586	16477.909577832554
1.4620729684829712	13891.755497449249
1.4662868976593018	10010.620965089622
1.4704961776733398	6123.541641923815
1.4747005701065063	3915.080661012898
1.4788999557495117	4283.528069404332
1.4830944538116455	5597.321477677278
1.4872838258743286	6345.226499991407
1.491468071937561	6291.166393313456
1.4956470727920532	6998.805535489656
1.4998208284378052	8994.402900603114
1.5039892196655273	9530.053151167373
1.5081522464752197	7879.219157130719
1.5123097896575928	6310.573449673615
1.5164618492126465	7300.242721709835
1.5206083059310913	11581.954144639669
1.5247491598129272	16055.974403128388
1.5288842916488647	21261.67864123971
1.5330137014389038	29113.497598901828
1.5371372699737549	35538.553183916745
1.541254997253418	40324.82843086978
1.545366883277893	46670.064012186864
1.5494728088378906	55094.81550745127
1.5535727739334106	69426.55801644028
1.5576666593551636	98398.98406308073
1.561754584312439	150144.33937287278
1.5658363103866577	214876.42791103348
1.5699119567871094	255799.92602309497
1.5739814043045044	268938.6053465498
1.5780447721481323	287362.806211745
1.582101821899414	307765.6190326693
1.5861525535583496	310858.1737893806
1.5901970863342285	293434.73967444565
1.5942351818084717	258643.5524899221
1.5982669591903687	213637.63452447802
1.6022924184799194	161565.60017530533
1.606311559677124	115838.4006630351
1.6103241443634033	89000.73111094572
1.6143304109573364	63797.289085450255
1.6183301210403442	38074.320101675774
1.6223233938217163	29847.93815062273
1.6263102293014526	35028.929251399146
1.6302905082702637	41218.38479086931
1.634264349937439	47886.551318519654
1.638231635093689	56900.92729114285
1.6421923637390137	54061.79218659164
1.646146535873413	35834.82994998047
1.6500942707061768	33114.10941393818
1.6540353298187256	40325.25090553424
1.6579699516296387	34949.277155336
1.661897897720337	30815.371242494122
1.6658192873001099	20617.339978325665
1.6697341203689575	6911.983710572449
1.6736423969268799	6108.383440042568
1.677544116973877	8064.605754361085
1.6814392805099487	6980.63873069523
1.6853278875350952	6118.312554857731
1.6892099380493164	5095.929089321845
1.6930854320526123	3274.5119817623095
1.696954369544983	2034.0557050806196
1.7008168697357178	1540.8146493831123
1.7046726942062378	1851.3599547229924
1.708522081375122	3212.0522541749765
1.712364912033081	5003.127788765942
1.7162011861801147	7745.021660151025
1.7200311422348022	10292.111601158407
1.723854422569275	9743.088880483734
1.7276713848114014	8343.960118274004
1.731481909751892	8259.305885249236
1.7352858781814575	9899.508973541248
1.7390835285186768	14231.493314062081
1.7428747415542603	19409.086534678292
1.7466596364974976	23575.331351472818
1.7504380941390991	24697.69586008853
1.7542102336883545	21117.30441008386
1.7579760551452637	16786.338397040705
1.7617355585098267	15258.210227941621
1.7654887437820435	14932.108116787627
1.7692357301712036	13160.525577887727
1.7729763984680176	11451.845390916342
1.776710867881775	15412.606382257025
1.7804391384124756	21384.204373533747
1.7841613292694092	20204.45280987696
1.7878772020339966	15390.815586880595
1.7915871143341064	11091.145856010591
1.7952908277511597	10000.095397478342
1.7989884614944458	12154.709786481086
1.8026801347732544	10905.16604482223
1.806365728378296	9599.619064021796
1.8100452423095703	10433.245181361754
1.8137187957763672	9983.163813770263
1.817386507987976	8639.619743128958
1.8210482597351074	10873.61558902305
1.8247040510177612	14282.489907747587
1.828354001045227	10585.839121324489
1.8319982290267944	5344.695969415302
1.8356364965438843	3587.286308733436
1.8392690420150757	4076.5619346725084
1.8428958654403687	8069.806288671211
1.8465168476104736	10315.845634887048
1.8501322269439697	9396.261974921374
1.8537418842315674	8978.144770042205
1.8573459386825562	7908.290278748384
1.860944390296936	6383.277206212905
1.864537239074707	4891.310816181255
1.8681244850158691	3084.823392172635
1.871706247329712	2431.4020351012346
1.8752825260162354	5474.873581272872
1.8788533210754395	12846.932919545501
1.8824186325073242	17850.927838530828
1.8859784603118896	16936.94119219575
1.8895330429077148	15021.394309305722
1.8930821418762207	16237.749353642474
1.8966259956359863	16825.31301691592
1.9001644849777222	11312.291898201032
1.9036977291107178	6607.436001002133
1.9072256088256836	6731.596415338796
1.9107483625411987	6287.894807928194
1.9142658710479736	4795.054254964707
1.9177782535552979	4556.8146416208965
1.9212853908538818	4607.982057948215
1.9247875213623047	4096.549413980168
1.9282845258712769	3314.583397755953
1.9317764043807983	2700.040380075167
1.9352631568908691	2458.4331654191665
1.9387450218200684	2327.4416520000336
1.942221760749817	2794.587653516417
1.9456936120986938	3338.3589242722687
1.9491604566574097	3075.2163467628952
1.952622413635254	2784.1437830181526
1.956079363822937	3647.17543286183
1.959531545639038	5440.991536867175
1.962978720664978	6185.014378661048
1.966421127319336	5795.972353684229
1.9698586463928223	5593.552580913041
1.9732913970947266	6242.563713367246
1.9767193794250488	7759.892791013619
1.9801424741744995	7706.610075618439
1.9835609197616577	7344.2802491716975
1.9869745969772339	9251.593057744456
1.990383505821228	11527.211315707187
1.9937876462936401	15045.80590100289
1.9971871376037598	20529.964558526593
2.000581979751587	24055.094889025793
2.003972291946411	23753.405096496463
2.007357597351074	23783.14753748426
2.0107386112213135	23431.56166396715
2.0141148567199707	19774.27938150836
2.017486572265625	15704.247711675214
2.0208535194396973	16015.300356132218
2.0242159366607666	21971.40144427085
2.027573823928833	27702.831454135896
2.0309269428253174	32253.983682303875
2.034275770187378	37278.6824337289
2.0376198291778564	39355.1568008501
2.040959596633911	40398.6447223196
2.044294595718384	47625.955116274
2.0476250648498535	57469.583131533895
2.0509510040283203	63995.75430590822
2.054272413253784	71442.627946975
2.057589530944824	81348.58368107521
2.0609018802642822	88787.44944951552
2.0642096996307373	96329.53792839362
2.0675129890441895	106100.93736117835
2.0708119869232178	114548.96002964846
2.074106216430664	123546.09122033624
2.0773961544036865	129813.70444081667
2.080681324005127	133453.30663377172
2.0839622020721436	139392.7772295997
2.087238311767578	146802.18392130855
2.090510129928589	155590.79893191808
2.0937774181365967	156728.43374289892
2.0970399379730225	150862.15718501055
2.1002981662750244	146762.41586768883
2.1035518646240234	146353.60484872657
2.1068007946014404	143291.62880208826
2.1100454330444336	134898.8866795376
2.1132853031158447	129719.90323161209
2.116520881652832	123780.62779176893
2.1197516918182373	116793.75185426815
2.1229779720306396	112069.5668993809
2.12619948387146	107221.63505826122
2.1294167041778564	103550.44979622243
2.132629156112671	101049.6146023619
2.1358368396759033	97594.27738640358
2.139039993286133	88161.96748404673
2.1422386169433594	72439.64191098098
2.145432472229004	58495.77063659463
2.1486217975616455	53068.347566808196
2.151806354522705	51084.570303780456
2.1549863815307617	46178.10257316806
2.1581614017486572	40765.813978284066
2.16133189201355	34437.15493266374
2.1644976139068604	28538.693073665647
2.167658567428589	24005.778159580284
2.1708147525787354	22050.67046430646
2.173966407775879	23202.853283672936
2.1771130561828613	23130.221215611626
2.1802549362182617	21459.895287536285
2.183391809463501	19113.06086521287
2.1865241527557373	16484.480552904526
2.1896514892578125	12833.88223300364
2.1927738189697266	7787.631439870529
2.1958916187286377	3822.268284169103
2.1990041732788086	1693.9368008930594
2.2021119594573975	808.9612872479119
2.2052149772644043	926.6999053007753
2.208312749862671	1488.5901777083252
2.2114057540893555	2147.6243261365016
2.214493751525879	2756.141047904845
2.217576742172241	3076.0046958786065
2.2206547260284424	2888.4277211294443
2.2237277030944824	2598.822077344359
2.2267956733703613	2306.244611684684
2.2298583984375	1823.5000230408461
2.2329163551330566	1597.328010838034
2.235969066619873	1525.4191214691111
2.2390167713165283	1191.7870026478056
2.2420592308044434	998.0783326475212
2.2450966835021973	950.9430341120749
2.248128890991211	747.4969788491965
2.2511560916900635	594.6597681195943
2.254178285598755	540.3933821530727
2.257194995880127	512.1781362494253
2.260206699371338	515.712253554863
2.2632133960723877	486.7636867766296
2.266214609146118	475.5702125457884
2.2692108154296875	536.652602012147
2.2722020149230957	592.5275962826428
2.2751877307891846	545.687004932868
2.278168201446533	492.0502523932215
2.2811436653137207	490.64593070561443
2.284113883972168	420.7721191488293
2.287078857421875	353.8604079981638
2.290038824081421	317.47085370371354
2.2929933071136475	281.01242933180197
2.295942783355713	288.23818196394814
2.298887014389038	359.45904968614036
2.301826238632202	454.5952897000108
2.304760217666626	605.0409287354034
2.3076889514923096	1064.0295277400207
2.310612440109253	1965.24474431125
2.3135311603546143	2329.8032646499946
2.3164443969726562	1346.837420243463
2.319352865219116	335.6434414113005
2.322256088256836	163.65779774956616
2.3251543045043945	257.09724851934965
2.328047275543213	334.47137214698694
2.330935478210449	409.41829553088394
2.3338186740875244	503.3305837390708
2.3366971015930176	558.4466131257083
2.3395702838897705	586.1248275137634
2.3424389362335205	606.2297738541856
2.3453025817871094	525.4963481815711
2.348161458969116	457.8369470620608
2.351015567779541	519.3091850125102
2.353865146636963	619.8672336302761
2.3567099571228027	754.4799109530398
2.3595502376556396	1051.798717469802
2.3623859882354736	1432.9939844153082
2.3652172088623047	1483.1441765996217
2.368043899536133	1071.7261802312892
2.370866537094116	566.2485533452418
2.3736846446990967	437.43274115318764
2.3764986991882324	653.1568374315123
2.3793084621429443	770.6737899945659
2.3821144104003906	707.7024223125297
2.384916305541992	840.4942178967134
2.387714147567749	1214.5520028981368
2.3905084133148193	1380.9921301779177
2.393299102783203	1265.1414596398329
2.3960859775543213	1229.7510795235905
2.398869514465332	1537.7027479201395
2.4016497135162354	2127.3037072301577
2.4044265747070312	2701.6791497270888
2.407200336456299	3037.8457223019936
2.409970998764038	3734.8679704499204
2.4127390384674072	4532.991666008018
2.415503978729248	4172.5423261239375
2.418266534805298	3299.9203255266443
2.4210267066955566	2854.039009415907
2.4237842559814453	2490.458472617452
2.426539897918701	2628.0452690902002
2.429293394088745	3665.6589332985386
2.4320452213287354	4242.4140668203445
2.4347951412200928	3636.9355349396014
2.4375438690185547	4032.2983710015624
2.440291166305542	5882.217238671199
2.443037271499634	6637.7031547638635
2.445782423019409	6470.781869445024
2.4485268592834473	6717.854959352373
2.451270818710327	7315.131089651469
2.454014539718628	8305.409167847823
2.4567582607269287	9572.901524589672
2.4595019817352295	11274.13803991191
2.4622461795806885	13705.150033437792
2.4649908542633057	16036.010633372893
2.4677364826202393	15116.591252663595
2.4704833030700684	12915.70855879341
2.473231554031372	12931.648203395345
2.4759814739227295	14243.933678609032
2.4787333011627197	14785.215449396683
2.481487512588501	14957.699734714444
