#wavelength	surface flux
0.6450077295303345	30451.256952247742
0.6472567915916443	48122.625791641636
0.6494921445846558	63239.988793435965
0.6517150402069092	73252.52127610597
0.6539263725280762	83654.17874088595
0.6561272740364075	94798.2370362535
0.6583186388015747	106692.07747996111
0.6605015397071838	119299.85362722924
0.6626768708229065	132521.41823359425
0.6648455858230591	145589.71689543917
0.6670085787773132	151957.05638182472
0.6691668033599854	140570.1209869006
0.6713210344314575	137439.09363283156
0.6734722256660461	174302.1368868037
0.6756211519241333	219441.63559749763
0.6777685880661011	246977.9646179295
0.6799154281616211	268083.21051606454
0.6820623278617859	288192.7648733779
0.6842101216316223	307964.4522353263
0.6863595843315125	327390.2354966566
0.688511312007904	345978.17672556516
0.6906660795211792	362394.2554827234
0.6928245425224304	377156.09160610155
0.6949873566627502	393999.9695727782
0.6971551775932312	411863.3755556169
0.6993286609649658	427037.3172587171
0.7015084028244019	440233.9891062247
0.7036949396133423	451290.9227428364
0.7058889269828796	459000.1128677898
0.7080909013748169	463598.770682417
0.710301399230957	465844.82060492935
0.712520956993103	465141.61290720146
0.7147500514984131	459528.5432005154
0.7169892191886902	448852.01879899256
0.7192389369010925	434445.21106456954
0.7214996814727783	416090.7460521092
0.723771870136261	393420.85199276387
0.7260559797286987	367853.0422596741
0.7283523678779602	339996.7853772725
0.7306615710258484	314140.1538778375
0.7329838871955872	292207.700172133
0.7353196740150452	265202.76000872115
0.7376693487167358	231613.7220541261
0.7400332689285278	197339.47063772596
0.7424117922782898	164044.628457432
0.7448052167892456	132892.62015378164
0.7472138404846191	104134.7230054612
0.7496379613876343	78024.1858005254
0.7520779371261597	55616.40375549074
0.7545340061187744	37460.47045285816
0.7570064663887024	23650.23353722179
0.7594954967498779	13858.824638305963
0.7620013952255249	7302.867822838015
0.7645244002342224	3194.131874748597
0.7670646905899048	1221.157336304361
0.7696225643157959	1304.4708739725525
0.7721980810165405	3928.44983565132
0.7747915983200073	9753.247422222013
0.7774031162261963	18256.78172023719
0.7800329327583313	31715.0339823291
0.7826811671257019	57121.96488249035
0.7853479981422424	95417.68011981642
0.7880334854125977	141822.6192822568
0.7907378077507019	175983.6920290397
0.7934610247612	184423.21734001747
0.7962033748626709	255153.2152888506
0.7989648580551147	420151.5628918248
0.801745593547821	583984.4549043645
0.8045456409454346	727091.8602472113
0.8073651194572449	873379.8034903839
0.8102040886878967	1023903.8505536662
0.8130625486373901	1198693.9167124382
0.8159406185150146	1405217.636740166
0.8188382983207703	1635359.0144982564
0.8217556476593018	1901714.8502317162
0.8246926665306091	2181834.9940324663
0.8276493549346924	2445509.7006164812
0.8306257724761963	2740259.439031442
0.8336219191551208	3101709.577350405
0.8366377949714661	3467935.614572853
0.8396733403205872	3823784.7155001303
0.8427285552024841	4221133.99804474
0.8458034992218018	4606489.940212914
0.8488980531692505	4668158.64512234
0.8520121574401855	4620562.7311796425
0.8551458716392517	5396586.721516439
0.8582990765571594	6544130.010868482
0.8614717125892639	7087508.249202687
0.8646637797355652	7478601.314519772
0.8678751587867737	8166939.638660021
0.8711057901382446	8915156.075615644
0.8743556141853333	9621926.13322024
0.87762451171875	10362876.456001515
0.8809124231338501	11050421.392588904
0.8842192888259888	11665570.753997177
0.8875449895858765	12063414.499117767
0.8908893465995789	11583649.796183098
0.894252359867096	10850161.024220856
0.8976338505744934	12323583.247139264
0.9010337591171265	15660062.329739206
0.9044519662857056	18410986.153302886
0.9078882932662964	20181919.959447376
0.9113426208496094	21314216.81128097
0.914814829826355	21873269.974568017
0.9183048605918884	22426231.524544235
0.9218124747276306	21924343.138281792
0.925337553024292	18207696.308284715
0.9288799166679382	14561475.099406146
0.9324395060539246	14260568.110755704
0.9360161423683167	15375708.016738234
0.9396095871925354	16158219.123357717
0.943219780921936	15971781.245342491
0.9468464851379395	14469967.177501146
0.9504896402359009	15345949.2592927
0.9541489481925964	20173531.13351871
0.9578243494033813	21913848.078428835
0.9615156054496765	18104726.998282425
0.9652225375175476	14587533.767212152
0.9689450263977051	17631287.465931915
0.9726828336715698	25170015.21665245
0.9764357805252075	29000649.989946708
0.9802037477493286	30518316.06092397
0.983986496925354	35090019.90924952
0.9877838492393494	39681589.65014325
0.9915955662727356	41315910.98036467
0.9954215884208679	40861454.85389115
0.9992615580558777	38082759.92443817
1.0031154155731201	35897569.26220184
1.0069829225540161	38095104.956762806
1.0108637809753418	43698586.070988074
1.0147579908370972	49901796.517587535
1.018665075302124	54145344.45038151
1.022585153579712	55512559.00284166
1.0265177488327026	57043021.00658117
1.0304628610610962	61488662.25642019
1.0344202518463135	66669645.19711156
1.0383895635604858	70467533.71225215
1.0423706769943237	73417920.28738253
1.0463634729385376	75675631.0005381
1.0503677129745483	77729507.4610759
1.0543830394744873	81694570.4965721
1.058409333229065	86564916.95362379
1.0624464750289917	89913777.47403535
1.0664942264556885	91491693.36671229
1.0705522298812866	92345848.91777045
1.0746204853057861	93881332.62903409
1.0786986351013184	95160555.38164023
1.0827864408493042	95682629.12414376
1.086883783340454	90234459.86270395
1.0909905433654785	74759867.55244477
1.0951062440872192	59555270.98546729
1.0992310047149658	44121833.74487955
1.10336434841156	24992785.22286054
1.1075061559677124	15425093.09992957
1.1116561889648438	13332057.30401035
1.115814208984375	10410469.311734386
1.1199802160263062	9903870.441553539
1.124153733253479	10858506.260620432
1.1283347606658936	9274788.388406044
1.1325229406356812	7229276.800971689
1.1367181539535522	10984836.508302052
1.1409201622009277	18871674.435125504
1.145128846168518	22984535.884224277
1.1493438482284546	19654873.93930389
1.1535650491714478	13390847.759215465
1.1577922105789185	10737045.34812088
1.1620250940322876	11597613.836330622
1.1662636995315552	15425953.160303231
1.170507550239563	20208937.824824877
1.174756646156311	25540787.599343028
1.1790107488632202	33829505.40656253
1.1832695007324219	38717127.62150372
1.1875330209732056	37196582.64362907
1.191800832748413	44308915.22174392
1.1960728168487549	60639358.07966425
1.2003488540649414	70261023.23616575
1.2046287059783936	73941837.7796031
1.2089121341705322	75821576.16714281
1.2131990194320679	79376012.60489312
1.2174891233444214	88084113.19052982
1.2217823266983032	95579171.12815543
1.2260783910751343	100094994.17475423
1.230377197265625	105189459.39733595
1.2346785068511963	108373163.2866287
1.238982081413269	106150562.00350708
1.2432878017425537	102685699.75375476
1.2475954294204712	102096091.73171197
1.2519049644470215	102274311.52419373
1.256216049194336	112233086.37865907
1.2605286836624146	123561278.379669
1.2648425102233887	122869948.68350266
1.2691574096679688	124820365.57124275
1.2734732627868652	132342796.22940546
1.2777899503707886	131264199.87818648
1.2821072340011597	121936661.16876753
1.2864248752593994	118246391.64778322
1.2907428741455078	118434213.0186309
1.2950609922409058	114938778.42308792
1.2993791103363037	100462589.09560001
1.303696870803833	86865319.2471268
1.3080145120620728	85622587.27789569
1.3123314380645752	87570409.67869213
1.3166478872299194	89371800.95207895
1.3209635019302368	79642992.63309315
1.3252781629562378	61169539.84644644
1.3295916318893433	42179575.03309204
1.3339040279388428	20178665.457323633
1.3382149934768677	5890995.186658189
1.3425244092941284	2514683.575999395
1.3468321561813354	2011039.067909374
1.3511382341384888	1757292.4743721392
1.3554422855377197	1316757.0631496038
1.3597444295883179	1499040.0177610419
1.3640443086624146	2190188.470409649
1.3683418035507202	2022278.6611830173
1.3726370334625244	1559069.3302674254
1.3769296407699585	1897433.4024716457
1.381219506263733	1781933.1934246141
1.3855066299438477	1007472.6360137315
1.3897908926010132	1056239.13353464
1.3940720558166504	1727260.0438376083
1.3983501195907593	1621077.5669954096
1.4026249647140503	1448772.1138900116
1.4068963527679443	1776331.7275721466
1.4111642837524414	1786573.2522443545
1.4154287576675415	1699306.5831435288
1.419689416885376	1622828.1234237761
1.4239463806152344	1564191.6767002002
1.4281994104385376	1250007.6771633325
1.4324485063552856	930924.9995161906
1.436693549156189	1445594.757722176
1.440934419631958	2713015.3142362926
1.4451709985733032	4818627.165256829
1.449403166770935	7137516.006900644
1.453631043434143	7248137.010536822
1.4578542709350586	6527380.736860549
1.4620729684829712	8283143.8143848125
1.4662868976593018	10139280.604663653
1.4704961776733398	7436634.810152232
1.4747005701065063	3788943.9140833337
1.4788999557495117	5044010.937971804
1.4830944538116455	9230116.138513623
1.4872838258743286	10545882.861574264
1.491468071937561	8412762.165567704
1.4956470727920532	8537496.656446408
1.4998208284378052	12364286.729672244
1.5039892196655273	14078262.302536532
1.5081522464752197	11804915.480602527
1.5123097896575928	12294940.923878735
1.5164618492126465	18966912.515732136
1.5206083059310913	26435189.54682301
1.5247491598129272	28670417.24096829
1.5288842916488647	28532169.08137214
1.5330137014389038	31058274.886553474
1.5371372699737549	33325327.105823465
1.541254997253418	33155561.224647786
1.545366883277893	35100162.776578054
1.5494728088378906	38032206.41350145
1.5535727739334106	39433761.443371944
1.5576666593551636	41779838.18607611
1.561754584312439	45827278.833164595
1.5658363103866577	50196395.64966419
1.5699119567871094	52184048.57697097
1.5739814043045044	51649527.49684208
1.5780447721481323	52641746.97728435
1.582101821899414	56377336.673781335
1.5861525535583496	59490502.75100629
1.5901970863342285	58498730.234379865
1.5942351818084717	54586310.220747985
1.5982669591903687	53104060.64083972
1.6022924184799194	52663518.67192568
1.606311559677124	49991471.1762341
1.6103241443634033	48897194.52104616
1.6143304109573364	47171138.70967808
1.6183301210403442	42187799.25017787
1.6223233938217163	38596410.11789049
1.6263102293014526	37019256.54192073
1.6302905082702637	37686705.972310975
1.634264349937439	41733028.547972046
1.638231635093689	46510206.4164482
1.6421923637390137	47383393.49017843
1.646146535873413	41078688.52366967
1.6500942707061768	35163537.76407346
1.6540353298187256	36217717.78974187
1.6579699516296387	37786988.61082729
1.661897897720337	35098009.33352191
1.6658192873001099	25798846.884993702
1.6697341203689575	18349194.780304823
1.6736423969268799	21621054.740686998
1.677544116973877	25706806.25469775
1.6814392805099487	25553630.54057473
1.6853278875350952	23371494.51843033
1.6892099380493164	19957067.443049956
1.6930854320526123	17084602.19620791
1.696954369544983	15192044.572992163
1.7008168697357178	14486246.34508465
1.7046726942062378	14595729.381819999
1.708522081375122	15937798.257920366
1.712364912033081	16841153.394584145
1.7162011861801147	16694685.295387238
1.7200311422348022	17844175.166567713
1.723854422569275	18180755.29198961
1.7276713848114014	16116826.580046577
1.731481909751892	13951927.71451366
1.7352858781814575	13336907.87223245
1.7390835285186768	14052334.887971235
1.7428747415542603	14127912.579114534
1.7466596364974976	11695929.930814967
1.7504380941390991	9010874.594532173
1.7542102336883545	9453579.866172038
1.7579760551452637	12047932.250566758
1.7617355585098267	14376227.415794076
1.7654887437820435	14285257.862791132
1.7692357301712036	10938420.490504814
1.7729763984680176	7228346.504074924
1.776710867881775	4704741.41761279
1.7804391384124756	3660101.7017725813
1.7841613292694092	3733090.5248069726
1.7878772020339966	3875301.2195316833
1.7915871143341064	5398363.401224375
1.7952908277511597	6881255.964946378
1.7989884614944458	6185907.06015604
1.8026801347732544	4521823.534461695
1.806365728378296	3402246.7228952004
1.8100452423095703	3008324.3679578067
1.8137187957763672	2548941.0100593884
1.817386507987976	1889739.9477818978
1.8210482597351074	3215665.028253599
1.8247040510177612	5696491.780878201
1.828354001045227	5183700.148592393
1.8319982290267944	2866056.0496895066
1.8356364965438843	2842471.696378304
1.8392690420150757	4599146.000973474
1.8428958654403687	5336186.764751968
1.8465168476104736	4674810.752026531
1.8501322269439697	3735799.671126757
1.8537418842315674	3127005.5590781057
1.8573459386825562	3168990.054801524
1.860944390296936	2552867.25586809
1.864537239074707	1181300.7415518477
1.8681244850158691	663651.6545443216
1.871706247329712	1277906.4282209154
1.8752825260162354	2401265.909513269
1.8788533210754395	2962097.963254245
1.8824186325073242	3363555.039215516
1.8859784603118896	5222333.987908098
1.8895330429077148	7043864.260105044
1.8930821418762207	5793748.709826231
1.8966259956359863	3865869.3341130703
1.9001644849777222	3517011.9476019787
1.9036977291107178	3006964.612331353
1.9072256088256836	3697910.292666756
1.9107483625411987	4696987.195340964
1.9142658710479736	3392746.8758242223
1.9177782535552979	2697973.0062972177
1.9212853908538818	2582877.4298440726
1.9247875213623047	1298280.3101343003
1.9282845258712769	765643.8931022792
1.9317764043807983	2060013.431819638
1.9352631568908691	4353898.486936021
1.9387450218200684	4693354.291679783
1.942221760749817	2758109.5058408915
1.9456936120986938	1469868.9292490594
1.9491604566574097	1301631.4261037651
1.952622413635254	1830902.2676893761
1.956079363822937	3574769.9064027728
1.959531545639038	5447295.0007019285
1.962978720664978	4933755.193256264
1.966421127319336	3654026.1314888387
1.9698586463928223	4224269.919197225
1.9732913970947266	4926355.248312077
1.9767193794250488	5181011.93968393
1.9801424741744995	5698819.927924006
1.9835609197616577	5902219.685183115
1.9869745969772339	6722842.646379701
1.990383505821228	7563046.549701271
1.9937876462936401	7374718.4778615665
1.9971871376037598	6274825.681714813
2.000581979751587	5090299.462924028
2.003972291946411	6169539.5055095265
2.007357597351074	8095258.175942489
2.0107386112213135	8880646.003857194
2.0141148567199707	8500841.520007055
2.017486572265625	7331801.34859127
2.0208535194396973	7429255.769718428
2.0242159366607666	8529976.83692354
2.027573823928833	8755390.973868888
2.0309269428253174	8558502.911892772
2.034275770187378	9582220.743508091
2.0376198291778564	12013824.564775592
2.040959596633911	14060839.638803344
2.044294595718384	14672928.51985439
2.0476250648498535	14505202.453356268
2.0509510040283203	13578993.468693227
2.054272413253784	12503702.861024104
2.057589530944824	12955267.880724037
2.0609018802642822	14495795.814001529
2.0642096996307373	15566795.2038001
2.0675129890441895	15923373.700685164
2.0708119869232178	15862770.937610362
2.074106216430664	15558518.622017696
2.0773961544036865	15625358.332632314
2.080681324005127	15971296.372593166
2.0839622020721436	15918047.409750385
2.087238311767578	15529849.927266713
2.090510129928589	15261958.529512513
2.0937774181365967	15297760.896367172
2.0970399379730225	15203264.83760745
2.1002981662750244	14581615.859872459
2.1035518646240234	14102390.524829822
2.1068007946014404	14192526.924507998
2.1100454330444336	14291208.023304725
2.1132853031158447	14020128.829116175
2.116520881652832	13333785.251121834
2.1197516918182373	12633805.902527522
2.1229779720306396	12283635.03300229
2.12619948387146	12042979.25732107
2.1294167041778564	11952956.715337703
2.132629156112671	12071696.808882378
2.1358368396759033	11689802.072151445
2.139039993286133	10988305.789370246
2.1422386169433594	10448454.361264186
2.145432472229004	9945739.463101588
2.1486217975616455	9554794.605115794
2.151806354522705	9048264.555526493
2.1549863815307617	8950149.479796935
2.1581614017486572	9438900.397477206
2.16133189201355	9690856.816972382
2.1644976139068604	9512315.399506414
2.167658567428589	8836064.595594514
2.1708147525787354	8201720.698098233
2.173966407775879	8342427.460662329
2.1771130561828613	8825012.168691939
2.1802549362182617	8740035.443493266
2.183391809463501	7994112.391460652
2.1865241527557373	7270119.26429941
2.1896514892578125	6781777.441475088
2.1927738189697266	5956955.382618479
2.1958916187286377	4398759.369628762
2.1990041732788086	2734927.548456588
2.2021119594573975	1901880.9942321759
2.2052149772644043	1906719.245463437
2.208312749862671	2268419.432462845
2.2114057540893555	2874874.555056097
2.214493751525879	3354484.6741919266
2.217576742172241	3083742.468529803
2.2206547260284424	2499327.075146556
2.2237277030944824	2135142.4164831527
2.2267956733703613	1779345.445585817
2.2298583984375	1482367.1200935917
2.2329163551330566	1395708.596482301
2.235969066619873	1482727.8399490174
2.2390167713165283	1497862.5964340733
2.2420592308044434	1313806.6417394641
2.2450966835021973	1129398.5851274724
2.248128890991211	1080413.1903932397
2.2511560916900635	1155617.4436548944
2.254178285598755	1419193.4046343458
2.257194995880127	1892286.8897723665
2.260206699371338	1878281.97201999
2.2632133960723877	1171033.247471744
2.266214609146118	867481.0572797871
2.2692108154296875	1385695.4755587236
2.2722020149230957	1910382.968987418
2.2751877307891846	1834726.8886309373
2.278168201446533	1549747.5690821775
2.2811436653137207	1499894.5002855086
2.284113883972168	1440735.6692310767
2.287078857421875	1165200.1871076971
2.290038824081421	945280.3707160999
2.2929933071136475	945218.9696065615
2.295942783355713	992049.306983671
2.298887014389038	1063106.463594476
2.301826238632202	1270750.7406711697
2.304760217666626	1659775.7325250239
2.3076889514923096	2233352.0600150977
2.310612440109253	2912567.049997209
2.3135311603546143	3467864.4772557686
2.3164443969726562	3149603.871192093
2.319352865219116	1831758.1070387883
2.322256088256836	865388.0905529208
2.3251543045043945	683306.709543697
2.328047275543213	656005.5598030167
2.330935478210449	634900.7585902844
2.3338186740875244	585971.742152217
2.3366971015930176	497700.2439036126
2.3395702838897705	435467.3781890329
2.3424389362335205	411312.9753960244
2.3453025817871094	392904.0025311122
2.348161458969116	385537.5263625023
2.351015567779541	547251.7559122571
2.353865146636963	1043298.5416435369
2.3567099571228027	1690873.6226419834
2.3595502376556396	2121175.2141464795
2.3623859882354736	2077592.2082728827
2.3652172088623047	1504849.6941211303
2.368043899536133	799136.5182262927
2.370866537094116	422858.39073427935
2.3736846446990967	389410.8294442869
2.3764986991882324	443602.6555958231
2.3793084621429443	475885.4153948319
2.3821144104003906	580886.5030497381
2.384916305541992	796432.0597070304
2.387714147567749	947804.5048439271
2.3905084133148193	893827.3778102099
2.393299102783203	777306.033085394
2.3960859775543213	693710.8949245329
2.398869514465332	702137.2474036426
2.4016497135162354	928495.5158156522
2.4044265747070312	1353839.6101633052
2.407200336456299	1674985.7368270664
2.409970998764038	1651292.166242667
2.4127390384674072	1498498.6497462222
2.415503978729248	1492792.5491343564
2.418266534805298	1633976.814005002
2.4210267066955566	1733827.6269142197
2.4237842559814453	1656496.3128015136
2.426539897918701	1641246.0301218827
2.429293394088745	1969564.5348241383
2.4320452213287354	2303928.621208642
2.4347951412200928	2227945.4948302754
2.4375438690185547	2023644.2115049954
2.440291166305542	2030426.3795364753
2.443037271499634	2062446.2552184127
2.445782423019409	2025611.8462315013
2.4485268592834473	2094342.1886853839
2.451270818710327	2247735.5461046533
2.454014539718628	2379619.712388706
2.4567582607269287	2439981.0387092163
2.4595019817352295	2482310.330271085
2.4622461795806885	2818559.361773743
2.4649908542633057	3260823.0694182175
2.4677364826202393	3138670.253284233
2.4704833030700684	2408492.935367058
2.473231554031372	1592935.9997232049
2.4759814739227295	1074682.42223537
2.4787333011627197	848441.6264677476
2.481487512588501	777629.1035464902
