#wavelength	surface flux
0.6450077295303345	17965.690829651765
0.6472567915916443	27242.611772158478
0.6494921445846558	33222.813958644365
0.6517150402069092	35260.75381124267
0.6539263725280762	37034.34048327112
0.6561272740364075	38765.25534163973
0.6583186388015747	40542.45295091477
0.6605015397071838	42424.07077168362
0.6626768708229065	44369.95501710621
0.6648455858230591	46299.41695659674
0.6670085787773132	47651.97476321562
0.6691668033599854	47349.228080284716
0.6713210344314575	47974.43127101877
0.6734722256660461	52090.406342670474
0.6756211519241333	56325.38122181501
0.6777685880661011	58929.511241841756
0.6799154281616211	61231.91686076879
0.6820623278617859	63549.538525431715
0.6842101216316223	65906.19281169507
0.6863595843315125	68292.65389417055
0.688511312007904	70598.25767667663
0.6906660795211792	72466.9951353268
0.6928245425224304	74306.11964108929
0.6949873566627502	77178.2893210883
0.6971551775932312	80472.02522271509
0.6993286609649658	83213.0575691484
0.7015084028244019	85695.08842489512
0.7036949396133423	88520.20918349168
0.7058889269828796	91678.93904084264
0.7080909013748169	94635.30053598326
0.710301399230957	97549.58473161253
0.712520956993103	100512.62744101296
0.7147500514984131	102653.95967016055
0.7169892191886902	104103.90347927215
0.7192389369010925	106576.72553221771
0.7214996814727783	109537.69279289596
0.723771870136261	111568.0944744507
0.7260559797286987	113344.67130160294
0.7283523678779602	115339.49529329244
0.7306615710258484	117973.91967861245
0.7329838871955872	121495.70058008208
0.7353196740150452	124651.54031998174
0.7376693487167358	127148.93475788475
0.7400332689285278	129090.99234865143
0.7424117922782898	129712.17135711275
0.7448052167892456	129212.88781467684
0.7472138404846191	127220.1401514095
0.7496379613876343	122564.54869233709
0.7520779371261597	114255.76161912695
0.7545340061187744	101170.86200879038
0.7570064663887024	82491.24630841635
0.7594954967498779	58638.2745830411
0.7620013952255249	33089.01477361227
0.7645244002342224	12924.591516009872
0.7670646905899048	3362.938115852269
0.7696225643157959	3930.361260615059
0.7721980810165405	16646.391060139635
0.7747915983200073	43897.10376825693
0.7774031162261963	76616.72982056192
0.7800329327583313	108108.03244254885
0.7826811671257019	143424.77111914128
0.7853479981422424	177910.80481779584
0.7880334854125977	203384.47003758542
0.7907378077507019	210173.79695209023
0.7934610247612	191462.15732519026
0.7962033748626709	201277.98726721833
0.7989648580551147	253657.9438946174
0.801745593547821	289619.72538939025
0.8045456409454346	304558.9895887312
0.8073651194572449	315436.69242542627
0.8102040886878967	321720.10188387387
0.8130625486373901	329773.5547249295
0.8159406185150146	346573.9655016407
0.8188382983207703	364752.50187933375
0.8217556476593018	377375.7378509205
0.8246926665306091	389847.1686961474
0.8276493549346924	403073.3689358526
0.8306257724761963	414238.70049610495
0.8336219191551208	426121.6057828963
0.8366377949714661	438135.63367061585
0.8396733403205872	454059.54056004586
0.8427285552024841	477316.91372126446
0.8458034992218018	499841.0226272084
0.8488980531692505	517686.5665708839
0.8520121574401855	534453.4490346685
0.8551458716392517	553920.6321166857
0.8582990765571594	573686.1712915095
0.8614717125892639	590060.7498238923
0.8646637797355652	606403.4970876037
0.8678751587867737	625789.6994629027
0.8711057901382446	646491.7880742707
0.8743556141853333	664375.2439206468
0.87762451171875	677244.769291787
0.8809124231338501	687569.1805466012
0.8842192888259888	698181.5942255299
0.8875449895858765	706805.7119867719
0.8908893465995789	705418.204187441
0.894252359867096	703488.5378669042
0.8976338505744934	732289.5978394859
0.9010337591171265	785808.3540992297
0.9044519662857056	830126.7114366082
0.9078882932662964	860260.4834164967
0.9113426208496094	883673.3027091007
0.914814829826355	893073.8299695132
0.9183048605918884	904149.6924471768
0.9218124747276306	915799.5747253028
0.925337553024292	837875.9229269966
0.9288799166679382	678083.9173001278
0.9324395060539246	598920.215729364
0.9360161423683167	649649.1721761824
0.9396095871925354	737519.5857561731
0.943219780921936	738695.6134233898
0.9468464851379395	695569.3577421813
0.9504896402359009	730923.5036683121
0.9541489481925964	808815.5754761845
0.9578243494033813	828435.7158150756
0.9615156054496765	769992.9918350304
0.9652225375175476	751274.7020851427
0.9689450263977051	853239.375423182
0.9726828336715698	1026015.1252884415
0.9764357805252075	1148272.1813150938
0.9802037477493286	1215441.7230551199
0.983986496925354	1287998.0692839446
0.9877838492393494	1370780.5868678624
0.9915955662727356	1463193.1247276932
0.9954215884208679	1545231.4754803746
0.9992615580558777	1610442.1848400468
1.0031154155731201	1665887.4717155946
1.0069829225540161	1725977.181324867
1.0108637809753418	1794320.564041819
1.0147579908370972	1862817.609520012
1.018665075302124	1919371.9486947386
1.022585153579712	1949857.6406650883
1.0265177488327026	1962620.6600186261
1.0304628610610962	1998668.6276362862
1.0344202518463135	2084663.267325128
1.0383895635604858	2172902.292743163
1.0423706769943237	2232358.0387877338
1.0463634729385376	2278105.1129085664
1.0503677129745483	2318701.679044843
1.0543830394744873	2372487.9972740356
1.058409333229065	2435788.9071891494
1.0624464750289917	2492143.6996964957
1.0664942264556885	2539443.9529047455
1.0705522298812866	2583182.2882144703
1.0746204853057861	2634493.9068540162
1.0786986351013184	2691391.273947959
1.0827864408493042	2742562.1763446475
1.086883783340454	2766140.622217456
1.0909905433654785	2747794.744307182
1.0951062440872192	2659576.5664203777
1.0992310047149658	2320627.709091895
1.10336434841156	1814360.3491035292
1.1075061559677124	1614663.018140493
1.1116561889648438	1562360.8241092265
1.115814208984375	1342688.7835436275
1.1199802160263062	1149699.888561964
1.124153733253479	1144203.8132417765
1.1283347606658936	1228358.3525597593
1.1325229406356812	1204552.6426755104
1.1367181539535522	1351226.4961154927
1.1409201622009277	1703941.7520154577
1.145128846168518	1903434.4287988057
1.1493438482284546	1624156.0447421207
1.1535650491714478	1004658.7866676974
1.1577922105789185	767047.2532035686
1.1620250940322876	1049654.1197021275
1.1662636995315552	1512205.0323320746
1.170507550239563	1874003.3803304567
1.174756646156311	2298494.0762698543
1.1790107488632202	2872996.916872454
1.1832695007324219	3309258.5425008703
1.1875330209732056	3566765.1245215256
1.191800832748413	3811303.340931286
1.1960728168487549	4093544.965446396
1.2003488540649414	4284152.284540782
1.2046287059783936	4386062.740478045
1.2089121341705322	4491723.504819138
1.2131990194320679	4615847.714815096
1.2174891233444214	4754641.66671895
1.2217823266983032	4898429.928185939
1.2260783910751343	5029422.300912886
1.230377197265625	5133858.77250162
1.2346785068511963	5222684.444917335
1.238982081413269	5328400.660252365
1.2432878017425537	5429734.12947439
1.2475954294204712	5507481.1733124275
1.2519049644470215	5584115.630228114
1.256216049194336	5674668.9883711785
1.2605286836624146	5744252.253942104
1.2648425102233887	5787236.078954109
1.2691574096679688	5829800.349673914
1.2734732627868652	5885302.842963452
1.2777899503707886	5938473.108247518
1.2821072340011597	5956543.198757821
1.2864248752593994	5906925.26406625
1.2907428741455078	5794444.600647813
1.2950609922409058	5761911.933340175
1.2993791103363037	5751531.33736583
1.303696870803833	5638984.937404229
1.3080145120620728	5557305.951757362
1.3123314380645752	5604937.808473008
1.3166478872299194	5787833.966364946
1.3209635019302368	5669372.130958078
1.3252781629562378	4971829.9986098
1.3295916318893433	3790154.217366292
1.3339040279388428	2234624.260869536
1.3382149934768677	921827.3171412497
1.3425244092941284	342677.5319955445
1.3468321561813354	253166.036082631
1.3511382341384888	186862.46028118007
1.3554422855377197	103686.17124967407
1.3597444295883179	82205.18451663913
1.3640443086624146	77975.3968693186
1.3683418035507202	116838.1505272838
1.3726370334625244	297640.9703820568
1.3769296407699585	514661.5057313175
1.381219506263733	410138.83373580384
1.3855066299438477	140385.05772881553
1.3897908926010132	46976.73244124113
1.3940720558166504	62343.50378565443
1.3983501195907593	114123.20438382565
1.4026249647140503	237712.1503495023
1.4068963527679443	323042.20685333246
1.4111642837524414	234684.37647203004
1.4154287576675415	151995.38002839845
1.419689416885376	140630.3423472264
1.4239463806152344	127293.12370606548
1.4281994104385376	184518.39710419424
1.4324485063552856	279239.96558480314
1.436693549156189	339284.4317125538
1.440934419631958	425758.4130080425
1.4451709985733032	741463.7450126024
1.449403166770935	1353713.7213801416
1.453631043434143	1804036.713578234
1.4578542709350586	2023319.6890652769
1.4620729684829712	2300591.9090291215
1.4662868976593018	2298932.2591420165
1.4704961776733398	1955462.4109950867
1.4747005701065063	1714504.3179940884
1.4788999557495117	1842778.5996298427
1.4830944538116455	2558429.6284976406
1.4872838258743286	3430145.037913668
1.491468071937561	3726218.5204878286
1.4956470727920532	3604660.1578423656
1.4998208284378052	3867349.4267998305
1.5039892196655273	4405037.59328163
1.5081522464752197	4599665.122724277
1.5123097896575928	4917020.033884687
1.5164618492126465	5695278.022027141
1.5206083059310913	6711241.071580881
1.5247491598129272	7467617.86498547
1.5288842916488647	7667562.377583705
1.5330137014389038	7945512.189873684
1.5371372699737549	8415506.542743476
1.541254997253418	8635326.419198778
1.545366883277893	8845721.206520475
1.5494728088378906	9204659.59556058
1.5535727739334106	9392700.204594513
1.5576666593551636	9301772.461945035
1.561754584312439	9434606.88415634
1.5658363103866577	9997826.61558857
1.5699119567871094	10333899.980336094
1.5739814043045044	9921247.013401812
1.5780447721481323	9160286.048898837
1.582101821899414	9375247.588353125
1.5861525535583496	10479354.741273815
1.5901970863342285	10962865.89226821
1.5942351818084717	10680441.83649738
1.5982669591903687	10186614.021645937
1.6022924184799194	9886453.467271807
1.606311559677124	9923295.501561103
1.6103241443634033	9797749.165101789
1.6143304109573364	9310342.161901647
1.6183301210403442	8675313.058688013
1.6223233938217163	7924255.510872221
1.6263102293014526	7102773.843463299
1.6302905082702637	6394907.46349784
1.634264349937439	6952033.178822268
1.638231635093689	8889933.1815761
1.6421923637390137	9841506.047488047
1.646146535873413	8757784.320825668
1.6500942707061768	7606369.443219421
1.6540353298187256	8109042.194311501
1.6579699516296387	8960904.57388119
1.661897897720337	8339221.731490124
1.6658192873001099	6186706.448403248
1.6697341203689575	5122587.046664683
1.6736423969268799	6514238.121057526
1.677544116973877	7382639.858361958
1.6814392805099487	6979776.392434637
1.6853278875350952	6627992.53509013
1.6892099380493164	6118861.119923528
1.6930854320526123	5139139.634363935
1.696954369544983	4054833.814089064
1.7008168697357178	3748463.367346851
1.7046726942062378	4203806.113502521
1.708522081375122	4913008.965151317
1.712364912033081	5639719.036962011
1.7162011861801147	6418510.8373660315
1.7200311422348022	7182852.473518207
1.723854422569275	7354037.1889923755
1.7276713848114014	6981656.261823062
1.731481909751892	6442592.227370174
1.7352858781814575	5942382.290918674
1.7390835285186768	5762993.843809604
1.7428747415542603	5612939.794798907
1.7466596364974976	5132124.42960095
1.7504380941390991	4485615.799635867
1.7542102336883545	4166051.8204717217
1.7579760551452637	4915058.040028762
1.7617355585098267	5681207.988529694
1.7654887437820435	5023754.147290107
1.7692357301712036	3582298.1694487645
1.7729763984680176	2176523.3842663625
1.776710867881775	1139313.858927639
1.7804391384124756	786755.8582778624
1.7841613292694092	813871.3151845132
1.7878772020339966	710853.8106453561
1.7915871143341064	811207.533009337
1.7952908277511597	1414485.0878562867
1.7989884614944458	1756919.3754055141
1.8026801347732544	1110474.190582165
1.806365728378296	360648.8957906354
1.8100452423095703	322514.4888815982
1.8137187957763672	439433.01979286806
1.817386507987976	366921.58410446177
1.8210482597351074	454440.57240821054
1.8247040510177612	498949.92226603086
1.828354001045227	242404.91415229236
1.8319982290267944	134465.17866842618
1.8356364965438843	308771.4147173896
1.8392690420150757	504872.02912657754
1.8428958654403687	500632.27720269817
1.8465168476104736	528570.0999267625
1.8501322269439697	725730.4697792672
1.8537418842315674	637314.4574343826
1.8573459386825562	374350.99399763584
1.860944390296936	260607.148477737
1.864537239074707	150270.9879801974
1.8681244850158691	114505.0425948914
1.871706247329712	253261.3029610843
1.8752825260162354	583494.0483939762
1.8788533210754395	1322693.3077690182
1.8824186325073242	1932530.7159946745
1.8859784603118896	1712866.7081229186
1.8895330429077148	1447772.3181578475
1.8930821418762207	1951761.5360597207
1.8966259956359863	2012271.0019120884
1.9001644849777222	924046.1649755171
1.9036977291107178	158853.03278885363
1.9072256088256836	114539.01846308271
1.9107483625411987	113503.96737665904
1.9142658710479736	61171.37010125784
1.9177782535552979	65988.13422163474
1.9212853908538818	112232.73877880303
1.9247875213623047	118787.96174690643
1.9282845258712769	131254.35088324788
1.9317764043807983	203497.21744366578
1.9352631568908691	254009.88651019713
1.9387450218200684	279176.9634812264
1.942221760749817	382427.24747052876
1.9456936120986938	520668.0627640442
1.9491604566574097	705436.3792202083
1.952622413635254	713609.9666173776
1.956079363822937	487942.40761519806
1.959531545639038	412826.9284825487
1.962978720664978	487606.0295179487
1.966421127319336	793584.1615817872
1.9698586463928223	1378572.9406348546
1.9732913970947266	1714909.3820475906
1.9767193794250488	1936916.7887682915
1.9801424741744995	2479317.826581672
1.9835609197616577	3055351.912038589
1.9869745969772339	3114910.0689770174
1.990383505821228	2614265.339859137
1.9937876462936401	2528265.321278957
1.9971871376037598	2685907.5754038556
2.000581979751587	2995687.006441933
2.003972291946411	4053038.2913076836
2.007357597351074	5172198.0896659065
2.0107386112213135	6214429.088899065
2.0141148567199707	6390700.22184544
2.017486572265625	5554777.679928562
2.0208535194396973	5907925.438846721
2.0242159366607666	7207998.243522177
2.027573823928833	7933251.718613392
2.0309269428253174	8570098.495155536
2.034275770187378	9450915.525145577
2.0376198291778564	10225414.962341607
2.040959596633911	11052295.058239227
2.044294595718384	12136791.489746183
2.0476250648498535	13129628.146371445
2.0509510040283203	13134066.633510265
2.054272413253784	12498230.248044081
2.057589530944824	12718609.216902865
2.0609018802642822	13562818.91356129
2.0642096996307373	14194353.776743928
2.0675129890441895	14592222.814192848
2.0708119869232178	14813038.92093048
2.074106216430664	14752649.251220677
2.0773961544036865	14623632.607153425
2.080681324005127	14751857.8147507
2.0839622020721436	14874537.397513479
2.087238311767578	14903610.63543786
2.090510129928589	14859505.579771742
2.0937774181365967	14635732.011113232
2.0970399379730225	14486961.156668717
2.1002981662750244	14396405.976913922
2.1035518646240234	14158496.579169128
2.1068007946014404	13877653.01991904
2.1100454330444336	13824674.003070602
2.1132853031158447	13753971.161408052
2.116520881652832	13242387.410396427
2.1197516918182373	12740343.062098758
2.1229779720306396	12640662.00663206
2.12619948387146	12741810.421034599
2.1294167041778564	12782715.644729855
2.132629156112671	12753879.542588957
2.1358368396759033	12379363.20518944
2.139039993286133	11653223.248693146
2.1422386169433594	10880298.491229786
2.145432472229004	10139570.111418381
2.1486217975616455	9611430.918178998
2.151806354522705	9079040.145094248
2.1549863815307617	9033042.623254046
2.1581614017486572	9208423.206775626
2.16133189201355	8615902.332873147
2.1644976139068604	8043585.500488463
2.167658567428589	8009581.497510466
2.1708147525787354	8290992.470761554
2.173966407775879	8575108.358585313
2.1771130561828613	8522273.960995963
2.1802549362182617	8098031.842756705
2.183391809463501	7408945.533849478
2.1865241527557373	6646663.878596271
2.1896514892578125	5788894.875345741
2.1927738189697266	4479768.0574574955
2.1958916187286377	2803496.9457782516
2.1990041732788086	1547917.0214849417
2.2021119594573975	1062348.9456400033
2.2052149772644043	1059270.0288293671
2.208312749862671	1269978.682770108
2.2114057540893555	1550052.064677005
2.214493751525879	1715953.8647020254
2.217576742172241	1619306.3513770464
2.2206547260284424	1441004.2748775582
2.2237277030944824	1340657.8732672778
2.2267956733703613	1136350.805754411
2.2298583984375	839549.9270798545
2.2329163551330566	649579.9697791149
2.235969066619873	586506.5674180575
2.2390167713165283	542618.288725032
2.2420592308044434	443497.1807834481
2.2450966835021973	342748.8911028916
2.248128890991211	367151.01174504944
2.2511560916900635	476061.5287690008
2.254178285598755	537512.4378637082
2.257194995880127	586928.8797421812
2.260206699371338	593127.7996744716
2.2632133960723877	485973.13840407965
2.266214609146118	377896.24794735835
2.2692108154296875	357406.1221369703
2.2722020149230957	425150.2985924147
2.2751877307891846	507144.7728242624
2.278168201446533	506316.1934975924
2.2811436653137207	450211.1936005516
2.284113883972168	414486.40831906314
2.287078857421875	383934.09847234684
2.290038824081421	343546.31280909915
2.2929933071136475	337640.5202613787
2.295942783355713	366092.19339514134
2.298887014389038	393769.1098178585
2.301826238632202	447430.91197128117
2.304760217666626	635512.7402468357
2.3076889514923096	993335.6074042575
2.310612440109253	1315505.2707572577
2.3135311603546143	1230705.0655233918
2.3164443969726562	724287.4870489981
2.319352865219116	327020.5456228186
2.322256088256836	264887.7021709595
2.3251543045043945	291161.98649465246
2.328047275543213	286874.76126057946
2.330935478210449	279442.3785457736
2.3338186740875244	272278.9459264283
2.3366971015930176	256438.36116674924
2.3395702838897705	241243.06159106566
2.3424389362335205	219524.07143671424
2.3453025817871094	188222.22041884388
2.348161458969116	175646.5196342685
2.351015567779541	216797.73586435374
2.353865146636963	304610.9147191584
2.3567099571228027	383721.0699932168
2.3595502376556396	445154.2374018345
2.3623859882354736	501920.7105765312
2.3652172088623047	472941.22030429495
2.368043899536133	321322.7816779818
2.370866537094116	178058.63070540075
2.3736846446990967	150642.96248303208
2.3764986991882324	191134.21525307852
2.3793084621429443	238610.58494672895
2.3821144104003906	296568.1994147004
2.384916305541992	375020.6559450262
2.387714147567749	420699.8503289593
2.3905084133148193	388873.662909389
2.393299102783203	355534.3175393896
2.3960859775543213	375007.0494478091
2.398869514465332	417814.8080226712
2.4016497135162354	426182.9889184859
2.4044265747070312	415983.7581309339
2.407200336456299	497942.4527413837
2.409970998764038	666601.6770086995
2.4127390384674072	776477.9471602985
2.415503978729248	814755.1052212731
2.418266534805298	934049.0967482285
2.4210267066955566	1065509.0380107898
2.4237842559814453	970459.1392471694
2.426539897918701	821675.0447837097
2.429293394088745	972960.2170167157
2.4320452213287354	1264203.5069181449
2.4347951412200928	1331093.3707934127
2.4375438690185547	1255514.3478607256
2.440291166305542	1292745.7738286548
2.443037271499634	1323139.7085530763
2.445782423019409	1138285.312911497
2.4485268592834473	871520.0217326564
2.451270818710327	822246.7703551574
2.454014539718628	1055363.1973957168
2.4567582607269287	1265210.0120766636
2.4595019817352295	1307070.200312323
2.4622461795806885	1442757.9400518863
2.4649908542633057	1478438.5003689765
2.4677364826202393	1133287.0864466245
2.4704833030700684	746199.9877451478
2.473231554031372	542734.8633017162
2.4759814739227295	441067.07763614017
2.4787333011627197	397689.60396269377
2.481487512588501	426905.6444303835
