#wavelength	surface flux
0.6450077295303345	10790.763788452447
0.6472567915916443	17030.59451855841
0.6494921445846558	22354.230075297957
0.6517150402069092	25885.572264741513
0.6539263725280762	29565.296920698212
0.6561272740364075	33522.05715643153
0.6583186388015747	37772.67686608608
0.6605015397071838	42327.03933546337
0.6626768708229065	47192.658938152534
0.6648455858230591	52242.88374711201
0.6670085787773132	55702.788850712124
0.6691668033599854	54155.61515713974
0.6713210344314575	54964.93530119917
0.6734722256660461	67172.14349495206
0.6756211519241333	81371.9677152715
0.6777685880661011	90539.08865593113
0.6799154281616211	98223.32575504178
0.6820623278617859	105799.77161107417
0.6842101216316223	113376.71967987751
0.6863595843315125	120926.29076595967
0.688511312007904	128236.47908968003
0.6906660795211792	134675.2575841547
0.6928245425224304	140401.40865336324
0.6949873566627502	147165.7335557518
0.6971551775932312	154557.19563875062
0.6993286609649658	160855.50198816304
0.7015084028244019	166413.8981050108
0.7036949396133423	171194.9266021645
0.7058889269828796	174641.9508912251
0.7080909013748169	176875.9446472659
0.710301399230957	178254.3585513796
0.712520956993103	178474.63536678994
0.7147500514984131	176587.0063033338
0.7169892191886902	172536.82238127585
0.7192389369010925	167017.4390619216
0.7214996814727783	159878.53473674864
0.723771870136261	150792.05397716732
0.7260559797286987	140545.2509654369
0.7283523678779602	129603.8452700928
0.7306615710258484	120051.4856334133
0.7329838871955872	112749.6450247095
0.7353196740150452	103170.92102729913
0.7376693487167358	90492.50091470759
0.7400332689285278	77525.25575808421
0.7424117922782898	65023.31339859123
0.7448052167892456	53478.31345584824
0.7472138404846191	42872.3983167242
0.7496379613876343	33166.641339787384
0.7520779371261597	24719.005397130757
0.7545340061187744	17677.40334141213
0.7570064663887024	12039.957334389379
0.7594954967498779	7695.434364818535
0.7620013952255249	4417.589326300907
0.7645244002342224	2081.3068033299273
0.7670646905899048	852.5767202279621
0.7696225643157959	906.7886854896668
0.7721980810165405	2545.1725828859076
0.7747915983200073	5927.33682471805
0.7774031162261963	10462.735610609387
0.7800329327583313	16826.386737889494
0.7826811671257019	27809.209692096065
0.7853479981422424	43733.79686706205
0.7880334854125977	62728.97543970765
0.7907378077507019	76823.82173649922
0.7934610247612	80681.82457526428
0.7962033748626709	109942.49131422777
0.7989648580551147	177828.890160524
0.801745593547821	246057.01741899532
0.8045456409454346	306938.2068152836
0.8073651194572449	369716.9649256779
0.8102040886878967	434055.18799379264
0.8130625486373901	510213.19757170236
0.8159406185150146	604816.8782016616
0.8188382983207703	713465.7428274493
0.8217556476593018	836669.1325191533
0.8246926665306091	964611.6055256078
0.8276493549346924	1086330.676097234
0.8306257724761963	1224621.3872915055
0.8336219191551208	1397512.4148605627
0.8366377949714661	1573884.3761009115
0.8396733403205872	1746419.409244017
0.8427285552024841	1942807.444982519
0.8458034992218018	2141150.00331249
0.8488980531692505	2199092.4345293534
0.8520121574401855	2207925.8806515755
0.8551458716392517	2590520.672957866
0.8582990765571594	3171758.5959846936
0.8614717125892639	3549504.1892443486
0.8646637797355652	3860144.6428786577
0.8678751587867737	4244628.54010397
0.8711057901382446	4659903.461415476
0.8743556141853333	5066483.731396689
0.87762451171875	5460612.282678666
0.8809124231338501	5810138.8718910925
0.8842192888259888	6116987.120525542
0.8875449895858765	6328128.795072375
0.8908893465995789	6077304.047014354
0.894252359867096	5623079.027590433
0.8976338505744934	6371705.739624748
0.9010337591171265	8230771.445275656
0.9044519662857056	9790767.39599292
0.9078882932662964	10755325.910400264
0.9113426208496094	11308101.329729803
0.914814829826355	11535221.531058032
0.9183048605918884	11810298.180587526
0.9218124747276306	11526382.698207034
0.925337553024292	9282230.532879746
0.9288799166679382	6915005.649605423
0.9324395060539246	6537320.585648638
0.9360161423683167	7114570.900271118
0.9396095871925354	7552660.210370026
0.943219780921936	7407719.425277084
0.9468464851379395	6491392.140991129
0.9504896402359009	6967677.79499725
0.9541489481925964	9673647.00373558
0.9578243494033813	10570220.709505592
0.9615156054496765	8419240.400162818
0.9652225375175476	6638349.93002686
0.9689450263977051	8519732.113765057
0.9726828336715698	12795301.485396076
0.9764357805252075	14993842.940523474
0.9802037477493286	15987652.276884602
0.983986496925354	18772033.88962999
0.9877838492393494	21784400.983426858
0.9915955662727356	23521145.7498439
0.9954215884208679	24270670.679067936
0.9992615580558777	23670564.37562724
1.0031154155731201	23047647.023908444
1.0069829225540161	24684524.52800432
1.0108637809753418	28290654.17508661
1.0147579908370972	32121978.739534616
1.018665075302124	34742608.96126409
1.022585153579712	35773826.84066968
1.0265177488327026	36879520.754474044
1.0304628610610962	39450695.72699013
1.0344202518463135	42363180.244052574
1.0383895635604858	44601820.48422701
1.0423706769943237	46388160.735582896
1.0463634729385376	47532544.57679149
1.0503677129745483	48566136.41138614
1.0543830394744873	50871255.51394145
1.058409333229065	53669918.01353465
1.0624464750289917	55589526.8162713
1.0664942264556885	56216840.13298526
1.0705522298812866	56101307.3673007
1.0746204853057861	56490026.80021587
1.0786986351013184	56852617.5841186
1.0827864408493042	56881117.85089539
1.086883783340454	53402353.30036699
1.0909905433654785	43647344.32884443
1.0951062440872192	33823701.49026461
1.0992310047149658	24249882.670049142
1.10336434841156	13094903.665368576
1.1075061559677124	7626152.683278283
1.1116561889648438	6418402.335982062
1.115814208984375	4731057.557252895
1.1199802160263062	4328204.898591207
1.124153733253479	4738335.754631955
1.1283347606658936	4016858.6397887957
1.1325229406356812	3177957.470404813
1.1367181539535522	5260903.443114734
1.1409201622009277	9362335.427620824
1.145128846168518	11325170.923337331
1.1493438482284546	9370506.215825003
1.1535650491714478	5869848.733867836
1.1577922105789185	4332696.911088251
1.1620250940322876	4903058.509643053
1.1662636995315552	7193634.925414417
1.170507550239563	10266120.02088946
1.174756646156311	14078524.18636687
1.1790107488632202	19511738.22549768
1.1832695007324219	22451278.341041904
1.1875330209732056	21545471.742985547
1.191800832748413	26205839.597452506
1.1960728168487549	36679767.35686866
1.2003488540649414	43204674.28074011
1.2046287059783936	46019361.71741658
1.2089121341705322	47471765.19722956
1.2131990194320679	49773811.34788547
1.2174891233444214	55323425.56267274
1.2217823266983032	60320506.21618661
1.2260783910751343	63636743.266573675
1.230377197265625	67302237.1622477
1.2346785068511963	69854091.5000792
1.238982081413269	69884198.22221929
1.2432878017425537	69620769.39334261
1.2475954294204712	70328972.32274818
1.2519049644470215	70843947.08109733
1.256216049194336	76220414.35901232
1.2605286836624146	81483208.75767742
1.2648425102233887	79908726.44041596
1.2691574096679688	80613382.91849892
1.2734732627868652	85188333.75632101
1.2777899503707886	84096156.32316986
1.2821072340011597	77326328.72505051
1.2864248752593994	74394987.28114186
1.2907428741455078	74074474.31996857
1.2950609922409058	71433642.72131374
1.2993791103363037	61447867.69837018
1.303696870803833	51923311.15375134
1.3080145120620728	50670554.99862522
1.3123314380645752	51946996.15312846
1.3166478872299194	54132208.18663365
1.3209635019302368	48504252.76507738
1.3252781629562378	36288860.10539207
1.3295916318893433	24196445.686983448
1.3339040279388428	11155922.954690222
1.3382149934768677	3017567.979485709
1.3425244092941284	1140232.6414535064
1.3468321561813354	821805.4078251267
1.3511382341384888	665363.2302145829
1.3554422855377197	470605.14939934365
1.3597444295883179	518984.73898838775
1.3640443086624146	764486.1963845051
1.3683418035507202	713331.0847142634
1.3726370334625244	543294.8663599694
1.3769296407699585	685716.5821350222
1.381219506263733	671680.1492173938
1.3855066299438477	373315.57616496534
1.3897908926010132	399404.9684312937
1.3940720558166504	698664.876247149
1.3983501195907593	653843.9589079269
1.4026249647140503	569656.2756859722
1.4068963527679443	691901.4867712712
1.4111642837524414	634961.5989485612
1.4154287576675415	546547.7814528233
1.419689416885376	526989.5956058485
1.4239463806152344	523854.5499189295
1.4281994104385376	412803.5678428166
1.4324485063552856	313785.2043975046
1.436693549156189	576106.0944310699
1.440934419631958	1244648.5648210498
1.4451709985733032	2425823.448572617
1.449403166770935	3754822.9429159686
1.453631043434143	3890215.805331674
1.4578542709350586	3587682.361885088
1.4620729684829712	4700504.267491882
1.4662868976593018	5819129.729987108
1.4704961776733398	4120128.377891687
1.4747005701065063	1810775.4104775684
1.4788999557495117	2509733.1011898285
1.4830944538116455	4952558.118291692
1.4872838258743286	5640522.477502887
1.491468071937561	4346703.343805894
1.4956470727920532	4568859.807052673
1.4998208284378052	7195631.956896727
1.5039892196655273	8364764.578101818
1.5081522464752197	6815542.333142764
1.5123097896575928	7019439.907599971
1.5164618492126465	11251232.13559905
1.5206083059310913	16215223.914455542
1.5247491598129272	18066507.408583097
1.5288842916488647	18281465.62332081
1.5330137014389038	20002531.10845869
1.5371372699737549	21671690.938896347
1.541254997253418	21795860.494837884
1.545366883277893	23217164.34028174
1.5494728088378906	25387879.559525073
1.5535727739334106	26622488.736143693
1.5576666593551636	28445601.096364062
1.561754584312439	31414218.738065347
1.5658363103866577	34558455.326568164
1.5699119567871094	36014775.481366
1.5739814043045044	35523102.51155865
1.5780447721481323	35892438.39202394
1.582101821899414	38316024.89377238
1.5861525535583496	40462072.1479427
1.5901970863342285	39675901.95848959
1.5942351818084717	36589716.54135139
1.5982669591903687	34928540.45596911
1.6022924184799194	33987549.17422488
1.606311559677124	31813713.86066464
1.6103241443634033	30897577.946673095
1.6143304109573364	29181950.19378134
1.6183301210403442	25016424.053912323
1.6223233938217163	21921831.058205117
1.6263102293014526	20386432.480478242
1.6302905082702637	20943857.43860159
1.634264349937439	24319460.82314235
1.638231635093689	28101484.383106887
1.6421923637390137	28573589.823515646
1.646146535873413	23343356.98502445
1.6500942707061768	18701569.427846126
1.6540353298187256	19816269.822711818
1.6579699516296387	21386267.833805826
1.661897897720337	19944351.97872549
1.6658192873001099	14207368.64467569
1.6697341203689575	9188664.416331237
1.6736423969268799	10453776.005176364
1.677544116973877	12282623.242756832
1.6814392805099487	11987029.867661474
1.6853278875350952	10806577.290563798
1.6892099380493164	9017862.663160838
1.6930854320526123	7678271.24154075
1.696954369544983	6576661.409729297
1.7008168697357178	5890872.15359059
1.7046726942062378	5885416.987376287
1.708522081375122	6890455.729231751
1.712364912033081	7788015.464307148
1.7162011861801147	8029051.59056777
1.7200311422348022	8949532.483464507
1.723854422569275	9122089.800062846
1.7276713848114014	7791472.023468041
1.731481909751892	6790251.003259247
1.7352858781814575	6754484.02731624
1.7390835285186768	7266562.479661781
1.7428747415542603	7423310.097401569
1.7466596364974976	6124722.592351717
1.7504380941390991	4530850.089119591
1.7542102336883545	4795447.267655204
1.7579760551452637	6293168.855643187
1.7617355585098267	7254340.491230821
1.7654887437820435	6854336.76097774
1.7692357301712036	5127067.994667087
1.7729763984680176	3350881.495099205
1.776710867881775	2153135.350019037
1.7804391384124756	1664615.3798161272
1.7841613292694092	1700264.3766062267
1.7878772020339966	1795935.569314086
1.7915871143341064	2557813.369456402
1.7952908277511597	3220565.6468575927
1.7989884614944458	2809917.1028300645
1.8026801347732544	2030701.116563939
1.806365728378296	1598863.5523816368
1.8100452423095703	1436755.1803866036
1.8137187957763672	1153056.327827462
1.817386507987976	807243.9164595258
1.8210482597351074	1404622.1456934963
1.8247040510177612	2545079.8912027865
1.828354001045227	2322853.874397623
1.8319982290267944	1238912.2509739385
1.8356364965438843	1197006.5408878387
1.8392690420150757	2089032.0424660111
1.8428958654403687	2609915.9493195224
1.8465168476104736	2326203.3911769385
1.8501322269439697	1726724.7068679759
1.8537418842315674	1403839.3562008985
1.8573459386825562	1525845.9173265288
1.860944390296936	1235070.6941017667
1.864537239074707	518708.78881675284
1.8681244850158691	233714.04171203132
1.871706247329712	462599.4136349165
1.8752825260162354	964489.5592373426
1.8788533210754395	1321594.0126702646
1.8824186325073242	1656426.3602132644
1.8859784603118896	2695664.3139822115
1.8895330429077148	3630435.246508318
1.8930821418762207	2869744.08544049
1.8966259956359863	1772349.7907962098
1.9001644849777222	1596113.3795818845
1.9036977291107178	1376972.8312382246
1.9072256088256836	1725910.389205357
1.9107483625411987	2243163.2013587337
1.9142658710479736	1586191.6324155598
1.9177782535552979	1166207.6526760731
1.9212853908538818	1110262.7034220716
1.9247875213623047	554034.5559510913
1.9282845258712769	316556.92691240803
1.9317764043807983	925011.355295146
1.9352631568908691	2023336.6045505865
1.9387450218200684	2187278.0615487834
1.942221760749817	1265397.3471938013
1.9456936120986938	649851.127415973
1.9491604566574097	555446.01109274
1.952622413635254	763753.9308261434
1.956079363822937	1522144.0163482863
1.959531545639038	2451160.9940128825
1.962978720664978	2340581.5197693487
1.966421127319336	1794449.9515835792
1.9698586463928223	2112456.8359969202
1.9732913970947266	2526551.6279996485
1.9767193794250488	2734516.986229955
1.9801424741744995	3075497.8626281223
1.9835609197616577	3225020.6765966
1.9869745969772339	3652958.1599265207
1.990383505821228	4084098.8130159657
1.9937876462936401	3990085.4720227686
1.9971871376037598	3352773.985742772
2.000581979751587	2639015.5826391093
2.003972291946411	3267265.1086556637
2.007357597351074	4477972.99826895
2.0107386112213135	5003409.215177134
2.0141148567199707	4764413.657939702
2.017486572265625	4075852.6442577224
2.0208535194396973	4033606.818737251
2.0242159366607666	4511722.3677434325
2.027573823928833	4643367.719957134
2.0309269428253174	4574726.670434687
2.034275770187378	5186099.49571431
2.0376198291778564	6660018.492063661
2.040959596633911	7837135.541796083
2.044294595718384	8166052.386165093
2.0476250648498535	8024245.804837773
2.0509510040283203	7428378.005123537
2.054272413253784	6887668.94707952
2.057589530944824	7200248.407641834
2.0609018802642822	7963098.226673849
2.0642096996307373	8463423.79558186
2.0675129890441895	8624890.43815612
2.0708119869232178	8559422.64683067
2.074106216430664	8371618.960857008
2.0773961544036865	8359109.908229433
2.080681324005127	8481118.610449325
2.0839622020721436	8419525.106674518
2.087238311767578	8210088.14041614
2.090510129928589	8076700.663314958
2.0937774181365967	8068790.093047402
2.0970399379730225	7958307.85274758
2.1002981662750244	7595278.560457424
2.1035518646240234	7335562.0484952135
2.1068007946014404	7368575.288616104
2.1100454330444336	7395761.125636912
2.1132853031158447	7210430.086395287
2.116520881652832	6774273.048147213
2.1197516918182373	6318652.201583017
2.1229779720306396	6061836.936099277
2.12619948387146	5891034.20528302
2.1294167041778564	5845971.503530626
2.132629156112671	5932560.224950424
2.1358368396759033	5704712.775505662
2.139039993286133	5289473.359517421
2.1422386169433594	4966171.697079676
2.145432472229004	4646298.087656045
2.1486217975616455	4389801.575962906
2.151806354522705	4061015.2328818697
2.1549863815307617	4004252.476624854
2.1581614017486572	4331096.041450418
2.16133189201355	4499172.848115537
2.1644976139068604	4388280.946636853
2.167658567428589	3984817.0391506464
2.1708147525787354	3663065.5157752344
2.173966407775879	3873677.1448990223
2.1771130561828613	4280597.078194985
2.1802549362182617	4284915.589935583
2.183391809463501	3852832.782603829
2.1865241527557373	3435779.3353351313
2.1896514892578125	3172829.29211479
2.1927738189697266	2728155.85575113
2.1958916187286377	1895002.1126967792
2.1990041732788086	1039081.1134794184
2.2021119594573975	635018.9721343451
2.2052149772644043	671667.0813109394
2.208312749862671	902937.3225901251
2.2114057540893555	1229099.1699580383
2.214493751525879	1446553.1293529337
2.217576742172241	1266309.3324393232
2.2206547260284424	924587.4021745711
2.2237277030944824	737934.9712722746
2.2267956733703613	610647.6993781513
2.2298583984375	504423.21285984357
2.2329163551330566	467563.0799697297
2.235969066619873	498721.43049893895
2.2390167713165283	504422.45933806273
2.2420592308044434	433157.9674988784
2.2450966835021973	362586.0405653652
2.248128890991211	343257.13516645326
2.2511560916900635	370474.98486343154
2.254178285598755	480132.914417499
2.257194995880127	696253.2229475867
2.260206699371338	712773.8338076905
2.2632133960723877	418001.6846867294
2.266214609146118	284599.3434096168
2.2692108154296875	511607.50578163634
2.2722020149230957	748883.3429952037
2.2751877307891846	705359.4564377079
2.278168201446533	553048.0647536995
2.2811436653137207	526325.8396043248
2.284113883972168	519448.7020643926
2.287078857421875	408668.523990957
2.290038824081421	305597.9610240445
2.2929933071136475	297153.12156712293
2.295942783355713	312291.5615731028
2.298887014389038	333624.13048637373
2.301826238632202	414415.82753413107
2.304760217666626	597794.1202621949
2.3076889514923096	876101.1192082833
2.310612440109253	1184588.15993183
2.3135311603546143	1453445.9282101658
2.3164443969726562	1353331.1218829348
2.319352865219116	769111.8904866726
2.322256088256836	321633.3056673081
2.3251543045043945	245752.97858151066
2.328047275543213	236985.64828177862
2.330935478210449	214480.01945578583
2.3338186740875244	184687.9628641187
2.3366971015930176	149299.2730230216
2.3395702838897705	125613.49096935154
2.3424389362335205	115234.99689692681
2.3453025817871094	107022.51765304673
2.348161458969116	104785.43529466809
2.351015567779541	167330.0910176468
2.353865146636963	360685.20400753565
2.3567099571228027	622393.6633840444
2.3595502376556396	812329.5254109568
2.3623859882354736	808219.0457815939
2.3652172088623047	565154.5112259116
2.368043899536133	268275.8116564664
2.370866537094116	120372.8007995928
2.3736846446990967	105569.45337781102
2.3764986991882324	122373.84383436017
2.3793084621429443	140368.12429009282
2.3821144104003906	196981.79392775372
2.384916305541992	291545.00356956274
2.387714147567749	339178.6429991831
2.3905084133148193	297562.68036209454
2.393299102783203	244874.27348684956
2.3960859775543213	215155.03113607332
2.398869514465332	220251.90087753284
2.4016497135162354	317581.01325586
2.4044265747070312	515538.9731889284
2.407200336456299	672172.732076194
2.409970998764038	660299.090001059
2.4127390384674072	583207.3830104431
2.415503978729248	585481.315843587
2.418266534805298	673569.178079798
2.4210267066955566	737714.0203617288
2.4237842559814453	689978.6875819465
2.426539897918701	661753.1734120233
2.429293394088745	818676.9531975004
2.4320452213287354	991442.4325726344
2.4347951412200928	962267.7917185288
2.4375438690185547	885623.7561249661
2.440291166305542	930100.0460797983
2.443037271499634	955345.3339008308
2.445782423019409	894822.973976158
2.4485268592834473	892599.0442099636
2.451270818710327	1009024.945956381
2.454014539718628	1157299.9692682445
2.4567582607269287	1227065.9594639675
2.4595019817352295	1259423.8258819222
2.4622461795806885	1433612.7207290696
2.4649908542633057	1671505.421043201
2.4677364826202393	1658084.4222874148
2.4704833030700684	1319872.171198024
2.473231554031372	886167.8519824962
2.4759814739227295	584932.4478451441
2.4787333011627197	439228.8747495601
2.481487512588501	368391.6959405709
2.4842441082000732	334930.63937415153
2.4870035648345947	331287.83126471966
