#wavelength	surface flux
0.6450077295303345	253453.98163120096
0.6472567915916443	383934.2168391463
0.6494921445846558	466906.4945600926
0.6517150402069092	493438.9487809901
0.6539263725280762	516210.30177652615
0.6561272740364075	538515.4223670166
0.6583186388015747	561010.4851876323
0.6605015397071838	583694.6612911281
0.6626768708229065	605545.2006437705
0.6648455858230591	625288.5198889688
0.6670085787773132	624170.7176126919
0.6691668033599854	568906.4757445019
0.6713210344314575	541561.2309791729
0.6734722256660461	628833.9966566955
0.6756211519241333	727271.4631822145
0.6777685880661011	770947.081046452
0.6799154281616211	798237.3017087844
0.6820623278617859	824282.0861280105
0.6842101216316223	851605.6502384244
0.6863595843315125	878185.4589083152
0.688511312007904	902432.0032174458
0.6906660795211792	923146.8189252134
0.6928245425224304	945479.5740469818
0.6949873566627502	975706.7802609053
0.6971551775932312	1007596.0381385611
0.6993286609649658	1035291.545609047
0.7015084028244019	1060977.39301203
0.7036949396133423	1087580.1063830622
0.7058889269828796	1115235.965349218
0.7080909013748169	1141677.4228830321
0.710301399230957	1167495.7908253383
0.712520956993103	1192990.0110489666
0.7147500514984131	1214176.6928887859
0.7169892191886902	1231623.0327653857
0.7192389369010925	1252697.5697019505
0.7214996814727783	1275134.575775827
0.723771870136261	1292844.1408046186
0.7260559797286987	1307630.0301881982
0.7283523678779602	1320180.598045245
0.7306615710258484	1330991.865057238
0.7329838871955872	1340671.9986519408
0.7353196740150452	1344524.2783030241
0.7376693487167358	1340263.2379126668
0.7400332689285278	1326228.0319308157
0.7424117922782898	1297104.8396970544
0.7448052167892456	1251215.338138234
0.7472138404846191	1184662.7148055485
0.7496379613876343	1090493.9993019244
0.7520779371261597	963755.426320374
0.7545340061187744	802087.158451123
0.7570064663887024	610098.1361857709
0.7594954967498779	404382.8424431774
0.7620013952255249	215065.87334022686
0.7645244002342224	80308.05415091536
0.7670646905899048	19728.050374549293
0.7696225643157959	22990.644165517213
0.7721980810165405	101809.24031202214
0.7747915983200073	277190.2853513411
0.7774031162261963	499909.29135675414
0.7800329327583313	742968.8651746084
0.7826811671257019	1059107.335076482
0.7853479981422424	1393722.5782858657
0.7880334854125977	1654334.063481909
0.7907378077507019	1734589.5739350694
0.7934610247612	1571441.8524015935
0.7962033748626709	1686068.1401585725
0.7989648580551147	2202634.141641469
0.801745593547821	2557773.450997494
0.8045456409454346	2710744.421098755
0.8073651194572449	2831010.305269437
0.8102040886878967	2929621.6749401637
0.8130625486373901	3031106.422170231
0.8159406185150146	3151063.814657362
0.8188382983207703	3269193.574053254
0.8217556476593018	3384924.4103679275
0.8246926665306091	3506437.1222500247
0.8276493549346924	3619458.6150518586
0.8306257724761963	3721678.4256394315
0.8336219191551208	3824285.479458359
0.8366377949714661	3924840.13735552
0.8396733403205872	4037347.860326283
0.8427285552024841	4173402.7412064252
0.8458034992218018	4303047.88302793
0.8488980531692505	4396115.597974158
0.8520121574401855	4480612.369745869
0.8551458716392517	4622435.768944775
0.8582990765571594	4765293.438298235
0.8614717125892639	4818237.423789912
0.8646637797355652	4876774.751072056
0.8678751587867737	5019320.266025269
0.8711057901382446	5172403.048218862
0.8743556141853333	5302393.860784011
0.87762451171875	5417412.907818844
0.8809124231338501	5525549.35503507
0.8842192888259888	5652039.002416987
0.8875449895858765	5760349.679992539
0.8908893465995789	5796067.569657998
0.894252359867096	5848668.452890044
0.8976338505744934	6042736.255358979
0.9010337591171265	6302817.27105129
0.9044519662857056	6518327.77378606
0.9078882932662964	6691906.614904448
0.9113426208496094	6832565.709793235
0.914814829826355	6921567.067629326
0.9183048605918884	7018172.520343025
0.9218124747276306	7104955.078076361
0.925337553024292	6854397.625848913
0.9288799166679382	6311108.73405429
0.9324395060539246	6139989.820619503
0.9360161423683167	6480381.321951475
0.9396095871925354	6893661.631290176
0.943219780921936	6986142.547947245
0.9468464851379395	6925182.623278693
0.9504896402359009	7105396.953861445
0.9541489481925964	7412242.523585073
0.9578243494033813	7497913.50772783
0.9615156054496765	7308317.361355481
0.9652225375175476	7266489.03082841
0.9689450263977051	7649628.6850729175
0.9726828336715698	8326976.443378925
0.9764357805252075	8856053.6659903
0.9802037477493286	9151298.583826968
0.983986496925354	9433261.763998615
0.9877838492393494	9739468.362572663
0.9915955662727356	10067842.764174161
0.9954215884208679	10355499.153438734
0.9992615580558777	10578232.714000437
1.0031154155731201	10786089.196233694
1.0069829225540161	11052405.715912359
1.0108637809753418	11368547.567306358
1.0147579908370972	11685629.735462677
1.018665075302124	11951494.889760701
1.022585153579712	12118583.726353997
1.0265177488327026	12238653.501621256
1.0304628610610962	12446296.767544456
1.0344202518463135	12789266.995511437
1.0383895635604858	13120030.408499446
1.0423706769943237	13364749.63366343
1.0463634729385376	13574310.85116604
1.0503677129745483	13773376.022783825
1.0543830394744873	14012001.318784818
1.058409333229065	14271494.731143344
1.0624464750289917	14502766.508764135
1.0664942264556885	14711648.738975972
1.0705522298812866	14915849.689155336
1.0746204853057861	15140899.674715947
1.0786986351013184	15378756.726204997
1.0827864408493042	15595023.329840416
1.086883783340454	15715170.04984071
1.0909905433654785	15687252.535363743
1.0951062440872192	15452003.966108216
1.0992310047149658	14436037.497741392
1.10336434841156	12841539.676655402
1.1075061559677124	12224538.28610464
1.1116561889648438	12174321.37933558
1.115814208984375	11686538.41325225
1.1199802160263062	11379548.707411252
1.124153733253479	11753533.552886205
1.1283347606658936	12097422.33458179
1.1325229406356812	11500782.528806193
1.1367181539535522	11796721.083353318
1.1409201622009277	13468409.032057088
1.145128846168518	14465321.064629924
1.1493438482284546	13491808.005095972
1.1535650491714478	11287560.917810652
1.1577922105789185	10504825.304474495
1.1620250940322876	11598663.95849584
1.1662636995315552	13262500.653662972
1.170507550239563	14395253.98807998
1.174756646156311	15534851.564019993
1.1790107488632202	17245149.71809642
1.1832695007324219	18613829.829209633
1.1875330209732056	19375622.893194396
1.191800832748413	20048931.812695842
1.1960728168487549	20847888.665313505
1.2003488540649414	21392268.218826253
1.2046287059783936	21678838.659140065
1.2089121341705322	21973523.04885529
1.2131990194320679	22374142.58435567
1.2174891233444214	22857331.09107149
1.2217823266983032	23320352.14566606
1.2260783910751343	23711750.07231758
1.230377197265625	24040308.838468183
1.2346785068511963	24334185.370189924
1.238982081413269	24645927.96195266
1.2432878017425537	24930377.75237211
1.2475954294204712	25084773.78380806
1.2519049644470215	25172511.956423324
1.256216049194336	25504305.191568505
1.2605286836624146	25903364.44820046
1.2648425102233887	26102485.01236184
1.2691574096679688	26258298.344618782
1.2734732627868652	26447907.350373685
1.2777899503707886	26634312.17663959
1.2821072340011597	26756548.075634573
1.2864248752593994	26753434.986994408
1.2907428741455078	26624455.694499835
1.2950609922409058	26663134.98024349
1.2993791103363037	26746883.07164423
1.303696870803833	26606946.88211012
1.3080145120620728	26596951.361686725
1.3123314380645752	26875467.162791077
1.3166478872299194	27236193.59984161
1.3209635019302368	26854465.424223438
1.3252781629562378	25136940.53658588
1.3295916318893433	21394155.02966929
1.3339040279388428	14870278.141004492
1.3382149934768677	7950207.152428497
1.3425244092941284	4651431.255646932
1.3468321561813354	4651535.769732148
1.3511382341384888	4105982.475191565
1.3554422855377197	2971779.9611071027
1.3597444295883179	2727220.382687442
1.3640443086624146	3046355.284338382
1.3683418035507202	3910503.9196552867
1.3726370334625244	6168811.56590005
1.3769296407699585	8402567.352664376
1.381219506263733	6706742.144345064
1.3855066299438477	3267195.762632941
1.3897908926010132	2128839.33672592
1.3940720558166504	2371114.5091714566
1.3983501195907593	2940258.324372328
1.4026249647140503	4595504.797010828
1.4068963527679443	5950211.428343578
1.4111642837524414	4753924.8217057325
1.4154287576675415	3648658.033284603
1.419689416885376	3701577.6764388313
1.4239463806152344	3615197.225974224
1.4281994104385376	4335348.474197502
1.4324485063552856	4931055.380364973
1.436693549156189	4959516.419163664
1.440934419631958	5839542.776745098
1.4451709985733032	8071518.261926053
1.449403166770935	11221662.820955524
1.453631043434143	13310838.573657494
1.4578542709350586	14294304.881478868
1.4620729684829712	15433017.07292914
1.4662868976593018	15618779.145619795
1.4704961776733398	14797737.187353011
1.4747005701065063	14585449.706285179
1.4788999557495117	15428065.301138414
1.4830944538116455	17537464.865113374
1.4872838258743286	19758170.168457992
1.491468071937561	20374392.306264296
1.4956470727920532	20364194.35155132
1.4998208284378052	21677480.975989044
1.5039892196655273	23433860.029317006
1.5081522464752197	23810210.941338476
1.5123097896575928	24257748.27238365
1.5164618492126465	26002156.126569387
1.5206083059310913	28521784.510675833
1.5247491598129272	30292734.88027272
1.5288842916488647	30564707.599741545
1.5330137014389038	31127462.569747545
1.5371372699737549	32207386.681115102
1.541254997253418	32707173.77981209
1.545366883277893	33276236.096538782
1.5494728088378906	34192283.87584297
1.5535727739334106	34712919.7953465
1.5576666593551636	34699484.09749528
1.561754584312439	35125182.469606385
1.5658363103866577	36282879.717699766
1.5699119567871094	36976930.100818016
1.5739814043045044	36575539.975467205
1.5780447721481323	35889787.719826035
1.582101821899414	36473860.00462978
1.5861525535583496	37974731.759085685
1.5901970863342285	38631820.22290819
1.5942351818084717	38375853.23698546
1.5982669591903687	37948660.04861954
1.6022924184799194	37841925.23213626
1.606311559677124	38029310.05490057
1.6103241443634033	37996299.81605783
1.6143304109573364	37614587.13306724
1.6183301210403442	37087134.830535576
1.6223233938217163	36522908.698893696
1.6263102293014526	35873752.02633628
1.6302905082702637	35178115.26277514
1.634264349937439	35890993.91390467
1.638231635093689	38215282.09559986
1.6421923637390137	39453286.022294246
1.646146535873413	38509092.11146314
1.6500942707061768	37365875.837329194
1.6540353298187256	37842943.27526616
1.6579699516296387	38622580.21057982
1.661897897720337	37271944.987921536
1.6658192873001099	33381690.514021866
1.6697341203689575	31814192.161434367
1.6736423969268799	34965482.62571376
1.677544116973877	37256769.60163341
1.6814392805099487	37103554.756829016
1.6853278875350952	36678142.750167355
1.6892099380493164	35698868.97896191
1.6930854320526123	33464131.850856356
1.696954369544983	31152740.41004224
1.7008168697357178	30794222.98841378
1.7046726942062378	31689226.861692492
1.708522081375122	32617070.385359984
1.712364912033081	33370430.732479233
1.7162011861801147	34265130.817873515
1.7200311422348022	35293984.89101604
1.723854422569275	35415459.55637827
1.7276713848114014	34527559.96121302
1.731481909751892	32882636.000997383
1.7352858781814575	31056564.434887595
1.7390835285186768	29871098.472202715
1.7428747415542603	28611134.58353598
1.7466596364974976	26597495.140405133
1.7504380941390991	24132579.11513125
1.7542102336883545	22649783.422150586
1.7579760551452637	25182133.75773389
1.7617355585098267	28470624.815271005
1.7654887437820435	26600387.162433363
1.7692357301712036	21185784.93525551
1.7729763984680176	15428633.83237647
1.776710867881775	10399496.083999073
1.7804391384124756	8460727.685959
1.7841613292694092	8698772.176574685
1.7878772020339966	7912608.820066438
1.7915871143341064	8230663.141898373
1.7952908277511597	10536421.476512212
1.7989884614944458	11050489.735490616
1.8026801347732544	7769035.289328019
1.806365728378296	4124128.8784750844
1.8100452423095703	4238161.785665321
1.8137187957763672	5469464.983778176
1.817386507987976	4714299.609595041
1.8210482597351074	5412688.786425299
1.8247040510177612	6020531.375289746
1.828354001045227	3741420.282132582
1.8319982290267944	3072206.1294697365
1.8356364965438843	5163522.3406152995
1.8392690420150757	7219516.015455674
1.8428958654403687	7374565.726719929
1.8465168476104736	7087615.771678345
1.8501322269439697	7269869.6833852725
1.8537418842315674	5687846.077006264
1.8573459386825562	3937532.240943339
1.860944390296936	3377682.826257469
1.864537239074707	2663569.775057281
1.8681244850158691	3051342.827484
1.871706247329712	5092411.69809548
1.8752825260162354	7471912.536818761
1.8788533210754395	10389444.303374536
1.8824186325073242	12465913.593897106
1.8859784603118896	11662667.999436526
1.8895330429077148	10960133.424535701
1.8930821418762207	13128249.279322386
1.8966259956359863	12933549.553670239
1.9001644849777222	7441783.107003645
1.9036977291107178	3561106.058161449
1.9072256088256836	3961596.263493806
1.9107483625411987	3921965.989118285
1.9142658710479736	2360225.0364035005
1.9177782535552979	2151124.343321842
1.9212853908538818	3046092.686176373
1.9247875213623047	3112333.239952979
1.9282845258712769	3218066.3535463954
1.9317764043807983	4218375.331360189
1.9352631568908691	4687532.475470181
1.9387450218200684	4405900.793689231
1.942221760749817	4744685.794328144
1.9456936120986938	5446535.270104584
1.9491604566574097	6197182.84339273
1.952622413635254	5985136.527270784
1.956079363822937	4747195.611490546
1.959531545639038	4593932.063830191
1.962978720664978	5116574.518900593
1.966421127319336	6511582.770430916
1.9698586463928223	9036647.46658436
1.9732913970947266	10299925.94972202
1.9767193794250488	11003101.118029268
1.9801424741744995	12971619.398033388
1.9835609197616577	15004789.28833636
1.9869745969772339	15203163.536425712
1.990383505821228	13276002.356402248
1.9937876462936401	12516933.974257339
1.9971871376037598	12867861.724788778
2.000581979751587	13981867.69739942
2.003972291946411	17155164.252580006
2.007357597351074	19734349.250261594
2.0107386112213135	21985938.32538664
2.0141148567199707	22885232.00075723
2.017486572265625	21076593.56805009
2.0208535194396973	21577460.15049006
2.0242159366607666	24778249.388762183
2.027573823928833	26852955.728276215
2.0309269428253174	28209856.450709797
2.034275770187378	29912337.718539156
2.0376198291778564	31282808.48111607
2.040959596633911	32576880.835128378
2.044294595718384	34332709.77840986
2.0476250648498535	36156452.18372381
2.0509510040283203	36568186.763827465
2.054272413253784	35575080.384425946
2.057589530944824	35788473.98735658
2.0609018802642822	37260215.649291
2.0642096996307373	38500963.8931383
2.0675129890441895	39319480.17477957
2.0708119869232178	39621430.45675759
2.074106216430664	39341581.82269981
2.0773961544036865	39132680.74664435
2.080681324005127	39486422.43665783
2.0839622020721436	39964505.66786283
2.087238311767578	40292641.086888485
2.090510129928589	40243784.83101986
2.0937774181365967	39843355.804770775
2.0970399379730225	39717600.80574732
2.1002981662750244	39736298.82714111
2.1035518646240234	39436074.60154033
2.1068007946014404	39042557.45467867
2.1100454330444336	39293910.53460185
2.1132853031158447	39778633.22644657
2.116520881652832	39477203.95654759
2.1197516918182373	39061505.67715002
2.1229779720306396	39188032.152196966
2.12619948387146	39436665.39154921
2.1294167041778564	39488800.03940224
2.132629156112671	39467379.231485836
2.1358368396759033	39083439.761919215
2.139039993286133	38282760.31561766
2.1422386169433594	37514946.76336101
2.145432472229004	36867884.67380522
2.1486217975616455	36367897.00201907
2.151806354522705	35811248.86078827
2.1549863815307617	35703154.76014706
2.1581614017486572	35792682.380883425
2.16133189201355	35174609.14164036
2.1644976139068604	34575773.161994785
2.167658567428589	34375501.739140145
2.1708147525787354	34311439.32010566
2.173966407775879	34102735.40057921
2.1771130561828613	33633291.85574913
2.1802549362182617	33005823.12998134
2.183391809463501	32116670.580028735
2.1865241527557373	30996318.95222067
2.1896514892578125	29521872.19238314
2.1927738189697266	26766494.836462677
2.1958916187286377	22513985.47719323
2.1990041732788086	18562273.402655907
2.2021119594573975	16338810.56251115
2.2052149772644043	15422015.737735935
2.208312749862671	15542450.65093383
2.2114057540893555	16851824.123060647
2.214493751525879	18277144.05815001
2.217576742172241	18449990.721619952
2.2206547260284424	18025946.027453057
2.2237277030944824	17603858.049729396
2.2267956733703613	16141035.768254349
2.2298583984375	14052450.364502255
2.2329163551330566	12775968.272276407
2.235969066619873	12447217.437757354
2.2390167713165283	12092968.477490008
2.2420592308044434	10881159.764061604
2.2450966835021973	9533686.461978788
2.248128890991211	9719966.62879038
2.2511560916900635	11001003.900076546
2.254178285598755	11746393.13087142
2.257194995880127	12227395.401029427
2.260206699371338	12294715.29411
2.2632133960723877	11030532.512939101
2.266214609146118	9395443.675753122
2.2692108154296875	8825643.252084864
2.2722020149230957	9531458.8823671
2.2751877307891846	10431047.633361675
2.278168201446533	10352392.613569204
2.2811436653137207	9587559.919698946
2.284113883972168	8941599.156052211
2.287078857421875	8391238.574066361
2.290038824081421	7863581.519980684
2.2929933071136475	7632587.3399174195
2.295942783355713	7640478.679352406
2.298887014389038	7685734.865374986
2.301826238632202	7893598.455759056
2.304760217666626	8593195.992828093
2.3076889514923096	9815427.561053064
2.310612440109253	10977575.280872704
2.3135311603546143	10664099.703050954
2.3164443969726562	8207932.343393709
2.319352865219116	5745316.450993329
2.322256088256836	4976556.640538036
2.3251543045043945	4909262.565477789
2.328047275543213	4794812.927138921
2.330935478210449	4855414.089018504
2.3338186740875244	4984193.674278858
2.3366971015930176	5019355.189642511
2.3395702838897705	5017884.796530014
2.3424389362335205	4871171.308580586
2.3453025817871094	4594869.781722611
2.348161458969116	4522270.902759728
2.351015567779541	5041111.752004508
2.353865146636963	6090531.001139542
2.3567099571228027	7020050.763727678
2.3595502376556396	7713183.451345802
2.3623859882354736	8409704.48786479
2.3652172088623047	8220902.781760251
2.368043899536133	6391467.939773501
2.370866537094116	4338892.751277551
2.3736846446990967	3819042.191114025
2.3764986991882324	4182737.948994722
2.3793084621429443	4326929.263108939
2.3821144104003906	4605100.748788614
2.384916305541992	5485934.987126451
2.387714147567749	6423415.652261251
2.3905084133148193	6664247.703469077
2.393299102783203	6534215.951604296
2.3960859775543213	6475863.290722102
2.398869514465332	6529447.568171944
2.4016497135162354	6428857.398027881
2.4044265747070312	6243768.531025578
2.407200336456299	6751593.272955339
2.409970998764038	7842234.850790985
2.4127390384674072	8529500.463357145
2.415503978729248	8834321.418720778
2.418266534805298	9563602.491718937
2.4210267066955566	10178464.20627237
2.4237842559814453	9492889.746403225
2.426539897918701	8370279.36385133
2.429293394088745	8497834.79911006
2.4320452213287354	9501404.074718107
2.4347951412200928	10008353.357846616
2.4375438690185547	9854109.048318647
2.440291166305542	9531611.246488128
2.443037271499634	8952114.25689907
2.445782423019409	7939625.296805571
2.4485268592834473	6870266.629305818
2.451270818710327	6546128.178770878
2.454014539718628	7610002.965694136
2.4567582607269287	8788651.313079558
2.4595019817352295	8597890.441269182
2.4622461795806885	8676557.443372779
2.4649908542633057	8806710.845774394
2.4677364826202393	7231867.94492609
2.4704833030700684	5233582.309656893
2.473231554031372	3877833.2037109626
2.4759814739227295	3022112.9329884597
2.4787333011627197	2730274.425340509
2.481487512588501	3155561.5542088696
2.4842441082000732	3805931.421397037
