#wavelength	surface flux
0.6450077295303345	31616.80209154796
0.6472567915916443	49938.80551012284
0.6494921445846558	65571.91849359004
0.6517150402069092	75882.61112895947
0.6539263725280762	86573.27790528488
0.6561272740364075	98008.99823368185
0.6583186388015747	110201.71452842315
0.6605015397071838	123115.61331766938
0.6626768708229065	136646.31411186786
0.6648455858230591	150012.4680349536
0.6670085787773132	156490.8727351492
0.6691668033599854	144723.68652743814
0.6713210344314575	141429.80785350298
0.6734722256660461	179194.98432841143
0.6756211519241333	225437.62824139596
0.6777685880661011	253591.8257217852
0.6799154281616211	275134.6479621371
0.6820623278617859	295648.29506713914
0.6842101216316223	315812.79218418454
0.6863595843315125	335619.9858173527
0.688511312007904	354555.1446399468
0.6906660795211792	371221.2124077962
0.6928245425224304	386169.7543735756
0.6949873566627502	403353.7672483104
0.6971551775932312	421664.191628641
0.6993286609649658	437201.65378579224
0.7015084028244019	450737.91155648144
0.7036949396133423	462106.4784160897
0.7058889269828796	470041.39963192894
0.7080909013748169	474809.38605476264
0.710301399230957	477224.0099685583
0.712520956993103	476664.67180773936
0.7147500514984131	471062.04422024987
0.7169892191886902	460252.9857505088
0.7192389369010925	445642.1309986073
0.7214996814727783	426996.3297121399
0.723771870136261	403894.2350895441
0.7260559797286987	377819.52378517203
0.7283523678779602	349447.55845557066
0.7306615710258484	323359.259102505
0.7329838871955872	301557.29804403585
0.7353196740150452	274352.39926007355
0.7376693487167358	240060.79643775913
0.7400332689285278	204940.85993869437
0.7424117922782898	170746.7045027005
0.7448052167892456	138687.63581399515
0.7472138404846191	108973.92915411503
0.7496379613876343	81846.32988713018
0.7520779371261597	58446.87045453892
0.7545340061187744	39399.47365968288
0.7570064663887024	24859.859458334766
0.7594954967498779	14530.576699141464
0.7620013952255249	7617.200674159951
0.7645244002342224	3306.0378330515423
0.7670646905899048	1252.511901804288
0.7696225643157959	1339.4188630349283
0.7721980810165405	4070.062827416407
0.7747915983200073	10170.235578194677
0.7774031162261963	19108.84920751048
0.7800329327583313	33259.68974955631
0.7826811671257019	59939.25034417419
0.7853479981422424	100046.71398368618
0.7880334854125977	148456.34914986487
0.7907378077507019	183918.4111057289
0.7934610247612	192365.57915009273
0.7962033748626709	265173.8198061343
0.7989648580551147	435318.17132548837
0.801745593547821	603511.9739977837
0.8045456409454346	749545.7162213596
0.8073651194572449	898154.0633195902
0.8102040886878967	1050306.2839940481
0.8130625486373901	1227211.878817836
0.8159406185150146	1436819.9186748837
0.8188382983207703	1670347.2917456345
0.8217556476593018	1940625.8229774355
0.8246926665306091	2224048.309851701
0.8276493549346924	2489112.754468783
0.8306257724761963	2785790.599145728
0.8336219191551208	3151480.883997947
0.8366377949714661	3521048.6929871407
0.8396733403205872	3878578.777640586
0.8427285552024841	4278712.9749967065
0.8458034992218018	4667397.686362637
0.8488980531692505	4729347.851433169
0.8520121574401855	4680794.514514676
0.8551458716392517	5461823.707760926
0.8582990765571594	6615830.170640192
0.8614717125892639	7158976.586076043
0.8646637797355652	7549167.917455205
0.8678751587867737	8241309.789317795
0.8711057901382446	8993931.949979724
0.8743556141853333	9703559.771152105
0.87762451171875	10445107.536145642
0.8809124231338501	11126437.822359374
0.8842192888259888	11730240.459116321
0.8875449895858765	12118481.375274517
0.8908893465995789	11631873.61346805
0.894252359867096	10889424.530576982
0.8976338505744934	12362606.940199796
0.9010337591171265	15722351.93430785
0.9044519662857056	18501016.36155346
0.9078882932662964	20283799.455784064
0.9113426208496094	21410698.759659514
0.914814829826355	21950730.873883747
0.9183048605918884	22488468.28533234
0.9218124747276306	21961534.067115642
0.925337553024292	18184153.290648013
0.9288799166679382	14500250.970872449
0.9324395060539246	14197826.35185709
0.9360161423683167	15292825.177611113
0.9396095871925354	16041222.087612122
0.943219780921936	15841755.03742353
0.9468464851379395	14338163.325617341
0.9504896402359009	15222472.931045037
0.9541489481925964	20078206.132393166
0.9578243494033813	21803212.82836215
0.9615156054496765	17943725.730810937
0.9652225375175476	14404830.460490754
0.9689450263977051	17469007.60733246
0.9726828336715698	25051379.425815854
0.9764357805252075	28897853.359819032
0.9802037477493286	30420683.11734693
0.983986496925354	35033316.2122969
0.9877838492393494	39662707.22741687
0.9915955662727356	41305064.10219468
0.9954215884208679	40852250.039078355
0.9992615580558777	38062034.73989351
1.0031154155731201	35857141.879193515
1.0069829225540161	38066490.008006334
1.0108637809753418	43712010.146459006
1.0147579908370972	49954764.58171547
1.018665075302124	54218410.480696365
1.022585153579712	55588111.313151784
1.0265177488327026	57122789.930441745
1.0304628610610962	61589343.355462804
1.0344202518463135	66793163.41945363
1.0383895635604858	70605292.80250315
1.0423706769943237	73567068.98620005
1.0463634729385376	75832861.81647412
1.0503677129745483	77894701.31702223
1.0543830394744873	81872905.0701066
1.058409333229065	86758103.80888502
1.0624464750289917	90117756.60097037
1.0664942264556885	91690055.43636599
1.0705522298812866	92528071.04298915
1.0746204853057861	94056187.72713277
1.0786986351013184	95326391.7053486
1.0827864408493042	95847576.25998841
1.086883783340454	90356071.53535168
1.0909905433654785	74745188.26891233
1.0951062440872192	59429445.34735794
1.0992310047149658	43941243.26069129
1.10336434841156	24762697.798903145
1.1075061559677124	15201632.595301274
1.1116561889648438	13139787.464217301
1.115814208984375	10197757.326755328
1.1199802160263062	9640203.023875907
1.124153733253479	10554385.27255174
1.1283347606658936	8978442.279425252
1.1325229406356812	6982662.52327071
1.1367181539535522	10742333.5587565
1.1409201622009277	18592523.393245913
1.145128846168518	22669275.43031686
1.1493438482284546	19313282.331936117
1.1535650491714478	13047495.309334295
1.1577922105789185	10386675.800476838
1.1620250940322876	11230443.970220959
1.1662636995315552	15036035.554018226
1.170507550239563	19813488.560215678
1.174756646156311	25174965.851030447
1.1790107488632202	33499388.009786453
1.1832695007324219	38371216.40768894
1.1875330209732056	36810049.63423514
1.191800832748413	43968041.974317625
1.1960728168487549	60411807.39567757
1.2003488540649414	70119104.14577991
1.2046287059783936	73840762.30209735
1.2089121341705322	75722599.00391077
1.2131990194320679	79280225.92959441
1.2174891233444214	88036610.36009605
1.2217823266983032	95577173.36792713
1.2260783910751343	100122813.42388417
1.230377197265625	105253521.24905163
1.2346785068511963	108455227.7139488
1.238982081413269	106232853.60102788
1.2432878017425537	102775497.14648563
1.2475954294204712	102193839.15219492
1.2519049644470215	102374349.07306296
1.256216049194336	112358108.2391828
1.2605286836624146	123667102.6892783
1.2648425102233887	122890190.97702551
1.2691574096679688	124823427.7860636
1.2734732627868652	132394298.3397922
1.2777899503707886	131249558.68292584
1.2821072340011597	121767902.79799184
1.2864248752593994	118039618.50493552
1.2907428741455078	118248338.99576147
1.2950609922409058	114722449.12137099
1.2993791103363037	100077644.30333854
1.303696870803833	86283400.13314927
1.3080145120620728	84968986.95801836
1.3123314380645752	86940076.2621507
1.3166478872299194	88860075.1178126
1.3209635019302368	79153075.07107995
1.3252781629562378	60605300.4854653
1.3295916318893433	41660297.00041816
1.3339040279388428	19839165.438145928
1.3382149934768677	5721358.800392615
1.3425244092941284	2412380.7537034866
1.3468321561813354	1916143.918703099
1.3511382341384888	1667573.0571053275
1.3554422855377197	1244215.3598933634
1.3597444295883179	1413287.7160354946
1.3640443086624146	2069653.6463901815
1.3683418035507202	1908588.0727351015
1.3726370334625244	1459947.156022888
1.3769296407699585	1779188.3231197237
1.381219506263733	1679195.1096123827
1.3855066299438477	948924.2901861235
1.3897908926010132	1003677.7423287504
1.3940720558166504	1660765.4366688565
1.3983501195907593	1556369.6482686645
1.4026249647140503	1374268.4685202197
1.4068963527679443	1681865.5181036952
1.4111642837524414	1691458.807462099
1.4154287576675415	1605541.2439537612
1.419689416885376	1533165.689346698
1.4239463806152344	1483376.9378386773
1.4281994104385376	1182644.97848677
1.4324485063552856	874474.8910121296
1.436693549156189	1371023.64145749
1.440934419631958	2601268.070316021
1.4451709985733032	4650070.218666056
1.449403166770935	6901452.916712146
1.453631043434143	6993880.542366254
1.4578542709350586	6278762.172868567
1.4620729684829712	8018817.315671837
1.4662868976593018	9879387.305093037
1.4704961776733398	7226252.834624875
1.4747005701065063	3615090.75084717
1.4788999557495117	4823716.93962188
1.4830944538116455	8897062.840121908
1.4872838258743286	10154869.469793487
1.491468071937561	8051431.464880163
1.4956470727920532	8182204.337215935
1.4998208284378052	11967468.548321515
1.5039892196655273	13659947.74693742
1.5081522464752197	11394990.750619685
1.5123097896575928	11854870.696717797
1.5164618492126465	18451083.390812583
1.5206083059310913	25879504.793933578
1.5247491598129272	28144283.121348683
1.5288842916488647	28042461.173958793
1.5330137014389038	30570397.59871071
1.5371372699737549	32859496.773569055
1.541254997253418	32764129.47194836
1.545366883277893	34761260.801525936
1.5494728088378906	37694636.41874479
1.5535727739334106	39156323.98739812
1.5576666593551636	41638787.491019234
1.561754584312439	45784822.10559889
1.5658363103866577	50159633.263668895
1.5699119567871094	52132018.82135263
1.5739814043045044	51589698.69290903
1.5780447721481323	52556673.82848862
1.582101821899414	56312369.79568932
1.5861525535583496	59493390.810788736
1.5901970863342285	58510538.066610396
1.5942351818084717	54551273.74556399
1.5982669591903687	53034712.1562118
1.6022924184799194	52495070.88259115
1.606311559677124	49701042.71006823
1.6103241443634033	48560782.5046491
1.6143304109573364	46706695.09444482
1.6183301210403442	41507764.14508543
1.6223233938217163	37769677.75097725
1.6263102293014526	36121963.94090502
1.6302905082702637	36832581.37529421
1.634264349937439	41043315.873974554
1.638231635093689	45997886.140921846
1.6421923637390137	46903009.042545915
1.646146535873413	40369287.21789034
1.6500942707061768	34274159.197919786
1.6540353298187256	35430968.668133356
1.6579699516296387	37112991.381173745
1.661897897720337	34469032.43197127
1.6658192873001099	25191162.683061022
1.6697341203689575	17629325.713634804
1.6736423969268799	20714295.911628347
1.677544116973877	24684438.066962942
1.6814392805099487	24523153.11582652
1.6853278875350952	22378022.122360732
1.6892099380493164	19014365.87216932
1.6930854320526123	16220286.122824809
1.696954369544983	14344344.187661897
1.7008168697357178	13599841.71552166
1.7046726942062378	13717823.059834037
1.708522081375122	15118457.083364956
1.712364912033081	16082040.453169659
1.7162011861801147	15973617.813638913
1.7200311422348022	17159722.215655312
1.723854422569275	17508839.180521216
1.7276713848114014	15445747.225956427
1.731481909751892	13338026.098226992
1.7352858781814575	12787157.415114963
1.7390835285186768	13531424.85354123
1.7428747415542603	13649426.209114244
1.7466596364974976	11295553.989770131
1.7504380941390991	8668272.915124886
1.7542102336883545	9119750.706957819
1.7579760551452637	11685815.64779356
1.7617355585098267	13973207.895854007
1.7654887437820435	13876100.86042549
1.7692357301712036	10589191.512353215
1.7729763984680176	6972157.824082846
1.776710867881775	4527161.161716222
1.7804391384124756	3507385.5674028816
1.7841613292694092	3574701.2725801324
1.7878772020339966	3716018.684065175
1.7915871143341064	5196124.6172942715
1.7952908277511597	6640596.962926916
1.7989884614944458	5977249.235713476
1.8026801347732544	4374313.162255529
1.806365728378296	3296323.531274585
1.8100452423095703	2920275.1897249473
1.8137187957763672	2476970.250328733
1.817386507987976	1836328.3630259815
1.8210482597351074	3145079.1479325653
1.8247040510177612	5587922.471442699
1.828354001045227	5073993.196941827
1.8319982290267944	2782069.945572502
1.8356364965438843	2756173.97220721
1.8392690420150757	4477747.970714158
1.8428958654403687	5189164.029557388
1.8465168476104736	4528899.199601888
1.8501322269439697	3608124.9025193774
1.8537418842315674	3024645.4300259934
1.8573459386825562	3080322.6783326035
1.860944390296936	2483565.8727227077
1.864537239074707	1144065.0321875524
1.8681244850158691	637446.0516915238
1.871706247329712	1229605.365423365
1.8752825260162354	2315575.2217151616
1.8788533210754395	2858198.3797734976
1.8824186325073242	3264343.444540664
1.8859784603118896	5135599.598706519
1.8895330429077148	6955683.224647384
1.8930821418762207	5694802.593882428
1.8966259956359863	3778302.5782649284
1.9001644849777222	3457236.2667465988
1.9036977291107178	2961316.5437937193
1.9072256088256836	3634895.6895394204
1.9107483625411987	4624649.684476692
1.9142658710479736	3335907.022700905
1.9177782535552979	2635522.7678913446
1.9212853908538818	2521577.7901504165
1.9247875213623047	1266391.8426211663
1.9282845258712769	742155.328607942
1.9317764043807983	2014387.814324552
1.9352631568908691	4276614.058392688
1.9387450218200684	4606282.98305409
1.942221760749817	2690169.831289191
1.9456936120986938	1419127.2336081506
1.9491604566574097	1254835.7685486758
1.952622413635254	1772644.5919696088
1.956079363822937	3483464.769700997
1.959531545639038	5336050.301747767
1.962978720664978	4842308.257810286
1.966421127319336	3568001.7860852927
1.9698586463928223	4107063.9489713283
1.9732913970947266	4792706.451423471
1.9767193794250488	5056352.430807072
1.9801424741744995	5579611.071743297
1.9835609197616577	5782749.146016776
1.9869745969772339	6620306.584895999
1.990383505821228	7493798.927432359
1.9937876462936401	7310361.402845218
1.9971871376037598	6187484.570147345
2.000581979751587	4987780.262128339
2.003972291946411	6057221.48804651
2.007357597351074	7982895.191369534
2.0107386112213135	8783735.15604644
2.0141148567199707	8407738.964270804
2.017486572265625	7215609.424996211
2.0208535194396973	7270391.93683144
2.0242159366607666	8338347.44440844
2.027573823928833	8578991.127851138
2.0309269428253174	8422143.01181167
2.034275770187378	9506535.506739091
2.0376198291778564	12050044.513910409
2.040959596633911	14199952.434704633
2.044294595718384	14846008.895094873
2.0476250648498535	14672168.426847707
2.0509510040283203	13698702.06734262
2.054272413253784	12565553.456856439
2.057589530944824	13048143.858133394
2.0609018802642822	14692652.506449694
2.0642096996307373	15842075.342989642
2.0675129890441895	16228149.181860028
2.0708119869232178	16165748.638873145
2.074106216430664	15842187.914002642
2.0773961544036865	15921893.321907697
2.080681324005127	16302824.417174088
2.0839622020721436	16250687.880497938
2.087238311767578	15835421.002472216
2.090510129928589	15549169.766950415
2.0937774181365967	15587235.643534403
2.0970399379730225	15481788.993136207
2.1002981662750244	14816597.379965745
2.1035518646240234	14307807.283022024
2.1068007946014404	14403997.775969248
2.1100454330444336	14509060.77715505
2.1132853031158447	14209582.743615447
2.116520881652832	13454065.859376295
2.1197516918182373	12692276.35479809
2.1229779720306396	12316931.89262893
2.12619948387146	12061171.557484398
2.1294167041778564	11969719.083571775
2.132629156112671	12104698.262323868
2.1358368396759033	11701035.42227001
2.139039993286133	10956152.05747504
2.1422386169433594	10384959.996754954
2.145432472229004	9845739.183253745
2.1486217975616455	9428987.638335831
2.151806354522705	8901224.479187524
2.1549863815307617	8805684.274413746
2.1581614017486572	9326953.224578906
2.16133189201355	9595126.73504433
2.1644976139068604	9405689.857128061
2.167658567428589	8690894.535070328
2.1708147525787354	8026453.964929032
2.173966407775879	8182907.691106791
2.1771130561828613	8694219.627123544
2.1802549362182617	8601901.260759154
2.183391809463501	7817996.414617739
2.1865241527557373	7065018.040378634
2.1896514892578125	6564756.9843974365
2.1927738189697266	5736307.966455394
2.1958916187286377	4192105.517506003
2.1990041732788086	2563206.765011292
2.2021119594573975	1755657.937971288
2.2052149772644043	1761977.8355572054
2.208312749862671	2113739.1783485226
2.2114057540893555	2700899.9617769015
2.214493751525879	3164588.2420565
2.217576742172241	2899356.849980421
2.2206547260284424	2326960.526021827
2.2237277030944824	1975864.5824097807
2.2267956733703613	1644091.4321542503
2.2298583984375	1367715.1036248084
2.2329163551330566	1286468.8758826053
2.235969066619873	1367387.5849048966
2.2390167713165283	1381667.8626241863
2.2420592308044434	1210351.9506530475
2.2450966835021973	1039002.2020667868
2.248128890991211	993660.2825075076
2.2511560916900635	1063588.6493753714
2.254178285598755	1311852.6494993907
2.257194995880127	1762457.080354023
2.260206699371338	1755836.862964708
2.2632133960723877	1091017.9708727929
2.266214609146118	803356.5028862451
2.2692108154296875	1290747.9909012415
2.2722020149230957	1784519.7295552916
2.2751877307891846	1710094.9690855187
2.278168201446533	1437430.053286274
2.2811436653137207	1390082.6236024934
2.284113883972168	1337341.69546888
2.287078857421875	1080101.3068315603
2.290038824081421	872802.9851480861
2.2929933071136475	871840.4517160981
2.295942783355713	916231.6760103381
2.298887014389038	983451.8643506935
2.301826238632202	1188424.3432705041
2.304760217666626	1603715.673561515
2.3076889514923096	2201730.592154779
2.310612440109253	2837498.9784311363
2.3135311603546143	3329907.1593067776
2.3164443969726562	3013913.4875396607
2.319352865219116	1747900.422929673
2.322256088256836	823968.5006588302
2.3251543045043945	667054.1947114711
2.328047275543213	649625.0087426889
2.330935478210449	613152.0997623765
2.3338186740875244	549206.2741034376
2.3366971015930176	462043.25036913017
2.3395702838897705	404701.8646923749
2.3424389362335205	382146.0062460277
2.3453025817871094	363899.1984822941
2.348161458969116	356408.56366943376
2.351015567779541	507411.80983546306
2.353865146636963	972086.144663666
2.3567099571228027	1581758.3920235133
2.3595502376556396	1993056.0004114208
2.3623859882354736	1958578.7092463388
2.3652172088623047	1416768.5793967196
2.368043899536133	747415.7365858831
2.370866537094116	392633.4564048337
2.3736846446990967	360183.20009804907
2.3764986991882324	409982.40454761527
2.3793084621429443	444186.42005992454
2.3821144104003906	553963.6293822315
2.384916305541992	761489.7822453303
2.387714147567749	893252.3997706287
2.3905084133148193	831968.2638819133
2.393299102783203	720599.569797672
2.3960859775543213	643395.5332819222
2.398869514465332	652335.2913724085
2.4016497135162354	866106.2032697888
2.4044265747070312	1269783.5037961325
2.407200336456299	1579827.6001026505
2.409970998764038	1572222.5501296644
2.4127390384674072	1446685.4033208813
2.415503978729248	1454417.7122210534
2.418266534805298	1595199.0387606854
2.4210267066955566	1686802.086949795
2.4237842559814453	1592606.258490222
2.426539897918701	1560993.833090746
2.429293394088745	1886285.4756230302
2.4320452213287354	2223483.6315854527
2.4347951412200928	2143748.1290682913
2.4375438690185547	1935042.550640918
2.440291166305542	1941243.2775979529
2.443037271499634	1972427.1645147563
2.445782423019409	1931276.6620998562
2.4485268592834473	1994912.545349578
2.451270818710327	2152300.2174312817
2.454014539718628	2291325.440699961
2.4567582607269287	2351227.069789725
2.4595019817352295	2392604.236421042
2.4622461795806885	2720567.6007846734
2.4649908542633057	3151985.6979598296
2.4677364826202393	3042934.301382759
2.4704833030700684	2344662.2738064574
2.473231554031372	1556386.6301273657
2.4759814739227295	1052243.6627003802
2.4787333011627197	831081.98693623
