#wavelength	surface flux
0.6450077295303345	153426.68466751958
0.6472567915916443	231846.5864312251
0.6494921445846558	280685.70135828346
0.6517150402069092	295154.9015417748
0.6539263725280762	307461.29277194745
0.6561272740364075	319560.35804076097
0.6583186388015747	331838.428602386
0.6605015397071838	344397.19528595585
0.6626768708229065	356835.8293085027
0.6648455858230591	368745.86057689687
0.6670085787773132	372164.61444102344
0.6691668033599854	351774.9180862946
0.6713210344314575	343677.4365209708
0.6734722256660461	385249.3992363462
0.6756211519241333	429944.7845578092
0.6777685880661011	450875.3993465473
0.6799154281616211	465835.95215513685
0.6820623278617859	480596.0497360695
0.6842101216316223	496052.45325892227
0.6863595843315125	511362.027560071
0.688511312007904	525767.0915201084
0.6906660795211792	538363.546625635
0.6928245425224304	551640.1215788616
0.6949873566627502	569269.7571846273
0.6971551775932312	588035.2009185628
0.6993286609649658	604658.216866892
0.7015084028244019	620411.834494616
0.7036949396133423	637031.43347609
0.7058889269828796	654555.537993594
0.7080909013748169	671525.6322525122
0.710301399230957	688380.6284560919
0.712520956993103	705343.9265670654
0.7147500514984131	719845.3783665679
0.7169892191886902	732305.3892570449
0.7192389369010925	747634.6383586568
0.7214996814727783	764409.7231570072
0.723771870136261	778797.6394342913
0.7260559797286987	792159.3945819319
0.7283523678779602	805021.688806088
0.7306615710258484	818108.7867707106
0.7329838871955872	832246.6843146926
0.7353196740150452	844383.3986480959
0.7376693487167358	853352.2149454547
0.7400332689285278	858524.7261661987
0.7424117922782898	856675.7400335864
0.7448052167892456	847128.2951482541
0.7472138404846191	827245.2838375302
0.7496379613876343	791369.356824574
0.7520779371261597	733488.2028237078
0.7545340061187744	646583.9872495638
0.7570064663887024	525333.5797624319
0.7594954967498779	372744.5687490439
0.7620013952255249	210572.46518079523
0.7645244002342224	82341.94082827638
0.7670646905899048	20937.882202075292
0.7696225643157959	24153.95801792716
0.7721980810165405	103031.9102163569
0.7747915983200073	268890.05806757096
0.7774031162261963	463306.42883372126
0.7800329327583313	646950.0477698735
0.7826811671257019	854785.8556955574
0.7853479981422424	1056836.7957319359
0.7880334854125977	1201179.8439089977
0.7907378077507019	1233696.4682556738
0.7934610247612	1115731.772604955
0.7962033748626709	1163656.8893453926
0.7989648580551147	1459659.820203834
0.801745593547821	1659625.5650555233
0.8045456409454346	1737521.3914509506
0.8073651194572449	1797917.034417405
0.8102040886878967	1845838.0113115304
0.8130625486373901	1898134.0972876423
0.8159406185150146	1968629.8330726952
0.8188382983207703	2040302.8586082202
0.8217556476593018	2102879.017560549
0.8246926665306091	2166996.249877106
0.8276493549346924	2230753.796137594
0.8306257724761963	2289433.0259305052
0.8336219191551208	2349168.2109617908
0.8366377949714661	2408131.1214185925
0.8396733403205872	2475460.5780824134
0.8427285552024841	2559135.183070727
0.8458034992218018	2640798.2106136116
0.8488980531692505	2707297.018561407
0.8520121574401855	2770645.916588394
0.8551458716392517	2853189.211186988
0.8582990765571594	2934012.746141283
0.8614717125892639	2979667.241447524
0.8646637797355652	3029232.4884576197
0.8678751587867737	3115085.491317373
0.8711057901382446	3206270.1323823743
0.8743556141853333	3285694.1661825306
0.87762451171875	3355407.2193881916
0.8809124231338501	3423503.997753886
0.8842192888259888	3501627.207172907
0.8875449895858765	3568936.431815831
0.8908893465995789	3597272.0895601567
0.894252359867096	3632611.0798423034
0.8976338505744934	3747124.4059333163
0.9010337591171265	3906120.8344865
0.9044519662857056	4042930.0527694775
0.9078882932662964	4153336.1753376215
0.9113426208496094	4244523.6711023105
0.914814829826355	4303983.614640069
0.9183048605918884	4367973.770316422
0.9218124747276306	4424988.433732398
0.925337553024292	4257867.4870234495
0.9288799166679382	3892571.4384830254
0.9324395060539246	3769593.2949082153
0.9360161423683167	3990491.815350271
0.9396095871925354	4266431.232257154
0.943219780921936	4323465.493177851
0.9468464851379395	4275683.992682187
0.9504896402359009	4396157.982757988
0.9541489481925964	4605499.629693534
0.9578243494033813	4667564.817656589
0.9615156054496765	4544842.142196474
0.9652225375175476	4522534.102613768
0.9689450263977051	4787421.4128865
0.9726828336715698	5245392.426633411
0.9764357805252075	5599209.448113128
0.9802037477493286	5799021.481171371
0.983986496925354	5993668.982644832
0.9877838492393494	6206360.972297417
0.9915955662727356	6435997.89743692
0.9954215884208679	6641231.984616984
0.9992615580558777	6806885.727826185
1.0031154155731201	6958129.998216276
1.0069829225540161	7138466.6826813575
1.0108637809753418	7348337.188979372
1.0147579908370972	7559306.266510145
1.018665075302124	7738546.453935733
1.022585153579712	7854363.411935964
1.0265177488327026	7934462.142684165
1.0304628610610962	8070869.596521056
1.0344202518463135	8307786.820310152
1.0383895635604858	8541515.620532619
1.0423706769943237	8714540.513862688
1.0463634729385376	8861075.075712219
1.0503677129745483	8999527.652097836
1.0543830394744873	9166994.115868272
1.058409333229065	9350479.014227144
1.0624464750289917	9515477.394023098
1.0664942264556885	9664577.4643839
1.0705522298812866	9809756.352976223
1.0746204853057861	9970125.888421189
1.0786986351013184	10140259.190102804
1.0827864408493042	10296482.948423158
1.086883783340454	10390329.663207216
1.0909905433654785	10387444.770770619
1.0951062440872192	10239400.551133707
1.0992310047149658	9543565.997286718
1.10336434841156	8442614.41678496
1.1075061559677124	8015032.762491475
1.1116561889648438	7964181.344805005
1.115814208984375	7590767.955307901
1.1199802160263062	7343733.153956615
1.124153733253479	7592115.092734799
1.1283347606658936	7855614.5463507185
1.1325229406356812	7487886.84176089
1.1367181539535522	7730629.4437101325
1.1409201622009277	8900358.591915082
1.145128846168518	9586158.418741409
1.1493438482284546	8877257.50822626
1.1535650491714478	7296462.105913792
1.1577922105789185	6753975.340190639
1.1620250940322876	7576746.533266614
1.1662636995315552	8812657.469774995
1.170507550239563	9667417.688148454
1.174756646156311	10525866.060366066
1.1790107488632202	11751772.454243599
1.1832695007324219	12695550.490789525
1.1875330209732056	13226103.736373013
1.191800832748413	13708824.557214158
1.1960728168487549	14275694.72480676
1.2003488540649414	14666182.719367577
1.2046287059783936	14879856.899654321
1.2089121341705322	15105097.01802986
1.2131990194320679	15398432.761644363
1.2174891233444214	15739462.553545639
1.2217823266983032	16070154.487598708
1.2260783910751343	16357526.305311643
1.230377197265625	16602044.38329068
1.2346785068511963	16822045.042366415
1.238982081413269	17059405.26491498
1.2432878017425537	17281755.101360094
1.2475954294204712	17429309.351737063
1.2519049644470215	17543548.21678078
1.256216049194336	17775949.83824749
1.2605286836624146	18024843.091355246
1.2648425102233887	18165984.633099396
1.2691574096679688	18288907.543406557
1.2734732627868652	18437798.07124335
1.2777899503707886	18587429.95516074
1.2821072340011597	18688754.60395073
1.2864248752593994	18692849.332113497
1.2907428741455078	18603917.493538078
1.2950609922409058	18640161.139793254
1.2993791103363037	18708916.05530188
1.303696870803833	18615611.57026096
1.3080145120620728	18617185.908459254
1.3123314380645752	18835465.10171249
1.3166478872299194	19131262.93100351
1.3209635019302368	18887859.063748583
1.3252781629562378	17675312.676796764
1.3295916318893433	15037238.41519886
1.3339040279388428	10455329.445060141
1.3382149934768677	5573524.887215063
1.3425244092941284	3197464.782860008
1.3468321561813354	3132374.2189738075
1.3511382341384888	2711735.809911666
1.3554422855377197	1916966.7693763853
1.3597444295883179	1737187.524535193
1.3640443086624146	1924306.8408050968
1.3683418035507202	2496344.9667773973
1.3726370334625244	4074769.4007463157
1.3769296407699585	5663783.919845867
1.381219506263733	4505523.227273145
1.3855066299438477	2120806.499707305
1.3897908926010132	1336316.613024029
1.3940720558166504	1514049.4314130512
1.3983501195907593	1934397.929705292
1.4026249647140503	3096683.9478975018
1.4068963527679443	4026004.5150499535
1.4111642837524414	3195386.576886808
1.4154287576675415	2430596.0166180246
1.419689416885376	2455822.857185605
1.4239463806152344	2390013.1854286743
1.4281994104385376	2900261.3741559684
1.4324485063552856	3355045.1266706814
1.436693549156189	3420105.8383550225
1.440934419631958	4057494.773460979
1.4451709985733032	5696355.809219712
1.449403166770935	8062833.172627608
1.453631043434143	9642695.732151397
1.4578542709350586	10373904.952411627
1.4620729684829712	11219674.274192626
1.4662868976593018	11345173.961396985
1.4704961776733398	10689173.75474907
1.4747005701065063	10470124.069221647
1.4788999557495117	11082412.279200999
1.4830944538116455	12740539.629410207
1.4872838258743286	14524219.882885562
1.491468071937561	15038421.90095376
1.4956470727920532	14971940.531359129
1.4998208284378052	15891381.54660566
1.5039892196655273	17198570.39105337
1.5081522464752197	17509270.147868007
1.5123097896575928	17909059.89642689
1.5164618492126465	19268419.432287354
1.5206083059310913	21167761.49569117
1.5247491598129272	22505757.81750034
1.5288842916488647	22741906.06607824
1.5330137014389038	23184672.225272495
1.5371372699737549	23987108.171132077
1.541254997253418	24327638.51091004
1.545366883277893	24719005.197603647
1.5494728088378906	25402648.282673787
1.5535727739334106	25774160.389272742
1.5576666593551636	25668139.69714421
1.561754584312439	25917777.783886183
1.5658363103866577	26846543.433758304
1.5699119567871094	27437116.30539997
1.5739814043045044	27059424.296889458
1.5780447721481323	26357358.155811563
1.582101821899414	26811321.30120298
1.5861525535583496	28174604.934345704
1.5901970863342285	28784469.528120983
1.5942351818084717	28574824.17271308
1.5982669591903687	28210129.64296199
1.6022924184799194	28130086.555843227
1.606311559677124	28348148.897071835
1.6103241443634033	28357489.39872353
1.6143304109573364	28064240.145407096
1.6183301210403442	27684789.15737854
1.6223233938217163	27291187.02495445
1.6263102293014526	26845903.559084546
1.6302905082702637	26326909.5320801
1.634264349937439	26886276.848956
1.638231635093689	28736436.288908668
1.6421923637390137	29735442.472641133
1.646146535873413	28993598.54753181
1.6500942707061768	28099308.396871053
1.6540353298187256	28520240.42220489
1.6579699516296387	29185886.6196756
1.661897897720337	28156014.492171675
1.6658192873001099	25149414.83440788
1.6697341203689575	23993102.861729443
1.6736423969268799	26490881.167627294
1.677544116973877	28245928.212884802
1.6814392805099487	28115007.18578555
1.6853278875350952	27822692.700344995
1.6892099380493164	27097557.41250032
1.6930854320526123	25371302.711776067
1.696954369544983	23562243.262646187
1.7008168697357178	23292655.339610845
1.7046726942062378	24010179.452214915
1.708522081375122	24765651.76833193
1.712364912033081	25426332.253508925
1.7162011861801147	26213909.759414807
1.7200311422348022	27099118.49842677
1.723854422569275	27236884.100428797
1.7276713848114014	26569574.014155537
1.731481909751892	25331257.44806432
1.7352858781814575	23945745.336980626
1.7390835285186768	23049182.65375575
1.7428747415542603	22089088.011163626
1.7466596364974976	20522625.998305153
1.7504380941390991	18616612.177604657
1.7542102336883545	17521100.31624258
1.7579760551452637	19549848.853220917
1.7617355585098267	22086455.38885663
1.7654887437820435	20585752.07889299
1.7692357301712036	16347882.036233753
1.7729763984680176	11800731.812074719
1.776710867881775	7834939.693159771
1.7804391384124756	6314147.967814142
1.7841613292694092	6487879.035059327
1.7878772020339966	5887092.817854477
1.7915871143341064	6175733.993737073
1.7952908277511597	8039005.605407691
1.7989884614944458	8474857.671867209
1.8026801347732544	5869725.786731767
1.806365728378296	3004354.2145861005
1.8100452423095703	3085555.200250048
1.8137187957763672	4005072.032558571
1.817386507987976	3430211.642184781
1.8210482597351074	3985769.708405526
1.8247040510177612	4447936.416602832
1.828354001045227	2684311.5905360095
1.8319982290267944	2123081.4893037463
1.8356364965438843	3669652.369706887
1.8392690420150757	5215362.4044575915
1.8428958654403687	5344746.852281882
1.8465168476104736	5182118.904997107
1.8501322269439697	5410745.582146803
1.8537418842315674	4262708.823503143
1.8573459386825562	2927345.658052102
1.860944390296936	2483735.9689729763
1.864537239074707	1885823.5093820328
1.8681244850158691	2090266.287361261
1.871706247329712	3602319.3076578607
1.8752825260162354	5482671.467012668
1.8788533210754395	7912581.298779729
1.8824186325073242	9689063.091997355
1.8859784603118896	9030713.409465969
1.8895330429077148	8363279.937804218
1.8930821418762207	10053497.207708362
1.8966259956359863	9880284.3847711
1.9001644849777222	5485974.79147957
1.9036977291107178	2413873.669008418
1.9072256088256836	2668519.1631456697
1.9107483625411987	2642774.082323731
1.9142658710479736	1559144.6166214778
1.9177782535552979	1435491.042348221
1.9212853908538818	2085285.4327188644
1.9247875213623047	2142460.229718047
1.9282845258712769	2231518.8033391344
1.9317764043807983	2979637.7274886062
1.9352631568908691	3349627.923390214
1.9387450218200684	3194206.3477007826
1.942221760749817	3536412.903909658
1.9456936120986938	4117210.130004825
1.9491604566574097	4712771.854723209
1.952622413635254	4553126.213323703
1.956079363822937	3579895.3180931327
1.959531545639038	3453696.8630420133
1.962978720664978	3868946.975286256
1.966421127319336	5018247.907364137
1.9698586463928223	7106279.537851257
1.9732913970947266	8184046.53983651
1.9767193794250488	8796952.480801731
1.9801424741744995	10418679.959420597
1.9835609197616577	12074749.170301434
1.9869745969772339	12220768.251156598
1.990383505821228	10658739.08334937
1.9937876462936401	10099193.241322555
1.9971871376037598	10422203.404401775
2.000581979751587	11330139.674530612
2.003972291946411	13966040.417023921
2.007357597351074	16172806.495972447
2.0107386112213135	18075209.76698366
2.0141148567199707	18767254.017733723
2.017486572265625	17264599.546221267
2.0208535194396973	17786790.753813934
2.0242159366607666	20509310.302772008
2.027573823928833	22186871.934505817
2.0309269428253174	23272150.649909023
2.034275770187378	24730313.762261674
2.0376198291778564	25922390.140844595
2.040959596633911	26973967.906650133
2.044294595718384	28403502.851842362
2.0476250648498535	29887381.098317552
2.0509510040283203	30177910.636775453
2.054272413253784	29391842.921421077
2.057589530944824	29631721.153613776
2.0609018802642822	30841814.392373096
2.0642096996307373	31835842.597284462
2.0675129890441895	32499490.04268175
2.0708119869232178	32791898.47475181
2.074106216430664	32623576.742066953
2.0773961544036865	32465435.701158848
2.080681324005127	32753224.142551836
2.0839622020721436	33145243.96163541
2.087238311767578	33410412.099500805
2.090510129928589	33387384.10466449
2.0937774181365967	33096572.923275955
2.0970399379730225	33026197.256844208
2.1002981662750244	33055884.774282463
2.1035518646240234	32794803.53934288
2.1068007946014404	32433762.85683048
2.1100454330444336	32652827.78411391
2.1132853031158447	33112107.1724036
2.116520881652832	32894372.891058758
2.1197516918182373	32564268.14583523
2.1229779720306396	32697750.206461277
2.12619948387146	32939486.232715014
2.1294167041778564	33012602.47068421
2.132629156112671	33023632.960423823
2.1358368396759033	32722220.673521727
2.139039993286133	32057344.06671568
2.1422386169433594	31411805.076847102
2.145432472229004	30879999.339319393
2.1486217975616455	30473238.210413698
2.151806354522705	29988948.69391015
2.1549863815307617	29901091.47758236
2.1581614017486572	30014830.642937295
2.16133189201355	29524209.460497446
2.1644976139068604	29057555.827540345
2.167658567428589	28951415.68131933
2.1708147525787354	28970900.375506114
2.173966407775879	28862215.483857155
2.1771130561828613	28542386.897992183
2.1802549362182617	28115900.944777083
2.183391809463501	27447669.631087366
2.1865241527557373	26540147.921276793
2.1896514892578125	25298688.322182808
2.1927738189697266	22876705.78597763
2.1958916187286377	19057476.53665055
2.1990041732788086	15501890.213286154
2.2021119594573975	13592788.432524454
2.2052149772644043	12975849.139187032
2.208312749862671	13294153.575017186
2.2114057540893555	14516707.629466662
2.214493751525879	15665531.36928632
2.217576742172241	15675993.478423938
2.2206547260284424	15224164.915360522
2.2237277030944824	14832215.768280571
2.2267956733703613	13540946.08551876
2.2298583984375	11676694.808849934
2.2329163551330566	10512702.914919406
2.235969066619873	10193845.444473153
2.2390167713165283	9862741.239910923
2.2420592308044434	8783041.536669029
2.2450966835021973	7599011.812300399
2.248128890991211	7775567.347180587
2.2511560916900635	8913556.860543441
2.254178285598755	9578805.09740225
2.257194995880127	10014302.567933585
2.260206699371338	10060534.308652977
2.2632133960723877	8919009.051996307
2.266214609146118	7481217.370007707
2.2692108154296875	7004913.531427023
2.2722020149230957	7671603.33316803
2.2751877307891846	8513540.288271079
2.278168201446533	8453396.543999493
2.2811436653137207	7761296.350279132
2.284113883972168	7201944.853833765
2.287078857421875	6735664.561312486
2.290038824081421	6240568.1327749
2.2929933071136475	5956070.841908614
2.295942783355713	5852093.40649648
2.298887014389038	5769697.701825203
2.301826238632202	5828568.052313448
2.304760217666626	6292718.020269339
2.3076889514923096	7180264.953348018
2.310612440109253	8050344.757802735
2.3135311603546143	7801913.542985854
2.3164443969726562	5914457.000354839
2.319352865219116	4066440.499030307
2.322256088256836	3551545.7241210737
2.3251543045043945	3557833.7633607
2.328047275543213	3494816.275322994
2.330935478210449	3541473.9422393837
2.3338186740875244	3634139.4983897186
2.3366971015930176	3657792.6180919237
2.3395702838897705	3660909.2540166103
2.3424389362335205	3559744.0239676526
2.3453025817871094	3355501.0187498303
2.348161458969116	3296636.2546585756
2.351015567779541	3689163.4299885007
2.353865146636963	4489184.716755903
2.3567099571228027	5186934.483452982
2.3595502376556396	5721397.715587767
2.3623859882354736	6305675.08320665
2.3652172088623047	6174506.72495015
2.368043899536133	4699260.0368914725
2.370866537094116	3096899.433447074
2.3736846446990967	2747967.5753427316
2.3764986991882324	3049481.134098769
2.3793084621429443	3162549.8543467605
2.3821144104003906	3413819.6082330067
2.384916305541992	4170895.037042304
2.387714147567749	4960797.867756785
2.3905084133148193	5152189.459726208
2.393299102783203	5021261.039863363
2.3960859775543213	4915730.188233121
2.398869514465332	4894518.910641917
2.4016497135162354	4790066.978123751
2.4044265747070312	4649856.255657932
2.407200336456299	5083849.54152277
2.409970998764038	5995423.29732059
2.4127390384674072	6579037.891219996
2.415503978729248	6848625.390440331
2.418266534805298	7478191.842775937
2.4210267066955566	8032188.887926049
2.4237842559814453	7513500.953157996
2.426539897918701	6636296.268171327
2.429293394088745	6804809.595328213
2.4320452213287354	7681114.508993758
2.4347951412200928	8110619.829396764
2.4375438690185547	7993875.843526235
2.440291166305542	7771917.595795781
2.443037271499634	7326894.33759359
2.445782423019409	6466119.930504455
2.4485268592834473	5527197.1792853335
2.451270818710327	5259205.746560548
2.454014539718628	6224332.578751155
2.4567582607269287	7271884.37102788
2.4595019817352295	7135469.7128548715
2.4622461795806885	7233041.79581585
2.4649908542633057	7339651.173666732
2.4677364826202393	5954771.083680723
2.4704833030700684	4227489.150922396
2.473231554031372	3093478.366789226
2.4759814739227295	2397867.4027764485
2.4787333011627197	2157246.001770721
2.481487512588501	2488819.3767783074
