#wavelength	surface flux
0.6450077295303345	354254.92324200465
0.6472567915916443	552873.0244841236
0.6494921445846558	710263.3563130408
0.6517150402069092	801034.5658347434
0.6539263725280762	891452.5812240775
0.6561272740364075	984952.5690914028
0.6583186388015747	1080587.2213296243
0.6605015397071838	1175895.7845265649
0.6626768708229065	1264036.9942519625
0.6648455858230591	1323825.069703335
0.6670085787773132	1266861.9568865036
0.6691668033599854	1009296.3350189662
0.6713210344314575	875761.1633565158
0.6734722256660461	1219503.45914942
0.6756211519241333	1715076.7548264572
0.6777685880661011	2027742.621527892
0.6799154281616211	2224067.6772146905
0.6820623278617859	2383244.3399841497
0.6842101216316223	2528438.477584113
0.6863595843315125	2660547.7108415123
0.688511312007904	2769787.444968972
0.6906660795211792	2850671.877517977
0.6928245425224304	2935716.322364742
0.6949873566627502	3065594.672581744
0.6971551775932312	3212908.7241510227
0.6993286609649658	3325800.4361076197
0.7015084028244019	3404634.7345862132
0.7036949396133423	3460161.0251937206
0.7058889269828796	3490112.0145402667
0.7080909013748169	3496651.310810827
0.710301399230957	3487125.1412678515
0.712520956993103	3460849.2047427064
0.7147500514984131	3402735.0565829235
0.7169892191886902	3312212.5385541385
0.7192389369010925	3198849.932035502
0.7214996814727783	3061066.9998883423
0.723771870136261	2903196.6338675087
0.7260559797286987	2731334.129838756
0.7283523678779602	2542466.5470615355
0.7306615710258484	2371455.364358296
0.7329838871955872	2230753.6640469385
0.7353196740150452	2056081.8633682108
0.7376693487167358	1842362.2660175445
0.7400332689285278	1626924.1512434802
0.7424117922782898	1412024.2358625226
0.7448052167892456	1203134.1479118778
0.7472138404846191	1000610.3260506731
0.7496379613876343	803739.2524420812
0.7520779371261597	618847.002491407
0.7545340061187744	450218.6677371163
0.7570064663887024	302208.98006079486
0.7594954967498779	179858.96702202092
0.7620013952255249	88009.27934703203
0.7645244002342224	31205.684067521845
0.7670646905899048	7659.71618030617
0.7696225643157959	8550.478470406439
0.7721980810165405	38624.65593731584
0.7747915983200073	113006.98590018078
0.7774031162261963	221451.93342649264
0.7800329327583313	370453.3149428585
0.7826811671257019	617091.9127585813
0.7853479981422424	947515.9853792151
0.7880334854125977	1297365.5920927112
0.7907378077507019	1518304.4992640025
0.7934610247612	1513086.6578712063
0.7962033748626709	1908109.9843621186
0.7989648580551147	2920918.4810575005
0.801745593547821	3868017.5619527553
0.8045456409454346	4614859.845935959
0.8073651194572449	5334267.1650380045
0.8102040886878967	6049231.222135122
0.8130625486373901	6876881.352060434
0.8159406185150146	7746111.212722528
0.8188382983207703	8661405.884413611
0.8217556476593018	10010829.35606723
0.8246926665306091	11539012.719923727
0.8276493549346924	12824557.02607171
0.8306257724761963	14229237.73450303
0.8336219191551208	15969720.59559126
0.8366377949714661	17659631.446650635
0.8396733403205872	19241117.987794504
0.8427285552024841	21005780.967211768
0.8458034992218018	22608158.561237294
0.8488980531692505	22274885.21014271
0.8520121574401855	21310271.634948835
0.8551458716392517	24933176.512857046
0.8582990765571594	29059432.634250756
0.8614717125892639	25922200.649503477
0.8646637797355652	21412374.527309168
0.8678751587867737	21771246.6971272
0.8711057901382446	23312232.45247182
0.8743556141853333	25031257.41397338
0.87762451171875	28318185.53054162
0.8809124231338501	31390106.277473282
0.8842192888259888	33347088.01489845
0.8875449895858765	33567692.84646697
0.8908893465995789	31801482.4717726
0.894252359867096	31493770.128812976
0.8976338505744934	36263676.662024766
0.9010337591171265	46090217.41943387
0.9044519662857056	56574990.781007856
0.9078882932662964	63920126.59843222
0.9113426208496094	68147893.50494269
0.914814829826355	69309065.12567326
0.9183048605918884	70515220.6573748
0.9218124747276306	68705875.52037317
0.925337553024292	58603446.028724045
0.9288799166679382	52575817.64157368
0.9324395060539246	54882241.71474764
0.9360161423683167	56750458.89834245
0.9396095871925354	56079625.184332974
0.943219780921936	54164033.033772014
0.9468464851379395	51461659.052271426
0.9504896402359009	55994053.068152286
0.9541489481925964	70437864.16382374
0.9578243494033813	75579293.76329298
0.9615156054496765	63367924.965093106
0.9652225375175476	49679695.02027998
0.9689450263977051	56915985.13413704
0.9726828336715698	80415485.4570675
0.9764357805252075	91586246.2870082
0.9802037477493286	92962573.08134547
0.983986496925354	102180579.99590641
0.9877838492393494	105074397.92301647
0.9915955662727356	93271322.92848893
0.9954215884208679	82471810.54128836
0.9992615580558777	70641247.82886659
1.0031154155731201	60137890.42240615
1.0069829225540161	62075523.21925501
1.0108637809753418	73831386.2939811
1.0147579908370972	89806118.18800598
1.018665075302124	100310297.94019294
1.022585153579712	98646932.45669237
1.0265177488327026	97117268.06685874
1.0304628610610962	109225418.56381558
1.0344202518463135	127160672.35897589
1.0383895635604858	137424878.26091743
1.0423706769943237	140266600.61836502
1.0463634729385376	144807938.91510767
1.0503677129745483	150984181.63348013
1.0543830394744873	160546902.40954465
1.058409333229065	171114898.64960217
1.0624464750289917	176668086.16862714
1.0664942264556885	182829606.96460658
1.0705522298812866	191642928.28735772
1.0746204853057861	198869618.41243196
1.0786986351013184	202951743.94196242
1.0827864408493042	206181385.6014922
1.086883783340454	195687876.7128259
1.0909905433654785	163971323.07473513
1.0951062440872192	135447951.57283825
1.0992310047149658	105243549.83014841
1.10336434841156	63009761.36272985
1.1075061559677124	41044775.140242696
1.1116561889648438	37441620.47768673
1.115814208984375	31830938.098886397
1.1199802160263062	30859510.73749506
1.124153733253479	33479989.191944864
1.1283347606658936	28729486.765756465
1.1325229406356812	21826441.635840755
1.1367181539535522	29963319.184423506
1.1409201622009277	50776870.0338212
1.145128846168518	64032219.02915703
1.1493438482284546	56807201.26080817
1.1535650491714478	41846655.667505145
1.1577922105789185	36359498.00405404
1.1620250940322876	38138045.66406899
1.1662636995315552	46197075.393879
1.170507550239563	54086124.598441534
1.174756646156311	60735468.77407443
1.1790107488632202	75589901.76146087
1.1832695007324219	85344520.24858905
1.1875330209732056	81422940.68787304
1.191800832748413	96511367.67563666
1.1960728168487549	129387731.71840551
1.2003488540649414	144341047.24552304
1.2046287059783936	148659904.94319287
1.2089121341705322	152557091.0186715
1.2131990194320679	161097406.5628611
1.2174891233444214	180850524.48900807
1.2217823266983032	195621782.9431806
1.2260783910751343	201464820.6056944
1.230377197265625	209997525.48800626
1.2346785068511963	216180621.78558743
1.238982081413269	206499828.64301163
1.2432878017425537	191019190.70574835
1.2475954294204712	186308650.66514975
1.2519049644470215	187575610.4646578
1.256216049194336	216578248.07542938
1.2605286836624146	247635272.08762008
1.2648425102233887	244776664.9490101
1.2691574096679688	250847607.43292856
1.2734732627868652	270639220.93884057
1.2777899503707886	269136300.6147096
1.2821072340011597	250770761.55804163
1.2864248752593994	245378363.8077233
1.2907428741455078	248849519.5883468
1.2950609922409058	243998332.4432667
1.2993791103363037	214209163.79040942
1.303696870803833	186080859.58969647
1.3080145120620728	185941395.27733317
1.3123314380645752	192500019.52962497
1.3166478872299194	193542459.6167637
1.3209635019302368	169587711.03408885
1.3252781629562378	133307624.22854045
1.3295916318893433	97374813.86970976
1.3339040279388428	49525557.59621922
1.3382149934768677	15971539.419450961
1.3425244092941284	7960210.279494136
1.3468321561813354	7000233.92641743
1.3511382341384888	6547536.498302455
1.3554422855377197	5230912.994211045
1.3597444295883179	6260514.384760204
1.3640443086624146	9073649.46955781
1.3683418035507202	8219140.577733063
1.3726370334625244	6285733.272965959
1.3769296407699585	7113841.202873989
1.381219506263733	6287721.9294460425
1.3855066299438477	3784625.370542124
1.3897908926010132	4165089.1256503533
1.3940720558166504	6356230.214494564
1.3983501195907593	6030075.70999422
1.4026249647140503	5331927.0419585
1.4068963527679443	6455952.261279583
1.4111642837524414	7504832.995105901
1.4154287576675415	8017293.587754327
1.419689416885376	7475342.679002164
1.4239463806152344	6988197.709022309
1.4281994104385376	5704943.01808464
1.4324485063552856	4116412.0531627242
1.436693549156189	5202604.326493265
1.440934419631958	8219963.75915413
1.4451709985733032	12889949.441059
1.449403166770935	17910663.770687994
1.453631043434143	17669467.63142801
1.4578542709350586	15418656.304230295
1.4620729684829712	18999419.15864824
1.4662868976593018	23299391.84439271
1.4704961776733398	18126233.721279513
1.4747005701065063	10953866.16417568
1.4788999557495117	13615093.400560256
1.4830944538116455	22324269.879420623
1.4872838258743286	25417371.916846834
1.491468071937561	21028593.63702206
1.4956470727920532	20531977.202361446
1.4998208284378052	26920245.503245257
1.5039892196655273	29754922.676618584
1.5081522464752197	25820857.78381631
1.5123097896575928	27403619.322757605
1.5164618492126465	40618786.04865431
1.5206083059310913	54277366.07619779
1.5247491598129272	56364875.51080133
1.5288842916488647	54493265.4360632
1.5330137014389038	59075591.177905835
1.5371372699737549	62405469.780754745
1.541254997253418	60782650.33495426
1.545366883277893	64194879.23408604
1.5494728088378906	69232871.31394279
1.5535727739334106	70116640.24200152
1.5576666593551636	72208141.15505973
1.561754584312439	78711855.5980738
1.5658363103866577	88180535.35031943
1.5699119567871094	92745979.52685174
1.5739814043045044	92250562.93239619
1.5780447721481323	96534162.86041096
1.582101821899414	105751285.72715202
1.5861525535583496	112033920.7162443
1.5901970863342285	109736850.08591883
1.5942351818084717	102626201.82788429
1.5982669591903687	102709868.14160055
1.6022924184799194	106306868.56621355
1.606311559677124	103050764.2818998
1.6103241443634033	101576498.02161899
1.6143304109573364	101662437.70906249
1.6183301210403442	96461599.25589406
1.6223233938217163	93508351.50555423
1.6263102293014526	94132391.80561309
1.6302905082702637	95988952.22845496
1.634264349937439	100864353.97654074
1.638231635093689	107256335.96863434
1.6421923637390137	109738358.42190619
1.646146535873413	102175581.94865064
1.6500942707061768	93015201.20176466
1.6540353298187256	92585887.9007476
1.6579699516296387	93248925.25339647
1.661897897720337	87471840.73904842
1.6658192873001099	69783173.01991501
1.6697341203689575	57552936.865902595
1.6736423969268799	68812114.89158708
1.677544116973877	80993818.11412647
1.6814392805099487	80938822.85427721
1.6853278875350952	74538134.147663
1.6892099380493164	64026788.60093325
1.6930854320526123	53840085.04786064
1.696954369544983	49714152.89037152
1.7008168697357178	50899075.671078905
1.7046726942062378	51517973.02235948
1.708522081375122	51550241.98604571
1.712364912033081	50001286.139006
1.7162011861801147	47910096.30540316
1.7200311422348022	49190462.34487444
1.723854422569275	49175871.679117486
1.7276713848114014	44162407.244087435
1.731481909751892	36153722.42018335
1.7352858781814575	30998808.533495262
1.7390835285186768	31690115.938005883
1.7428747415542603	32291593.94606824
1.7466596364974976	27612614.24677371
1.7504380941390991	23086589.935984448
1.7542102336883545	24536388.060821142
1.7579760551452637	30611791.38044128
1.7617355585098267	39534096.38229831
1.7654887437820435	42139875.32033695
1.7692357301712036	31131332.07302803
1.7729763984680176	18145256.17541721
1.776710867881775	11307197.785322864
1.7804391384124756	9659538.793263573
1.7841613292694092	10230882.179605264
1.7878772020339966	10548181.62807687
1.7915871143341064	14826152.828505393
1.7952908277511597	19551494.080841437
1.7989884614944458	18286806.637772653
1.8026801347732544	13425109.528905382
1.806365728378296	9510602.122704584
1.8100452423095703	8304407.783360402
1.8137187957763672	7598069.118929475
1.817386507987976	5997698.190057193
1.8210482597351074	10016448.283701036
1.8247040510177612	17665398.03545269
1.828354001045227	16233286.674371408
1.8319982290267944	9338739.56830321
1.8356364965438843	9304089.837651635
1.8392690420150757	13638621.20459819
1.8428958654403687	14342229.239582809
1.8465168476104736	12321708.48589952
1.8501322269439697	11020683.761059187
1.8537418842315674	9610025.302817957
1.8573459386825562	8790717.716986056
1.860944390296936	7051705.284099737
1.864537239074707	3881452.0400868678
1.8681244850158691	2855234.208074746
1.871706247329712	5032410.895530051
1.8752825260162354	8205426.684994849
1.8788533210754395	8928656.815952394
1.8824186325073242	9060236.748509483
1.8859784603118896	13309415.541713107
1.8895330429077148	17955204.86725434
1.8930821418762207	15473703.400751226
1.8966259956359863	11182771.142876852
1.9001644849777222	10196686.770165404
1.9036977291107178	8525246.750834243
1.9072256088256836	10155843.19225801
1.9107483625411987	12777413.510254994
1.9142658710479736	9622888.94476509
1.9177782535552979	8129522.297838313
1.9212853908538818	7752609.833287428
1.9247875213623047	4076892.8436047616
1.9282845258712769	2743411.4213198656
1.9317764043807983	6742581.310296689
1.9352631568908691	13506411.801259585
1.9387450218200684	14339234.998360356
1.942221760749817	8532520.565622257
1.9456936120986938	4797848.790770295
1.9491604566574097	4438334.498412924
1.952622413635254	6433813.284249346
1.956079363822937	12524789.656853037
1.959531545639038	17979327.465433553
1.962978720664978	14988777.02176587
1.966421127319336	10253251.43724255
1.9698586463928223	11454007.719902935
1.9732913970947266	12917634.718573729
1.9767193794250488	13038250.490875093
1.9801424741744995	13895079.086244784
1.9835609197616577	14217226.979659954
1.9869745969772339	16608876.476727614
1.990383505821228	19035970.967608817
1.9937876462936401	18258396.794030465
1.9971871376037598	15397977.233764162
2.000581979751587	12881703.15209954
2.003972291946411	15416298.86530149
2.007357597351074	19227264.177946445
2.0107386112213135	20610921.358458266
2.0141148567199707	19850478.29347441
2.017486572265625	17208545.71805599
2.0208535194396973	18068247.66345207
2.0242159366607666	21551105.849518817
2.027573823928833	21860028.648633175
2.0309269428253174	21119005.331619956
2.034275770187378	23640653.004134387
2.0376198291778564	29334933.50496404
2.040959596633911	34668146.417679936
2.044294595718384	36429326.35805903
2.0476250648498535	36436564.316607855
2.0509510040283203	34566613.043835536
2.054272413253784	31004892.77303252
2.057589530944824	31728943.82535574
2.0609018802642822	37056648.586428106
2.0642096996307373	41137836.340892784
2.0675129890441895	42463008.52027094
2.0708119869232178	42362316.64603846
2.074106216430664	41819853.55477219
2.0773961544036865	43294869.588540405
2.080681324005127	45666608.74692009
2.0839622020721436	46003094.97109089
2.087238311767578	44768218.2599437
2.090510129928589	43679488.87541711
2.0937774181365967	44123395.923571855
2.0970399379730225	44897636.323304094
2.1002981662750244	43486953.19803137
2.1035518646240234	41991144.129875116
2.1068007946014404	42631793.51342999
2.1100454330444336	43374254.65496876
2.1132853031158447	42873983.74101495
2.116520881652832	41203774.69113019
2.1197516918182373	39610092.26777386
2.1229779720306396	39164765.66245301
2.12619948387146	38767197.37809537
2.1294167041778564	38361027.721065275
2.132629156112671	38622544.44806971
2.1358368396759033	37752273.999511726
2.139039993286133	35987384.81669245
2.1422386169433594	34890428.533412986
2.145432472229004	34033318.57952701
2.1486217975616455	33138459.269618824
2.151806354522705	31838216.469905257
2.1549863815307617	31628749.571667053
2.1581614017486572	32826387.876466338
2.16133189201355	33458691.776147593
2.1644976139068604	33115684.43891185
2.167658567428589	31302806.81757656
2.1708147525787354	28892337.12415868
2.173966407775879	27913525.92037443
2.1771130561828613	28155377.25137535
2.1802549362182617	27784632.54792227
2.183391809463501	26227130.87049538
2.1865241527557373	24605135.611820742
2.1896514892578125	23201881.695491478
2.1927738189697266	20679425.623347938
2.1958916187286377	16073808.808543336
2.1990041732788086	11199166.330639057
2.2021119594573975	8708771.717408681
2.2052149772644043	8292528.600974148
2.208312749862671	8639897.32068594
2.2114057540893555	10113598.389839504
2.214493751525879	11813289.726188116
2.217576742172241	11567578.328930905
2.2206547260284424	10446781.366315672
2.2237277030944824	9495475.201038113
2.2267956733703613	7896764.860063515
2.2298583984375	6542394.576637178
2.2329163551330566	6251772.977703463
2.235969066619873	6660891.735151733
2.2390167713165283	6747299.036659675
2.2420592308044434	6035871.472549886
2.2450966835021973	5315204.642085168
2.248128890991211	5145212.411356432
2.2511560916900635	5465064.218777706
2.254178285598755	6444966.447157363
2.257194995880127	8040098.3134125145
2.260206699371338	7833423.991965984
2.2632133960723877	5231483.062760723
2.266214609146118	4073466.456064324
2.2692108154296875	5753151.946112181
2.2722020149230957	7421551.265032746
2.2751877307891846	7212219.856981261
2.278168201446533	6466173.784509638
2.2811436653137207	6293381.913687881
2.284113883972168	5867583.687604032
2.287078857421875	4883002.331669204
2.290038824081421	4285099.813767248
2.2929933071136475	4362273.337512931
2.295942783355713	4470007.124287518
2.298887014389038	4612136.94831601
2.301826238632202	5197169.7896663835
2.304760217666626	6260977.168919333
2.3076889514923096	7786674.728730049
2.310612440109253	9956625.077767642
2.3135311603546143	12015088.272642788
2.3164443969726562	11004849.958981317
2.319352865219116	6703701.484344225
2.322256088256836	3630747.742131646
2.3251543045043945	3005132.5299005667
2.328047275543213	2892051.5134049878
2.330935478210449	2837421.219372429
2.3338186740875244	2671365.5595804458
2.3366971015930176	2375906.935492278
2.3395702838897705	2179741.6947265263
2.3424389362335205	2111590.757413695
2.3453025817871094	2061567.793534085
2.348161458969116	2041003.782383029
2.351015567779541	2596917.137437777
2.353865146636963	4271476.30467328
2.3567099571228027	6334431.624694646
2.3595502376556396	7409418.516355276
2.3623859882354736	6980586.513335883
2.3652172088623047	5348636.753885464
2.368043899536133	3380047.8439115295
2.370866537094116	2190496.513296349
2.3736846446990967	2121045.110307698
2.3764986991882324	2367688.5757935336
2.3793084621429443	2392504.3556182114
2.3821144104003906	2553546.836038748
2.384916305541992	3144595.6731662834
2.387714147567749	3741962.6730123265
2.3905084133148193	3792049.0298860446
2.393299102783203	3491362.022131008
2.3960859775543213	3165495.275139265
2.398869514465332	3172246.9520855285
2.4016497135162354	3851162.9043750814
2.4044265747070312	4970989.565579292
2.407200336456299	5759071.876997523
2.409970998764038	5764238.3990400685
2.4127390384674072	5472266.6967336405
2.415503978729248	5396811.34535325
2.418266534805298	5546663.270982103
2.4210267066955566	5616630.405799593
2.4237842559814453	5376478.993761657
2.426539897918701	5402205.439971219
2.429293394088745	6311323.3811492
2.4320452213287354	7160438.992131336
2.4347951412200928	6813505.981846019
2.4375438690185547	5975426.50114919
2.440291166305542	5682163.854844212
2.443037271499634	5773092.049055709
2.445782423019409	6112782.297555699
2.4485268592834473	6691246.113471403
2.451270818710327	6787975.298389596
2.454014539718628	6362030.840552442
2.4567582607269287	6064205.626366062
2.4595019817352295	5980483.021213946
2.4622461795806885	6671221.401118413
2.4649908542633057	7703488.833861797
2.4677364826202393	7328486.344853833
2.4704833030700684	5544978.922148392
2.473231554031372	3729716.250756884
2.4759814739227295	2672146.9343023915
2.4787333011627197	2279022.123047096
2.481487512588501	2329828.618363521
