#wavelength	surface flux
0.6450077295303345	49879.09548572561
0.6472567915916443	77403.16349428639
0.6494921445846558	98482.39343371274
0.6517150402069092	109766.96189179341
0.6539263725280762	120502.30627562631
0.6561272740364075	131212.08688114214
0.6583186388015747	142269.50777091147
0.6605015397071838	153928.9772181206
0.6626768708229065	165839.0486019373
0.6648455858230591	176834.8213755931
0.6670085787773132	179714.20989985327
0.6691668033599854	162925.6439603778
0.6713210344314575	156261.55968653216
0.6734722256660461	192159.14374561468
0.6756211519241333	233687.5464201548
0.6777685880661011	255278.35827043134
0.6799154281616211	270510.20802513533
0.6820623278617859	284769.9682361749
0.6842101216316223	298660.77123571315
0.6863595843315125	312178.5815922473
0.688511312007904	324303.85426891176
0.6906660795211792	331979.07608822704
0.6928245425224304	339037.3985774417
0.6949873566627502	354374.6656155086
0.6971551775932312	372338.45001417235
0.6993286609649658	384724.1092542605
0.7015084028244019	393924.3923015328
0.7036949396133423	404603.8812747566
0.7058889269828796	416642.61966525606
0.7080909013748169	425731.35690907936
0.710301399230957	433048.9737247049
0.712520956993103	439229.04088839696
0.7147500514984131	437597.8946919305
0.7169892191886902	429236.39439887763
0.7192389369010925	426804.4787578475
0.7214996814727783	426754.372951854
0.723771870136261	418337.7955977069
0.7260559797286987	405583.77223989065
0.7283523678779602	392192.5684185592
0.7306615710258484	379271.25724275643
0.7329838871955872	367633.11840154603
0.7353196740150452	351860.15715807653
0.7376693487167358	330190.2975934379
0.7400332689285278	303926.38685010717
0.7424117922782898	271646.4069027271
0.7448052167892456	236026.5874422456
0.7472138404846191	198762.6447687615
0.7496379613876343	159903.46145740486
0.7520779371261597	121544.64228956279
0.7545340061187744	85975.39712599342
0.7570064663887024	55374.58357337519
0.7594954967498779	31363.51283308624
0.7620013952255249	14713.343917018825
0.7645244002342224	5198.080628009768
0.7670646905899048	1431.7307270046472
0.7696225643157959	1662.3784055309748
0.7721980810165405	6950.002671584684
0.7747915983200073	20358.155209359662
0.7774031162261963	41150.095683810614
0.7800329327583313	72970.2960331332
0.7826811671257019	128033.57122583299
0.7853479981422424	202465.18189051747
0.7880334854125977	281271.7202587534
0.7907378077507019	326713.49192962254
0.7934610247612	317346.22365746467
0.7962033748626709	400863.509848006
0.7989648580551147	613603.4364053946
0.801745593547821	791083.6453124098
0.8045456409454346	910312.5303677904
0.8073651194572449	1007645.1954224483
0.8102040886878967	1076305.924456474
0.8130625486373901	1155489.9519436709
0.8159406185150146	1285767.8311572543
0.8188382983207703	1421215.50616927
0.8217556476593018	1525270.8306256952
0.8246926665306091	1631553.7386011737
0.8276493549346924	1736307.586119624
0.8306257724761963	1821165.8102347723
0.8336219191551208	1907490.799915189
0.8366377949714661	1990409.3221107253
0.8396733403205872	2107489.0912912223
0.8427285552024841	2288254.5682113366
0.8458034992218018	2450959.3094636407
0.8488980531692505	2517556.0285783596
0.8520121574401855	2558089.029690295
0.8551458716392517	2736797.1959946
0.8582990765571594	2959641.2455245648
0.8614717125892639	3062800.815636184
0.8646637797355652	3140310.7206625217
0.8678751587867737	3277036.179674053
0.8711057901382446	3429177.5934159206
0.8743556141853333	3548811.2301194603
0.87762451171875	3621841.0199564253
0.8809124231338501	3658316.078423029
0.8842192888259888	3688886.8092735806
0.8875449895858765	3677593.390874936
0.8908893465995789	3519112.822162318
0.894252359867096	3362169.6476953463
0.8976338505744934	3575838.8527191933
0.9010337591171265	4054622.7885931516
0.9044519662857056	4415300.943122474
0.9078882932662964	4612862.014128873
0.9113426208496094	4719734.678128579
0.914814829826355	4676515.875375135
0.9183048605918884	4648607.004571285
0.9218124747276306	4620726.587161961
0.925337553024292	3866884.0518205776
0.9288799166679382	2617131.205444085
0.9324395060539246	2033859.1294435973
0.9360161423683167	2245095.8224388305
0.9396095871925354	2694190.221258679
0.943219780921936	2673477.395318831
0.9468464851379395	2364374.594780068
0.9504896402359009	2509005.4014115753
0.9541489481925964	2935498.4623318003
0.9578243494033813	2970042.465734684
0.9615156054496765	2464448.238217467
0.9652225375175476	2200456.1262533884
0.9689450263977051	2718005.0388523447
0.9726828336715698	3754365.977249415
0.9764357805252075	4506282.640506508
0.9802037477493286	4891441.2964561535
0.983986496925354	5305248.998477187
0.9877838492393494	5834736.311254926
0.9915955662727356	6470690.303656504
0.9954215884208679	6988279.1939122705
0.9992615580558777	7339913.6147673465
1.0031154155731201	7636375.209691241
1.0069829225540161	8031486.192651391
1.0108637809753418	8542157.308560599
1.0147579908370972	9052281.98487233
1.018665075302124	9413100.96218981
1.022585153579712	9512972.327603621
1.0265177488327026	9486027.382325923
1.0304628610610962	9679371.233143868
1.0344202518463135	10206455.646642866
1.0383895635604858	10689022.152682893
1.0423706769943237	10955482.308772536
1.0463634729385376	11110193.40246361
1.0503677129745483	11229203.250809578
1.0543830394744873	11465769.396576043
1.058409333229065	11761405.830621462
1.0624464750289917	11972335.91275469
1.0664942264556885	12090114.493422572
1.0705522298812866	12172626.871101074
1.0746204853057861	12342082.876298694
1.0786986351013184	12568370.090434277
1.0827864408493042	12712499.119858667
1.086883783340454	12503732.441900702
1.0909905433654785	11779878.140982866
1.0951062440872192	10629559.786158148
1.0992310047149658	8178998.558790995
1.10336434841156	5043116.678535476
1.1075061559677124	3873532.6683870256
1.1116561889648438	3743968.271244519
1.115814208984375	2994115.4614684144
1.1199802160263062	2343667.8297635973
1.124153733253479	2226438.0162668135
1.1283347606658936	2373149.1285471036
1.1325229406356812	2363420.4287438234
1.1367181539535522	2912283.274181648
1.1409201622009277	3887261.007915451
1.145128846168518	4474090.750075597
1.1493438482284546	3776151.0882619736
1.1535650491714478	1945764.9655599368
1.1577922105789185	1077412.2783733518
1.1620250940322876	1638667.874983888
1.1662636995315552	2697672.95715338
1.170507550239563	3560940.308509133
1.174756646156311	4974778.310499586
1.1790107488632202	7328588.751104129
1.1832695007324219	9472682.140084459
1.1875330209732056	10814304.595745157
1.191800832748413	12227428.715411218
1.1960728168487549	14046393.651038054
1.2003488540649414	15238943.51659553
1.2046287059783936	15729081.537785305
1.2089121341705322	16108482.102371007
1.2131990194320679	16730062.978773417
1.2174891233444214	17678353.93716385
1.2217823266983032	18639531.62232771
1.2260783910751343	19417520.243844155
1.230377197265625	19952575.363682363
1.2346785068511963	20329752.24384192
1.238982081413269	20810081.501290236
1.2432878017425537	21239797.6064545
1.2475954294204712	21394237.30397052
1.2519049644470215	21448937.070100676
1.256216049194336	21851633.46665507
1.2605286836624146	22186487.196252514
1.2648425102233887	22108716.746517904
1.2691574096679688	21985298.1220852
1.2734732627868652	21962092.94714339
1.2777899503707886	21888984.335725546
1.2821072340011597	21551149.797693
1.2864248752593994	20784703.101110164
1.2907428741455078	19574365.69276476
1.2950609922409058	19003393.16756682
1.2993791103363037	18690074.35496225
1.303696870803833	17622064.336822946
1.3080145120620728	16876633.214550007
1.3123314380645752	17071074.470361255
1.3166478872299194	17907670.183301236
1.3209635019302368	16853735.15042891
1.3252781629562378	12903812.750489168
1.3295916318893433	8258094.377025349
1.3339040279388428	3888624.048722141
1.3382149934768677	1105264.4803221908
1.3425244092941284	293822.6652528422
1.3468321561813354	196175.64856894859
1.3511382341384888	143318.8230620902
1.3554422855377197	78423.03969336193
1.3597444295883179	62061.869049170076
1.3640443086624146	58627.12588886829
1.3683418035507202	89409.26957291685
1.3726370334625244	240200.7736353321
1.3769296407699585	428109.13367382775
1.381219506263733	345175.7201198147
1.3855066299438477	116641.34718071441
1.3897908926010132	36464.681860524935
1.3940720558166504	47671.182736842624
1.3983501195907593	88085.01051733397
1.4026249647140503	186851.00312421634
1.4068963527679443	255116.0633818497
1.4111642837524414	184394.2035394148
1.4154287576675415	118012.45642420613
1.419689416885376	109208.17512587039
1.4239463806152344	98816.36092151917
1.4281994104385376	143518.31653207357
1.4324485063552856	222449.62403764215
1.436693549156189	275566.39922256826
1.440934419631958	346983.22985941026
1.4451709985733032	634471.92335985
1.449403166770935	1234900.2220825518
1.453631043434143	1690880.503195369
1.4578542709350586	1940548.8457494946
1.4620729684829712	2288866.152870039
1.4662868976593018	2311160.6565286303
1.4704961776733398	1899562.4451357434
1.4747005701065063	1592137.525297061
1.4788999557495117	1746108.4715286468
1.4830944538116455	2638903.8040321637
1.4872838258743286	3687114.094740161
1.491468071937561	3991208.0357561423
1.4956470727920532	3851232.86038484
1.4998208284378052	4384602.362681265
1.5039892196655273	5317550.771797008
1.5081522464752197	5600069.366065615
1.5123097896575928	6142221.9203636
1.5164618492126465	7850776.709831059
1.5206083059310913	10555118.906124616
1.5247491598129272	12671881.685737263
1.5288842916488647	13016751.906747786
1.5330137014389038	13732172.442389717
1.5371372699737549	15282760.120531153
1.541254997253418	16295159.64811223
1.545366883277893	17515392.20481642
1.5494728088378906	19085058.659985974
1.5535727739334106	19925006.310971152
1.5576666593551636	20004348.61757488
1.561754584312439	21043286.128786027
1.5658363103866577	23322371.9351501
1.5699119567871094	24473462.731749225
1.5739814043045044	23383927.606933616
1.5780447721481323	21805501.29050704
1.582101821899414	22950547.71985979
1.5861525535583496	25990768.522333525
1.5901970863342285	26954502.610130902
1.5942351818084717	25594986.022570282
1.5982669591903687	23797158.512496598
1.6022924184799194	22674491.460881975
1.606311559677124	22242550.100659575
1.6103241443634033	21566463.82969294
1.6143304109573364	19984432.18877335
1.6183301210403442	17733391.672527082
1.6223233938217163	15249391.04573938
1.6263102293014526	12815280.18053996
1.6302905082702637	11007685.287869655
1.634264349937439	12886453.927277599
1.638231635093689	18616819.11897019
1.6421923637390137	21333202.96058216
1.646146535873413	18003305.238866538
1.6500942707061768	14349557.320970206
1.6540353298187256	15273880.050111206
1.6579699516296387	17282192.4564738
1.661897897720337	15737681.257930605
1.6658192873001099	10732939.697220573
1.6697341203689575	7889047.480039817
1.6736423969268799	10576081.88365434
1.677544116973877	12443603.39645337
1.6814392805099487	11365665.945573835
1.6853278875350952	10315614.32069427
1.6892099380493164	8930945.493291127
1.6930854320526123	6807090.299105611
1.696954369544983	4832341.160135026
1.7008168697357178	4340518.137776782
1.7046726942062378	5198021.371521094
1.708522081375122	6384109.663289548
1.712364912033081	7428111.42979495
1.7162011861801147	8660038.413443701
1.7200311422348022	10046259.85154636
1.723854422569275	10255460.065750942
1.7276713848114014	9283157.625612583
1.731481909751892	7987619.100009945
1.7352858781814575	6825322.050221162
1.7390835285186768	6331033.051373241
1.7428747415542603	5998630.460720142
1.7466596364974976	5236212.308043549
1.7504380941390991	4374714.490362102
1.7542102336883545	4082580.372270266
1.7579760551452637	5231920.792688628
1.7617355585098267	6401312.089286064
1.7654887437820435	5514464.507029532
1.7692357301712036	3517993.6085401997
1.7729763984680176	1910741.0360303018
1.776710867881775	961242.1134916543
1.7804391384124756	656979.7026354391
1.7841613292694092	675700.6396962404
1.7878772020339966	593474.7172369984
1.7915871143341064	693308.8076461346
1.7952908277511597	1278124.110323246
1.7989884614944458	1648405.0990446447
1.8026801347732544	1044225.8910283408
1.806365728378296	320626.1620217384
1.8100452423095703	267306.78293774097
1.8137187957763672	361851.6442303818
1.817386507987976	302024.97868268
1.8210482597351074	371386.95721300575
1.8247040510177612	407624.4139828738
1.828354001045227	200882.30393584978
1.8319982290267944	115521.38121639598
1.8356364965438843	258893.86031977984
1.8392690420150757	419301.44044088264
1.8428958654403687	419186.994589343
1.8465168476104736	447281.3800876007
1.8501322269439697	613062.5474944876
1.8537418842315674	539521.386976595
1.8573459386825562	322632.49221897696
1.860944390296936	230000.61368456372
1.864537239074707	134787.33119761545
1.8681244850158691	101911.24475038824
1.871706247329712	217649.40209241697
1.8752825260162354	500326.85649342975
1.8788533210754395	1138715.1417487978
1.8824186325073242	1659068.6346482653
1.8859784603118896	1460237.5330391263
1.8895330429077148	1246299.9281675422
1.8930821418762207	1758482.2368280855
1.8966259956359863	1862260.3457628877
1.9001644849777222	864318.152289976
1.9036977291107178	145243.9510059142
1.9072256088256836	99345.81314416497
1.9107483625411987	99133.6195392475
1.9142658710479736	55087.46507030939
1.9177782535552979	60609.21884697854
1.9212853908538818	102340.81538314799
1.9247875213623047	108111.45198048654
1.9282845258712769	117800.67614475368
1.9317764043807983	178253.03734436748
1.9352631568908691	219954.05949491303
1.9387450218200684	234380.1387404404
1.942221760749817	306560.03787335445
1.9456936120986938	423734.8992148175
1.9491604566574097	590569.9926018642
1.952622413635254	602775.3092365498
1.956079363822937	421804.9121123338
1.959531545639038	367154.536636219
1.962978720664978	435080.044052384
1.966421127319336	692207.8903812553
1.9698586463928223	1175970.4480820757
1.9732913970947266	1434700.284377848
1.9767193794250488	1563832.6682359457
1.9801424741744995	1987880.7131006664
1.9835609197616577	2511842.1629032497
1.9869745969772339	2598701.0696757087
1.990383505821228	2189196.5188789545
1.9937876462936401	2143738.0126748085
1.9971871376037598	2298750.9772571274
2.000581979751587	2573320.1589861484
2.003972291946411	3514586.0979638784
2.007357597351074	4582392.422378201
2.0107386112213135	5678575.500706649
2.0141148567199707	5874752.274309938
2.017486572265625	4918379.262740326
2.0208535194396973	4992428.567383096
2.0242159366607666	6059740.198374755
2.027573823928833	6971972.969217434
2.0309269428253174	8004720.604804412
2.034275770187378	8962472.164817788
2.0376198291778564	9867131.81701646
2.040959596633911	11430263.266419003
2.044294595718384	13498115.932119992
2.0476250648498535	15420807.069661519
2.0509510040283203	15566129.563958162
2.054272413253784	14110010.254396642
2.057589530944824	14208207.565312734
2.0609018802642822	15889041.235003706
2.0642096996307373	17340382.824281614
2.0675129890441895	18257784.91020846
2.0708119869232178	18560178.01582163
2.074106216430664	18142894.89532514
2.0773961544036865	17742850.324612338
2.080681324005127	18012950.994731396
2.0839622020721436	18327305.55172406
2.087238311767578	18433179.15065339
2.090510129928589	18283006.9214272
2.0937774181365967	17705513.291707657
2.0970399379730225	17300528.427005522
2.1002981662750244	17054303.084309515
2.1035518646240234	16517971.792455629
2.1068007946014404	15877625.455155766
2.1100454330444336	15797524.256243657
2.1132853031158447	15843107.427089812
2.116520881652832	15022307.61385968
2.1197516918182373	14148187.91533066
2.1229779720306396	13987779.432735283
2.12619948387146	14154481.702549744
2.1294167041778564	14191546.133523643
2.132629156112671	14087268.706509598
2.1358368396759033	13452785.049131403
2.139039993286133	12306990.467705494
2.1422386169433594	11173896.411212003
2.145432472229004	10117392.36228367
2.1486217975616455	9392469.481299896
2.151806354522705	8740970.850431502
2.1549863815307617	8675940.321435573
2.1581614017486572	8887280.901921127
2.16133189201355	8126882.489388901
2.1644976139068604	7348337.190305893
2.167658567428589	7218202.801914766
2.1708147525787354	7451284.683244687
2.173966407775879	7700151.241149512
2.1771130561828613	7569989.01733839
2.1802549362182617	7017385.526774347
2.183391809463501	6226141.684482848
2.1865241527557373	5442646.810600777
2.1896514892578125	4643003.627923695
2.1927738189697266	3538401.5095019056
2.1958916187286377	2202511.6331118313
2.1990041732788086	1232861.722913463
2.2021119594573975	868713.2202980594
2.2052149772644043	876879.62829714
2.208312749862671	1043931.0068425682
2.2114057540893555	1251305.267677522
2.214493751525879	1364372.5603025784
2.217576742172241	1283002.3446757917
2.2206547260284424	1143933.9196972772
2.2237277030944824	1069379.288195455
2.2267956733703613	924900.2418540915
2.2298583984375	706327.539732735
2.2329163551330566	560778.6575494531
2.235969066619873	510241.85278690385
2.2390167713165283	472285.18015495595
2.2420592308044434	381489.06214771053
2.2450966835021973	279700.9879310602
2.248128890991211	290206.0894679045
2.2511560916900635	391649.76546337316
2.254178285598755	455274.8173473478
2.257194995880127	499974.8514150202
2.260206699371338	509866.9478356678
2.2632133960723877	427692.87482070824
2.266214609146118	341458.6612199821
2.2692108154296875	325335.3528714556
2.2722020149230957	382997.9127126972
2.2751877307891846	452744.2821575788
2.278168201446533	452560.28007599834
2.2811436653137207	405439.00399036723
2.284113883972168	374794.97284009575
2.287078857421875	347806.09934000985
2.290038824081421	313138.3924117306
2.2929933071136475	309521.4679877064
2.295942783355713	333750.50547156885
2.298887014389038	348497.22713112156
2.301826238632202	378619.80354532663
2.304760217666626	539509.1000209636
2.3076889514923096	867873.7071408154
2.310612440109253	1161247.6188010063
2.3135311603546143	1088280.3387974114
2.3164443969726562	645586.2271295228
2.319352865219116	299146.90586117265
2.322256088256836	247067.13937478332
2.3251543045043945	272959.7886802966
2.328047275543213	270378.4872875611
2.330935478210449	263645.96904642065
2.3338186740875244	256665.75692446303
2.3366971015930176	241622.33400790274
2.3395702838897705	226904.41588050875
2.3424389362335205	205642.33940233808
2.3453025817871094	176022.0117242591
2.348161458969116	165102.74753684888
2.351015567779541	203805.23996301705
2.353865146636963	284022.0247385538
2.3567099571228027	355043.61366402084
2.3595502376556396	408581.7002273733
2.3623859882354736	456906.331041199
2.3652172088623047	429728.4010762621
2.368043899536133	294547.83605472086
2.370866537094116	166569.89500078012
2.3736846446990967	142836.41676820454
2.3764986991882324	181485.42959990192
2.3793084621429443	226622.84893665704
2.3821144104003906	280060.88904167624
2.384916305541992	350268.64091200184
2.387714147567749	390637.6808767659
2.3905084133148193	362106.1572856609
2.393299102783203	332631.8610419903
2.3960859775543213	350594.51214905264
2.398869514465332	389482.7451102948
2.4016497135162354	397407.0340831974
2.4044265747070312	388406.14353219524
2.407200336456299	461400.92252554686
2.409970998764038	611281.1505941557
2.4127390384674072	708434.3476805302
2.415503978729248	740196.3105642757
2.418266534805298	839603.9633391066
2.4210267066955566	950345.3755802109
2.4237842559814453	870107.5621862207
2.426539897918701	746778.6693357219
2.429293394088745	882080.1768131657
2.4320452213287354	1136231.3454836512
2.4347951412200928	1194174.037471029
2.4375438690185547	1130103.3417865313
2.440291166305542	1168344.211753974
2.443037271499634	1200899.3957210404
2.445782423019409	1040714.8728013006
2.4485268592834473	805747.6386901068
2.451270818710327	763419.3543577407
2.454014539718628	965776.2485955833
2.4567582607269287	1143498.8871703513
2.4595019817352295	1181414.6934780288
2.4622461795806885	1302185.18572367
2.4649908542633057	1334085.850215748
2.4677364826202393	1037130.5402315649
2.4704833030700684	699374.9247502079
2.473231554031372	518011.34597651707
2.4759814739227295	424933.1817218074
2.4787333011627197	384059.4112784181
