#wavelength	surface flux
0.6450077295303345	4165.714670853124
0.6472567915916443	6531.726500429859
0.6494921445846558	8484.56516458477
0.6517150402069092	9717.418447541952
0.6539263725280762	10985.067549086161
0.6561272740364075	12337.73584266586
0.6583186388015747	13788.388069560273
0.6605015397071838	15347.764195661122
0.6626768708229065	17025.829128254612
0.6648455858230591	18808.646120186593
0.6670085787773132	20278.00791317213
0.6691668033599854	20551.627387365217
0.6713210344314575	21441.346809649913
0.6734722256660461	25129.014912959585
0.6756211519241333	29229.563413350872
0.6777685880661011	32122.47140604776
0.6799154281616211	34740.161520986425
0.6820623278617859	37379.18719878717
0.6842101216316223	40053.22903925829
0.6863595843315125	42743.721912705194
0.688511312007904	45366.67824272203
0.6906660795211792	47661.15126676696
0.6928245425224304	49673.74418714384
0.6949873566627502	52156.46690085259
0.6971551775932312	54977.68030878616
0.6993286609649658	57399.587059970196
0.7015084028244019	59570.58879169906
0.7036949396133423	61503.07325335279
0.7058889269828796	62969.20011701664
0.7080909013748169	64023.70007400819
0.710301399230957	64815.4963071958
0.712520956993103	65211.814893409224
0.7147500514984131	64803.37429172344
0.7169892191886902	63559.73560986593
0.7192389369010925	61801.93673777683
0.7214996814727783	59457.46281518779
0.723771870136261	56308.561914454425
0.7260559797286987	52724.14893859072
0.7283523678779602	48963.27557374259
0.7306615710258484	45979.94618690071
0.7329838871955872	44136.614395327786
0.7353196740150452	41286.25687487926
0.7376693487167358	36995.935066951984
0.7400332689285278	32501.54877934658
0.7424117922782898	28115.609950954797
0.7448052167892456	24035.003164606696
0.7472138404846191	20183.029090623793
0.7496379613876343	16479.14601877839
0.7520779371261597	13063.93277508328
0.7545340061187744	10002.621939736731
0.7570064663887024	7324.413602105195
0.7594954967498779	5032.182757226197
0.7620013952255249	3085.287413479011
0.7645244002342224	1536.1934186311314
0.7670646905899048	659.7171532764531
0.7696225643157959	699.6792565731955
0.7721980810165405	1870.012390991975
0.7747915983200073	4147.068932256523
0.7774031162261963	6984.360047203901
0.7800329327583313	10542.112574475534
0.7826811671257019	16077.747661540174
0.7853479981422424	23590.606477539757
0.7880334854125977	32106.61304226504
0.7907378077507019	38281.22689800591
0.7934610247612	39833.257974834305
0.7962033748626709	51767.3122750383
0.7989648580551147	79546.95672431811
0.801745593547821	107022.53081994173
0.8045456409454346	131217.30352727097
0.8073651194572449	156011.84256995353
0.8102040886878967	180945.73652838965
0.8130625486373901	210739.36713841354
0.8159406185150146	249362.7477461209
0.8188382983207703	294887.9918862937
0.8217556476593018	346007.11237328354
0.8246926665306091	398638.9445894207
0.8276493549346924	449080.6021036573
0.8306257724761963	506878.75481350016
0.8336219191551208	579883.5052739857
0.8366377949714661	655082.0887892029
0.8396733403205872	729620.2730795568
0.8427285552024841	815840.8122619132
0.8458034992218018	906169.6820853794
0.8488980531692505	943910.7955285498
0.8520121574401855	962579.2221958828
0.8551458716392517	1129272.4232317354
0.8582990765571594	1380294.993791968
0.8614717125892639	1563550.819548238
0.8646637797355652	1722555.1889969644
0.8678751587867737	1904098.219704843
0.8711057901382446	2102742.412159333
0.8743556141853333	2301869.9948903355
0.87762451171875	2488861.6426631496
0.8809124231338501	2646133.639973523
0.8842192888259888	2778359.5599604826
0.8875449895858765	2875725.194050772
0.8908893465995789	2773860.7717981404
0.894252359867096	2569277.6554434886
0.8976338505744934	2920234.434660412
0.9010337591171265	3821972.146269166
0.9044519662857056	4606674.471070776
0.9078882932662964	5089990.862174679
0.9113426208496094	5348355.467826572
0.914814829826355	5436744.502140206
0.9183048605918884	5571880.391684346
0.9218124747276306	5469714.218864099
0.925337553024292	4340608.517372578
0.9288799166679382	3045101.7314567757
0.9324395060539246	2763164.0822087326
0.9360161423683167	3051971.646968174
0.9396095871925354	3303446.08694209
0.943219780921936	3213757.4487761757
0.9468464851379395	2717203.6945622135
0.9504896402359009	2959053.927380404
0.9541489481925964	4318343.006395611
0.9578243494033813	4758478.314433017
0.9615156054496765	3697992.0645821234
0.9652225375175476	2897572.0946144117
0.9689450263977051	3959950.5881588445
0.9726828336715698	6183417.642748688
0.9764357805252075	7340251.18882926
0.9802037477493286	7921604.36881639
0.983986496925354	9418763.522623502
0.9877838492393494	11057827.175986188
0.9915955662727356	12197629.790928915
0.9954215884208679	13028220.479409827
0.9992615580558777	13248761.119166428
1.0031154155731201	13294433.189310072
1.0069829225540161	14360973.56846985
1.0108637809753418	16410811.652883055
1.0147579908370972	18521483.80291836
1.018665075302124	19975297.51579537
1.022585153579712	20611988.879033744
1.0265177488327026	21256824.98550207
1.0304628610610962	22578488.46548535
1.0344202518463135	24084894.211085774
1.0383895635604858	25285751.006910283
1.0423706769943237	26204129.218855776
1.0463634729385376	26685089.718861606
1.0503677129745483	27118824.55899272
1.0543830394744873	28263531.327168558
1.058409333229065	29641561.50479232
1.0624464750289917	30544711.57664351
1.0664942264556885	30671343.12178376
1.0705522298812866	30315588.73694815
1.0746204853057861	30289112.710542414
1.0786986351013184	30301694.616876494
1.0827864408493042	30206505.52044268
1.086883783340454	28398284.817141604
1.0909905433654785	23264329.50788987
1.0951062440872192	17847444.785155445
1.0992310047149658	12498710.99071706
1.10336434841156	6551568.200262907
1.1075061559677124	3666766.5457940972
1.1116561889648438	2991664.9455228904
1.115814208984375	2107720.1557128173
1.1199802160263062	1875084.8517107642
1.124153733253479	2048804.9259560897
1.1283347606658936	1746536.163457087
1.1325229406356812	1413522.3127536748
1.1367181539535522	2439567.189971705
1.1409201622009277	4392749.901429416
1.145128846168518	5266509.699586526
1.1493438482284546	4261342.238459662
1.1535650491714478	2503661.851832058
1.1577922105789185	1717523.588654417
1.1620250940322876	2038209.642445241
1.1662636995315552	3239984.7799697663
1.170507550239563	4976018.7210576935
1.174756646156311	7329298.371321038
1.1790107488632202	10521164.071009012
1.1832695007324219	12247267.682346437
1.1875330209732056	11965094.303190498
1.191800832748413	14848655.49134259
1.1960728168487549	20952761.994635478
1.2003488540649414	24911294.184800584
1.2046287059783936	26809975.110264774
1.2089121341705322	27860800.11237623
1.2131990194320679	29235768.72480594
1.2174891233444214	32387893.95488392
1.2217823266983032	35383457.52235902
1.2260783910751343	37560040.87831166
1.230377197265625	39887489.33621903
1.2346785068511963	41656977.961069286
1.238982081413269	42519975.43451928
1.2432878017425537	43469117.68539988
1.2475954294204712	44573079.099620946
1.2519049644470215	45273341.03292247
1.256216049194336	47883288.39553044
1.2605286836624146	49902887.14508391
1.2648425102233887	48603878.9147275
1.2691574096679688	48818721.820001155
1.2734732627868652	51282304.357272126
1.2777899503707886	50470558.49997477
1.2821072340011597	46234212.437963486
1.2864248752593994	44203998.864688314
1.2907428741455078	43668072.20671271
1.2950609922409058	41843332.12404704
1.2993791103363037	35682424.42973638
1.303696870803833	29810024.320430644
1.3080145120620728	28842232.715483963
1.3123314380645752	29555151.086889517
1.3166478872299194	31406439.46750474
1.3209635019302368	28402168.843353115
1.3252781629562378	20882284.19614942
1.3295916318893433	13530360.185368065
1.3339040279388428	6051997.603656561
1.3382149934768677	1567524.3919177912
1.3425244092941284	541242.8119365609
1.3468321561813354	350324.509262503
1.3511382341384888	260424.07998583675
1.3554422855377197	173905.54594253516
1.3597444295883179	186468.92476920775
1.3640443086624146	273333.083727118
1.3683418035507202	258800.91064116804
1.3726370334625244	199009.2560178234
1.3769296407699585	255010.8816087431
1.381219506263733	254664.3123434137
1.3855066299438477	141673.7360497462
1.3897908926010132	155866.7310579051
1.3940720558166504	281105.4509702298
1.3983501195907593	264493.30821551767
1.4026249647140503	233980.5911331909
1.4068963527679443	282619.7307015964
1.4111642837524414	236841.3021407959
1.4154287576675415	181521.1944095602
1.419689416885376	176134.94313044663
1.4239463806152344	179046.02903535456
1.4281994104385376	140270.1084243087
1.4324485063552856	112859.06774467447
1.436693549156189	242952.2319423497
1.440934419631958	594340.610946382
1.4451709985733032	1252626.5295197489
1.449403166770935	2018365.7294458705
1.453631043434143	2160173.8432854717
1.4578542709350586	2077312.0570009782
1.4620729684829712	2746942.0732792513
1.4662868976593018	3350545.4136430062
1.4704961776733398	2301885.32273622
1.4747005701065063	913065.8864182733
1.4788999557495117	1284788.7425676438
1.4830944538116455	2637290.208005162
1.4872838258743286	2981647.410774091
1.491468071937561	2248184.3032012526
1.4956470727920532	2478582.7798276953
1.4998208284378052	4213988.364269353
1.5039892196655273	5005878.811330131
1.5081522464752197	4015585.257614466
1.5123097896575928	4024579.8839513697
1.5164618492126465	6455277.813609688
1.5206083059310913	9529239.136341583
1.5247491598129272	11033350.916151933
1.5288842916488647	11457481.49159088
1.5330137014389038	12489337.492752027
1.5371372699737549	13551959.899807863
1.541254997253418	13761871.76651106
1.545366883277893	14637564.190511608
1.5494728088378906	16103387.854279434
1.5535727739334106	17203495.05743583
1.5576666593551636	18600531.742521808
1.561754584312439	20651063.495624386
1.5658363103866577	22818937.338041827
1.5699119567871094	23833292.307721075
1.5739814043045044	23420939.668991134
1.5780447721481323	23458907.85976279
1.582101821899414	24866805.558530428
1.5861525535583496	26126819.60114622
1.5901970863342285	25530490.86442565
1.5942351818084717	23359719.703654397
1.5982669591903687	21890980.041430347
1.6022924184799194	20918797.069128796
1.606311559677124	19402375.624280144
1.6103241443634033	18749265.931719135
1.6143304109573364	17410965.838370282
1.6183301210403442	14455350.889194189
1.6223233938217163	12211822.557150103
1.6263102293014526	11011307.925312987
1.6302905082702637	11372344.195602968
1.634264349937439	13703353.820374329
1.638231635093689	16228360.158903271
1.6421923637390137	16425110.22316876
1.646146535873413	12809033.083189873
1.6500942707061768	9713941.366958791
1.6540353298187256	10547389.700416628
1.6579699516296387	11718079.51078702
1.661897897720337	10998827.567138754
1.6658192873001099	7717554.198030808
1.6697341203689575	4718825.536449727
1.6736423969268799	5163633.206735814
1.677544116973877	5884973.294555225
1.6814392805099487	5589242.238666729
1.6853278875350952	4994598.279990289
1.6892099380493164	4144776.9491975703
1.6930854320526123	3569849.1775733735
1.696954369544983	2969195.036284592
1.7008168697357178	2479808.5858603474
1.7046726942062378	2432337.8229331514
1.708522081375122	3035889.1596829314
1.712364912033081	3663067.5969774555
1.7162011861801147	3951902.0977481226
1.7200311422348022	4569160.538164311
1.723854422569275	4623404.390727444
1.7276713848114014	3801234.63627353
1.731481909751892	3345791.833170554
1.7352858781814575	3468919.3683418836
1.7390835285186768	3809070.731450502
1.7428747415542603	3954915.321286815
1.7466596364974976	3277641.662815093
1.7504380941390991	2365150.460263436
1.7542102336883545	2500019.109872436
1.7579760551452637	3316365.1426463956
1.7617355585098267	3667895.2180206254
1.7654887437820435	3280960.803124562
1.7692357301712036	2411430.0850853412
1.7729763984680176	1582155.2621215717
1.776710867881775	1019299.5613616597
1.7804391384124756	798695.6287224469
1.7841613292694092	818127.7172850439
1.7878772020339966	867526.8078115066
1.7915871143341064	1237139.4580698884
1.7952908277511597	1522943.9189131008
1.7989884614944458	1276784.890898561
1.8026801347732544	898849.788688715
1.806365728378296	741811.8978184806
1.8100452423095703	682466.0260456353
1.8137187957763672	517747.41445880313
1.817386507987976	337826.738829837
1.8210482597351074	584246.3293054142
1.8247040510177612	1080408.0460281826
1.828354001045227	1003982.9406019704
1.8319982290267944	531447.7416650568
1.8356364965438843	491884.2612483047
1.8392690420150757	923810.1518251639
1.8428958654403687	1262757.2996646888
1.8465168476104736	1163124.7878873693
1.8501322269439697	809255.1606706852
1.8537418842315674	631420.3183969978
1.8573459386825562	723956.3989032821
1.860944390296936	588053.3586143577
1.864537239074707	230086.67136307908
1.8681244850158691	83768.02285973367
1.871706247329712	167144.59204822534
1.8752825260162354	389552.3712965374
1.8788533210754395	603247.366138433
1.8824186325073242	827339.3763424717
1.8859784603118896	1341968.36594775
1.8895330429077148	1764637.86875761
1.8930821418762207	1352770.095255725
1.8966259956359863	774834.0065942978
1.9001644849777222	666949.3892201483
1.9036977291107178	582856.1833449854
1.9072256088256836	768911.7618935312
1.9107483625411987	1021794.085478524
1.9142658710479736	704943.7144024476
1.9177782535552979	474243.2930792321
1.9212853908538818	448229.1802290676
1.9247875213623047	225084.87211966436
1.9282845258712769	129411.8322744781
1.9317764043807983	395809.590211132
1.9352631568908691	876005.926974636
1.9387450218200684	949216.6873784469
1.942221760749817	556961.4581143018
1.9456936120986938	292792.81843087956
1.9491604566574097	242793.5743333555
1.952622413635254	309200.9416501162
1.956079363822937	598221.7436383256
1.959531545639038	1025422.908232891
1.962978720664978	1058885.5999690704
1.966421127319336	858695.3054906228
1.9698586463928223	1015618.8649014255
1.9732913970947266	1237574.5765642168
1.9767193794250488	1379613.5659316173
1.9801424741744995	1590372.400868207
1.9835609197616577	1698467.702544346
1.9869745969772339	1898230.4064283147
1.990383505821228	2088166.300550665
1.9937876462936401	2018606.2040005797
1.9971871376037598	1639219.4215537494
2.000581979751587	1255514.407716012
2.003972291946411	1631454.7778472877
2.007357597351074	2358384.2360337595
2.0107386112213135	2701036.4787015803
2.0141148567199707	2573770.3296841877
2.017486572265625	2189157.8776549967
2.0208535194396973	2045885.497916665
2.0242159366607666	2143744.9674248057
2.027573823928833	2218556.438342848
2.0309269428253174	2241275.0341419396
2.034275770187378	2593327.2021863395
2.0376198291778564	3399895.5602946677
2.040959596633911	3985399.4361520023
2.044294595718384	4128348.786213324
2.0476250648498535	4043048.274492068
2.0509510040283203	3733795.9847543864
2.054272413253784	3516411.8572695246
2.057589530944824	3693979.718525363
2.0609018802642822	4002925.3041760945
2.0642096996307373	4183865.141971375
2.0675129890441895	4232403.539186649
2.0708119869232178	4181931.938446123
2.074106216430664	4089162.5107842754
2.0773961544036865	4070005.85975106
2.080681324005127	4098920.7417170517
2.0839622020721436	4056136.0001197206
2.087238311767578	3964563.978598378
2.090510129928589	3910155.1108158575
2.0937774181365967	3895046.016459418
2.0970399379730225	3826533.593778964
2.1002981662750244	3657051.6089578853
2.1035518646240234	3539830.7598511265
2.1068007946014404	3548628.638706949
2.1100454330444336	3550714.6807351294
2.1132853031158447	3454420.058226213
2.116520881652832	3237636.6267117825
2.1197516918182373	3001917.5259275455
2.1229779720306396	2852882.938343545
2.12619948387146	2751436.237756734
2.1294167041778564	2726156.3012197437
2.132629156112671	2773784.10451215
2.1358368396759033	2662026.8113263603
2.139039993286133	2454242.793083504
2.1422386169433594	2288036.436787655
2.145432472229004	2117233.450104526
2.1486217975616455	1969969.4939127113
2.151806354522705	1779586.794957773
2.1549863815307617	1750231.5975191093
2.1581614017486572	1937782.7523556543
2.16133189201355	2033410.3835138823
2.1644976139068604	1972000.1870957273
2.167658567428589	1755197.9512272372
2.1708147525787354	1605193.4145407807
2.173966407775879	1772277.9319466942
2.1771130561828613	2043911.7188082202
2.1802549362182617	2074234.085973796
2.183391809463501	1848888.6658536508
2.1865241527557373	1624878.6647905312
2.1896514892578125	1492431.0148251352
2.1927738189697266	1270130.4322186494
2.1958916187286377	844790.8605052233
2.1990041732788086	417471.01038108853
2.2021119594573975	224204.57378338493
2.2052149772644043	253299.06735936765
2.208312749862671	387507.4296542265
2.2114057540893555	560774.2173191876
2.214493751525879	660724.2258782036
2.217576742172241	551662.7950492497
2.2206547260284424	359140.84290003503
2.2237277030944824	261475.8243339196
2.2267956733703613	215709.08261815403
2.2298583984375	178941.05866168402
2.2329163551330566	163802.74307474142
2.235969066619873	174947.00018662694
2.2390167713165283	176938.34603132532
2.2420592308044434	148659.34492327986
2.2450966835021973	120890.21764709677
2.248128890991211	113061.80609393615
2.2511560916900635	123370.13623497223
2.254178285598755	170468.0195426642
2.257194995880127	270243.38668730337
2.260206699371338	285947.0834084141
2.2632133960723877	159473.68812670687
2.266214609146118	99328.92215501796
2.2692108154296875	202722.6044768406
2.2722020149230957	313666.7388689595
2.2751877307891846	288436.2264122901
2.278168201446533	206776.79809188235
2.2811436653137207	191987.94117366927
2.284113883972168	196219.5181816146
2.287078857421875	150499.6751210363
2.290038824081421	102089.25246572145
2.2929933071136475	94998.07724471108
2.295942783355713	99254.7577490783
2.298887014389038	103961.03298384162
2.301826238632202	131158.71630022585
2.304760217666626	203468.41448348583
2.3076889514923096	323461.5172209834
2.310612440109253	467521.8659522587
2.3135311603546143	608488.5729425475
2.3164443969726562	587736.8647095143
2.319352865219116	330734.8203950483
2.322256088256836	121782.89103104654
2.3251543045043945	83843.64198331369
2.328047275543213	78727.48864207252
2.330935478210449	67990.92899914194
2.3338186740875244	56803.73649661437
2.3366971015930176	44440.00768108121
2.3395702838897705	35859.89767024126
2.3424389362335205	31797.446958183493
2.3453025817871094	28669.47869042274
2.348161458969116	28293.40502186185
2.351015567779541	52485.748974992486
2.353865146636963	128417.00582905742
2.3567099571228027	235762.79674038294
2.3595502376556396	320674.6915108768
2.3623859882354736	324256.32295968244
2.3652172088623047	219016.32690086917
2.368043899536133	92729.21753442513
2.370866537094116	34432.751819727455
2.3736846446990967	28323.10101536917
2.3764986991882324	33443.3605722018
2.3793084621429443	40875.07871153841
2.3821144104003906	64878.51534785293
2.384916305541992	103601.35883515803
2.387714147567749	120456.00457105393
2.3905084133148193	99637.11993778453
2.393299102783203	77173.10929957202
2.3960859775543213	66576.6566041825
2.398869514465332	69292.99321157932
2.4016497135162354	112092.68468617229
2.4044265747070312	205668.22637796396
2.407200336456299	281177.9235764077
2.409970998764038	270868.6813391215
2.4127390384674072	226399.5439494919
2.415503978729248	224663.63138834023
2.418266534805298	270960.8775979989
2.4210267066955566	307424.7161381102
2.4237842559814453	285451.46601748996
2.426539897918701	268276.16051587556
2.429293394088745	340489.1668657605
2.4320452213287354	424200.02467381774
2.4347951412200928	415031.6701074345
2.4375438690185547	390724.0678726448
2.440291166305542	431315.7117143413
2.443037271499634	448406.78081109084
2.445782423019409	401998.17915717216
2.4485268592834473	387151.05177855457
2.451270818710327	463372.27699975047
2.454014539718628	576203.238499176
2.4567582607269287	633391.8090547328
2.4595019817352295	657003.2158651634
2.4622461795806885	746861.1444977815
2.4649908542633057	875759.0040277278
2.4677364826202393	895405.5092503156
2.4704833030700684	738988.9745269668
2.473231554031372	502977.32905349735
2.4759814739227295	323676.9328978962
2.4787333011627197	229267.18969507772
