#wavelength	surface flux
0.6450077295303345	517532.4490474046
0.6472567915916443	808198.767412845
0.6494921445846558	1038568.8949844936
0.6517150402069092	1170905.3584773224
0.6539263725280762	1303177.2494270739
0.6561272740364075	1440829.4038472695
0.6583186388015747	1581875.557717701
0.6605015397071838	1721006.4205816814
0.6626768708229065	1846806.1179517084
0.6648455858230591	1926850.5458053765
0.6670085787773132	1828930.8866603395
0.6691668033599854	1435349.7533762057
0.6713210344314575	1230482.1889963704
0.6734722256660461	1734756.3773271465
0.6756211519241333	2469372.49877299
0.6777685880661011	2934279.3755061827
0.6799154281616211	3221614.8017481626
0.6820623278617859	3451049.1339628045
0.6842101216316223	3658652.734285134
0.6863595843315125	3846601.3632100374
0.688511312007904	4003135.6597263487
0.6906660795211792	4127771.42915256
0.6928245425224304	4260713.371515101
0.6949873566627502	4444932.726579739
0.6971551775932312	4651829.632600556
0.6993286609649658	4812568.75110077
0.7015084028244019	4917378.449147208
0.7036949396133423	4986725.991143324
0.7058889269828796	5023820.115516195
0.7080909013748169	5030364.44890485
0.710301399230957	5010032.612770419
0.712520956993103	4960810.331116652
0.7147500514984131	4872078.318084348
0.7169892191886902	4742948.507167687
0.7192389369010925	4581317.317082491
0.7214996814727783	4387876.2251211135
0.723771870136261	4165768.2608747976
0.7260559797286987	3921914.131409215
0.7283523678779602	3655907.390632824
0.7306615710258484	3394206.7951915027
0.7329838871955872	3150303.046110708
0.7353196740150452	2874396.0959735573
0.7376693487167358	2559634.16425796
0.7400332689285278	2240952.1921844794
0.7424117922782898	1926775.133270463
0.7448052167892456	1623510.73762456
0.7472138404846191	1332312.8820035756
0.7496379613876343	1054567.536941065
0.7520779371261597	798162.5014884549
0.7545340061187744	569017.2736923895
0.7570064663887024	372849.7882065158
0.7594954967498779	215672.7094158535
0.7620013952255249	102342.59644317595
0.7645244002342224	35351.304783357526
0.7670646905899048	8651.400119059595
0.7696225643157959	9663.444865460286
0.7721980810165405	43870.45853781363
0.7747915983200073	131195.5114788293
0.7774031162261963	262693.31510969455
0.7800329327583313	451026.5377274606
0.7826811671257019	772083.6346813291
0.7853479981422424	1208818.1399567674
0.7880334854125977	1676589.1710541407
0.7907378077507019	1974826.3396181269
0.7934610247612	1973058.6604664002
0.7962033748626709	2515021.9941094522
0.7989648580551147	3895581.9923584964
0.801745593547821	5196717.9271022575
0.8045456409454346	6240733.628039611
0.8073651194572449	7281683.224061736
0.8102040886878967	8358082.397201624
0.8130625486373901	9530663.291416539
0.8159406185150146	10616247.426034685
0.8188382983207703	11732171.202743469
0.8217556476593018	13580013.537598362
0.8246926665306091	15797285.426653937
0.8276493549346924	17708165.98308418
0.8306257724761963	19679057.294221234
0.8336219191551208	21971891.558420256
0.8366377949714661	24292656.08965137
0.8396733403205872	26562531.98560913
0.8427285552024841	28997089.777040802
0.8458034992218018	31111268.5206386
0.8488980531692505	30561129.929209284
0.8520121574401855	29178366.655774474
0.8551458716392517	33993112.04136383
0.8582990765571594	39427607.57767904
0.8614717125892639	35242309.16990745
0.8646637797355652	29526255.048345897
0.8678751587867737	30479521.625590138
0.8711057901382446	32914652.52358495
0.8743556141853333	35296219.75706502
0.87762451171875	39410037.307308726
0.8809124231338501	43063402.88100983
0.8842192888259888	45725784.02451208
0.8875449895858765	46817134.93102588
0.8908893465995789	45216959.59756622
0.894252359867096	46028027.31116024
0.8976338505744934	54142090.43337201
0.9010337591171265	66596237.39991412
0.9044519662857056	77830087.943048
0.9078882932662964	86085278.90468521
0.9113426208496094	92354002.09233913
0.914814829826355	95822564.37625897
0.9183048605918884	98617516.36160155
0.9218124747276306	98343769.41717197
0.925337553024292	89463272.83027257
0.9288799166679382	83059028.11800846
0.9324395060539246	85746572.34527314
0.9360161423683167	90764067.14441451
0.9396095871925354	93332886.03357977
0.943219780921936	92279865.7631033
0.9468464851379395	89253566.2897668
0.9504896402359009	95314935.4573962
0.9541489481925964	113302966.14396355
0.9578243494033813	121058184.91786323
0.9615156054496765	108131369.60254245
0.9652225375175476	92783340.49123223
0.9689450263977051	102348970.39656402
0.9726828336715698	130885212.69879329
0.9764357805252075	144812681.00035986
0.9802037477493286	146512850.6913634
0.983986496925354	154524701.82577735
0.9877838492393494	152000355.47052544
0.9915955662727356	132066577.80861367
0.9954215884208679	115723955.29051226
0.9992615580558777	101000931.29604451
1.0031154155731201	89376964.96059465
1.0069829225540161	92581290.12726884
1.0108637809753418	106500710.30443579
1.0147579908370972	124030858.3240764
1.018665075302124	135816190.2108451
1.022585153579712	135735672.2907474
1.0265177488327026	135202149.29904342
1.0304628610610962	147967699.06465456
1.0344202518463135	167181301.1399638
1.0383895635604858	179552745.56587052
1.0423706769943237	184887567.39595485
1.0463634729385376	191769006.07664716
1.0503677129745483	199796405.49598065
1.0543830394744873	209493289.20985523
1.058409333229065	219996583.68098125
1.0624464750289917	226983420.50650653
1.0664942264556885	234134325.90350866
1.0705522298812866	243389718.8220183
1.0746204853057861	252762825.95888725
1.0786986351013184	259906494.9540484
1.0827864408493042	264605109.884017
1.086883783340454	256569780.55609462
1.0909905433654785	229725275.78666478
1.0951062440872192	202944960.63307393
1.0992310047149658	165440659.62237525
1.10336434841156	110503317.80928417
1.1075061559677124	81645180.83159833
1.1116561889648438	74702893.72920448
1.115814208984375	66391361.67455892
1.1199802160263062	67823941.03958485
1.124153733253479	73123259.79592016
1.1283347606658936	63543472.12759219
1.1325229406356812	47853221.37715647
1.1367181539535522	55881640.24616058
1.1409201622009277	86223403.08348288
1.145128846168518	109377359.19049166
1.1493438482284546	103213361.93030214
1.1535650491714478	83700574.2670524
1.1577922105789185	76458098.97856885
1.1620250940322876	75897162.2253214
1.1662636995315552	81023628.67697406
1.170507550239563	86929312.5038245
1.174756646156311	92104003.50609042
1.1790107488632202	110575641.45279896
1.1832695007324219	130030661.91113533
1.1875330209732056	133473406.92218636
1.191800832748413	154249053.27773795
1.1960728168487549	193650781.7909037
1.2003488540649414	211786480.92034644
1.2046287059783936	218897733.87603456
1.2089121341705322	224838271.76320133
1.2131990194320679	234253640.69034502
1.2174891233444214	255966745.14847183
1.2217823266983032	273135850.3222449
1.2260783910751343	281205123.53783566
1.230377197265625	289429447.9661055
1.2346785068511963	291540331.69436187
1.238982081413269	272720310.4317343
1.2432878017425537	246394926.9080824
1.2475954294204712	236399933.0585216
1.2519049644470215	235587064.65798533
1.256216049194336	270179866.4856879
1.2605286836624146	316095058.0789117
1.2648425102233887	325602497.40459085
1.2691574096679688	336703483.262563
1.2734732627868652	356658470.2331837
1.2777899503707886	356771972.35260296
1.2821072340011597	341736895.1760524
1.2864248752593994	335812970.31662107
1.2907428741455078	336642663.981138
1.2950609922409058	330892100.7730558
1.2993791103363037	304115241.69607985
1.303696870803833	280534149.51747006
1.3080145120620728	281359412.96483797
1.3123314380645752	285966163.42902964
1.3166478872299194	283469777.41724974
1.3209635019302368	253646442.19417903
1.3252781629562378	207603978.04955572
1.3295916318893433	152809741.8504129
1.3339040279388428	78349216.29192851
1.3382149934768677	26857565.192738574
1.3425244092941284	14134267.140222892
1.3468321561813354	12932051.308865765
1.3511382341384888	12326414.682056317
1.3554422855377197	10026901.679594206
1.3597444295883179	12071840.150096957
1.3640443086624146	17334941.898941193
1.3683418035507202	16006357.257696979
1.3726370334625244	12981815.443865284
1.3769296407699585	14624740.25571007
1.381219506263733	12580439.450311586
1.3855066299438477	7692808.2845612
1.3897908926010132	7985081.616554981
1.3940720558166504	11135267.711444693
1.3983501195907593	10795107.594901104
1.4026249647140503	10373278.980143668
1.4068963527679443	12538379.54894363
1.4111642837524414	14200158.388289472
1.4154287576675415	14977915.173542215
1.419689416885376	13934874.82767617
1.4239463806152344	12786944.297331264
1.4281994104385376	10792009.672471052
1.4324485063552856	8356284.954002968
1.436693549156189	9935952.43854913
1.440934419631958	14450801.325522553
1.4451709985733032	21339568.35003576
1.449403166770935	28925378.411074407
1.453631043434143	28727543.622481704
1.4578542709350586	25483563.850408904
1.4620729684829712	30476998.596006677
1.4662868976593018	36219398.60461976
1.4704961776733398	28984450.12122356
1.4747005701065063	19441484.73708052
1.4788999557495117	23547607.391900927
1.4830944538116455	36356123.299447216
1.4872838258743286	41358288.21921986
1.491468071937561	35185403.54221425
1.4956470727920532	34326598.082383305
1.4998208284378052	43219981.58825301
1.5039892196655273	47263906.81688869
1.5081522464752197	42004445.2446955
1.5123097896575928	44459067.94214897
1.5164618492126465	62580902.995106794
1.5206083059310913	81160320.97011524
1.5247491598129272	84505945.85936171
1.5288842916488647	82213666.5579154
1.5330137014389038	88111815.2459318
1.5371372699737549	92504948.07805476
1.541254997253418	90341060.9398899
1.545366883277893	93995631.59701797
1.5494728088378906	99793826.96434818
1.5535727739334106	102032735.35565099
1.5576666593551636	107100191.34676825
1.561754584312439	115870074.3659655
1.5658363103866577	125233518.44439793
1.5699119567871094	129062926.57227054
1.5739814043045044	128537738.93423022
1.5780447721481323	132960031.91162631
1.582101821899414	142131781.73804426
1.5861525535583496	148222810.569238
1.5901970863342285	146182787.16033283
1.5942351818084717	140256954.03706977
1.5982669591903687	141191143.5831873
1.6022924184799194	144066584.17768344
1.606311559677124	140114066.0374441
1.6103241443634033	138793175.46480468
1.6143304109573364	138383136.67511788
1.6183301210403442	131950402.61909969
1.6223233938217163	127904415.10474578
1.6263102293014526	127511843.75561759
1.6302905082702637	128183405.71619096
1.634264349937439	131743168.02495001
1.638231635093689	137354894.12847286
1.6421923637390137	139878900.66290092
1.646146535873413	133560845.72018589
1.6500942707061768	125362835.12153389
1.6540353298187256	123693734.4922041
1.6579699516296387	122868191.8809589
1.661897897720337	115601428.13449195
1.6658192873001099	95515912.94776417
1.6697341203689575	82460704.1815678
1.6736423969268799	94705926.58920468
1.677544116973877	107517513.88925456
1.6814392805099487	107502342.41363357
1.6853278875350952	101260510.6198708
1.6892099380493164	91034000.4596393
1.6930854320526123	80247933.51496606
1.696954369544983	75185105.889825
1.7008168697357178	75848750.61771397
1.7046726942062378	76171770.39445722
1.708522081375122	75769982.38895053
1.712364912033081	73090257.13283151
1.7162011861801147	69863239.65578587
1.7200311422348022	70739923.54737654
1.723854422569275	70677219.00575265
1.7276713848114014	64577973.15799071
1.731481909751892	54717891.09639088
1.7352858781814575	49517676.49808135
1.7390835285186768	51169390.22558441
1.7428747415542603	50743570.68588537
1.7466596364974976	42921846.68961083
1.7504380941390991	35819847.54233958
1.7542102336883545	36608864.972244814
1.7579760551452637	43471283.01711556
1.7617355585098267	54155603.91093252
1.7654887437820435	57532807.763724186
1.7692357301712036	45654310.63937164
1.7729763984680176	31355462.505740833
1.776710867881775	21550284.04661307
1.7804391384124756	17369114.26951922
1.7841613292694092	17551038.43314697
1.7878772020339966	17354737.401750226
1.7915871143341064	22563587.37809643
1.7952908277511597	29034221.153116874
1.7989884614944458	27264587.89672262
1.8026801347732544	20053976.695237093
1.806365728378296	14211334.263532957
1.8100452423095703	12718777.974242298
1.8137187957763672	12045675.055287205
1.817386507987976	9969791.294515152
1.8210482597351074	15325047.98105528
1.8247040510177612	25246099.258459974
1.828354001045227	23343775.91067711
1.8319982290267944	14568548.393139884
1.8356364965438843	14686709.205028486
1.8392690420150757	20351205.1181875
1.8428958654403687	21096376.756186847
1.8465168476104736	18431487.811723966
1.8501322269439697	16942390.984636042
1.8537418842315674	14876274.380686264
1.8573459386825562	13282537.776310457
1.860944390296936	10830533.300015569
1.864537239074707	6649804.268741712
1.8681244850158691	5452361.2035296075
1.871706247329712	8967313.940442674
1.8752825260162354	13663926.570024097
1.8788533210754395	14293529.16066462
1.8824186325073242	13854465.192430444
1.8859784603118896	18822196.06718674
1.8895330429077148	24725845.645983376
1.8930821418762207	22094387.58780912
1.8966259956359863	16784212.935339916
1.9001644849777222	15024214.642077306
1.9036977291107178	12789494.85654441
1.9072256088256836	15776126.652894942
1.9107483625411987	19386800.499552544
1.9142658710479736	14761977.262257999
1.9177782535552979	13048594.784076007
1.9212853908538818	12450645.61762696
1.9247875213623047	6753649.027781066
1.9282845258712769	4774421.464715598
1.9317764043807983	10265921.340556698
1.9352631568908691	19075581.1308478
1.9387450218200684	20201385.940162413
1.942221760749817	12838131.379690893
1.9456936120986938	8021368.261431133
1.9491604566574097	7548539.572464876
1.952622413635254	10244727.266123675
1.956079363822937	18117590.683596417
1.959531545639038	24923868.680372454
1.962978720664978	21029701.730321653
1.966421127319336	15250069.759644048
1.9698586463928223	17014527.080118466
1.9732913970947266	18744855.053638034
1.9767193794250488	18636938.178911146
1.9801424741744995	19599805.94241548
1.9835609197616577	19922933.10662456
1.9869745969772339	22725313.242467105
1.990383505821228	25463062.967788864
1.9937876462936401	24316264.791365635
1.9971871376037598	20781107.53511847
2.000581979751587	17938614.490476586
2.003972291946411	21349214.552148964
2.007357597351074	26007563.008960065
2.0107386112213135	27619760.113656957
2.0141148567199707	26755899.51435932
2.017486572265625	23589939.312143847
2.0208535194396973	24602152.755475055
2.0242159366607666	28961128.53119097
2.027573823928833	29449679.38657054
2.0309269428253174	28353124.50842651
2.034275770187378	31009167.934940446
2.0376198291778564	36985247.85085903
2.040959596633911	42386546.18162027
2.044294595718384	44173786.23293173
2.0476250648498535	44326087.39410267
2.0509510040283203	42646757.57573756
2.054272413253784	38999564.73429711
2.057589530944824	39649782.34426343
2.0609018802642822	45091159.22414136
2.0642096996307373	49084836.14692336
2.0675129890441895	50338518.41721344
2.0708119869232178	50482525.55242798
2.074106216430664	49992172.49232026
2.0773961544036865	51046113.229235046
2.080681324005127	52962225.29454774
2.0839622020721436	53187073.15691435
2.087238311767578	52083393.37362211
2.090510129928589	51100149.82844862
2.0937774181365967	51479385.09594595
2.0970399379730225	52136402.26964827
2.1002981662750244	50841399.16606762
2.1035518646240234	49475715.91183531
2.1068007946014404	50005081.05082162
2.1100454330444336	50664292.96803838
2.1132853031158447	50245849.953498185
2.116520881652832	48841063.14351783
2.1197516918182373	47525289.32454239
2.1229779720306396	47104630.15753212
2.12619948387146	46633235.25088622
2.1294167041778564	46189763.275612116
2.132629156112671	46460617.43961237
2.1358368396759033	45807174.10148298
2.139039993286133	44234363.7651717
2.1422386169433594	43106335.66635895
2.145432472229004	42194016.27124144
2.1486217975616455	41300472.210371405
2.151806354522705	40135255.50914619
2.1549863815307617	39952289.87736833
2.1581614017486572	40961902.669216946
2.16133189201355	41492573.23508634
2.1644976139068604	41162874.832861684
2.167658567428589	39469373.77621597
2.1708147525787354	37228556.54961614
2.173966407775879	36315517.00765214
2.1771130561828613	36445893.249169216
2.1802549362182617	35881519.56206268
2.183391809463501	34109913.79893116
2.1865241527557373	32241592.227213014
2.1896514892578125	30700991.04026252
2.1927738189697266	28158017.713868577
2.1958916187286377	23397777.85419555
2.1990041732788086	18080326.10910188
2.2021119594573975	15098426.173002314
2.2052149772644043	14257262.11875701
2.208312749862671	14255135.446878297
2.2114057540893555	15827399.195910258
2.214493751525879	17971276.761903968
2.217576742172241	17957352.86560266
2.2206547260284424	16918254.040724754
2.2237277030944824	15807974.721892245
2.2267956733703613	13595077.593601098
2.2298583984375	11701924.592927838
2.2329163551330566	11323240.118903616
2.235969066619873	11927662.351342445
2.2390167713165283	12050933.83161068
2.2420592308044434	11035370.757281208
2.2450966835021973	9994054.259015298
2.248128890991211	9743441.444781385
2.2511560916900635	10213602.266850797
2.254178285598755	11551836.10032034
2.257194995880127	13563215.854859902
2.260206699371338	13049039.555210464
2.2632133960723877	9365356.321080316
2.266214609146118	7756321.9204271035
2.2692108154296875	10124395.273516942
2.2722020149230957	12475134.022525836
2.2751877307891846	12268074.491122782
2.278168201446533	11383787.249236397
2.2811436653137207	11159412.00720765
2.284113883972168	10429301.819741031
2.287078857421875	8980227.525354724
2.290038824081421	8195559.833786276
2.2929933071136475	8379737.073497816
2.295942783355713	8634897.707148844
2.298887014389038	9066111.878314028
2.301826238632202	10237211.158637539
2.304760217666626	11993629.618454058
2.3076889514923096	14181220.215426894
2.310612440109253	16771360.898406519
2.3135311603546143	18577193.28656447
2.3164443969726562	16466431.595665058
2.319352865219116	10655950.333112191
2.322256088256836	6665121.702482072
2.3251543045043945	5784345.268013093
2.328047275543213	5556892.723642872
2.330935478210449	5495284.007222558
2.3338186740875244	5257850.598017586
2.3366971015930176	4800014.901196814
2.3395702838897705	4525549.6706965165
2.3424389362335205	4470187.340350121
2.3453025817871094	4436578.355612256
2.348161458969116	4409084.3145176675
2.351015567779541	5302498.795775405
2.353865146636963	8031558.9932494555
2.3567099571228027	11439865.930725278
2.3595502376556396	13440101.301824002
2.3623859882354736	12973400.716696652
2.3652172088623047	10148276.520608172
2.368043899536133	6646819.624597456
2.370866537094116	4585233.174131711
2.3736846446990967	4502208.099380508
2.3764986991882324	4972877.266548173
2.3793084621429443	4933033.733946047
2.3821144104003906	4987363.163867047
2.384916305541992	5809983.139993097
2.387714147567749	6879862.64701527
2.3905084133148193	7178466.520147053
2.393299102783203	6774634.444791449
2.3960859775543213	6224133.2183703855
2.398869514465332	6214897.731307629
2.4016497135162354	7277940.36741042
2.4044265747070312	9005532.282600587
2.407200336456299	10207350.328168467
2.409970998764038	10247458.421576098
2.4127390384674072	9856406.494651841
2.415503978729248	9657832.363261621
2.418266534805298	9569052.962277103
2.4210267066955566	9385488.709759852
2.4237842559814453	8978078.600931583
2.426539897918701	9039205.283121815
2.429293394088745	10310843.918250518
2.4320452213287354	11510945.453074552
2.4347951412200928	11010249.560065616
2.4375438690185547	9635362.60244411
2.440291166305542	8950976.426791068
2.443037271499634	9048176.319056155
2.445782423019409	9825225.283338308
2.4485268592834473	10903678.229584975
2.451270818710327	10928112.84249174
2.454014539718628	10170729.051621405
2.4567582607269287	9840443.808638498
2.4595019817352295	9820198.75509399
2.4622461795806885	10917722.799762057
2.4649908542633057	12351289.3777987
2.4677364826202393	11398849.280251566
2.4704833030700684	8432930.009072931
2.473231554031372	5656865.113370825
2.4759814739227295	4115956.7785481364
2.4787333011627197	3603215.6562036006
