#wavelength	surface flux
0.6450077295303345	274.6297029259538
0.6472567915916443	416.1212981705974
0.6494921445846558	506.09003505406514
0.6517150402069092	535.4660216724393
0.6539263725280762	562.3033820863088
0.6561272740364075	590.053090950609
0.6583186388015747	618.8890383350229
0.6605015397071838	648.9345806980651
0.6626768708229065	680.1238206316868
0.6648455858230591	712.3689190466729
0.6670085787773132	745.6199151869698
0.6691668033599854	779.7589915007421
0.6713210344314575	815.4139754186585
0.6734722256660461	853.1004733954943
0.6756211519241333	892.085136370706
0.6777685880661011	932.1104083292231
0.6799154281616211	973.558161975624
0.6820623278617859	1016.5529911690592
0.6842101216316223	1061.167753483058
0.6863595843315125	1107.4677709521286
0.688511312007904	1155.3177652137406
0.6906660795211792	1204.0904542982896
0.6928245425224304	1254.4992718009191
0.6949873566627502	1308.6124813494137
0.6971551775932312	1365.4439217244683
0.6993286609649658	1423.204049254524
0.7015084028244019	1482.5897371643262
0.7036949396133423	1544.968974886693
0.7058889269828796	1610.2656982402732
0.7080909013748169	1677.263393465736
0.710301399230957	1746.4949939247347
0.712520956993103	1818.7789581937502
0.7147500514984131	1892.7488694165606
0.7169892191886902	1968.2921226338274
0.7192389369010925	2048.4102568134367
0.7214996814727783	2131.833455536504
0.723771870136261	2216.149518349922
0.7260559797286987	2303.550613120595
0.7283523678779602	2395.3143815015405
0.7306615710258484	2493.2974818597536
0.7329838871955872	2598.483588777357
0.7353196740150452	2707.0402055800946
0.7376693487167358	2818.5429498825383
0.7400332689285278	2934.2385395666774
0.7424117922782898	3052.822479470096
0.7448052167892456	3175.642878869231
0.7472138404846191	3302.8909634867678
0.7496379613876343	3432.8103819082803
0.7520779371261597	3563.497416873494
0.7545340061187744	3690.8567940093567
0.7570064663887024	3804.632458071967
0.7594954967498779	3863.572475093372
0.7620013952255249	3656.465501646802
0.7645244002342224	2843.7590039133424
0.7670646905899048	1848.2919955639766
0.7696225643157959	1801.90462040091
0.7721980810165405	3054.7875878746913
0.7747915983200073	4457.936085253587
0.7774031162261963	5133.5375282676
0.7800329327583313	5442.195619883564
0.7826811671257019	5710.722196167199
0.7853479981422424	5976.005787305985
0.7880334854125977	6235.6203351541535
0.7907378077507019	6453.945426822313
0.7934610247612	6579.2815356134
0.7962033748626709	6807.782279494501
0.7989648580551147	7232.359465522596
0.801745593547821	7621.255384634967
0.8045456409454346	7935.906445393033
0.8073651194572449	8251.817725060335
0.8102040886878967	8565.945467209734
0.8130625486373901	8894.562739387924
0.8159406185150146	9260.710900863123
0.8188382983207703	9645.360497869688
0.8217556476593018	10028.082576282613
0.8246926665306091	10426.13363580768
0.8276493549346924	10843.072310381629
0.8306257724761963	11268.868154445448
0.8336219191551208	11711.972177955337
0.8366377949714661	12171.997488500674
0.8396733403205872	12660.967807230281
0.8427285552024841	13188.88500620745
0.8458034992218018	13731.678763397174
0.8488980531692505	14282.340666505888
0.8520121574401855	14851.168932633458
0.8551458716392517	15440.831978346601
0.8582990765571594	16049.199248223526
0.8614717125892639	16674.907605111206
0.8646637797355652	17321.78313812087
0.8678751587867737	17995.37181817413
0.8711057901382446	18698.22578990676
0.8743556141853333	19419.708004168948
0.87762451171875	20147.5323527569
0.8809124231338501	20888.61839452602
0.8842192888259888	21654.566600089336
0.8875449895858765	22443.18542292333
0.8908893465995789	23227.488681762883
0.894252359867096	24037.21120818786
0.8976338505744934	24988.735293888352
0.9010337591171265	26055.200514266224
0.9044519662857056	27108.348297204437
0.9078882932662964	28141.32997143468
0.9113426208496094	29189.76749164805
0.914814829826355	30223.7275614197
0.9183048605918884	31305.305032600274
0.9218124747276306	32430.112823895583
0.925337553024292	33127.40955187005
0.9288799166679382	33286.05915357321
0.9324395060539246	33885.990046613224
0.9360161423683167	35428.982075935506
0.9396095871925354	37231.50978849506
0.943219780921936	38407.70937407938
0.9468464851379395	39353.432434837196
0.9504896402359009	40903.48676248496
0.9541489481925964	42766.94298236393
0.9578243494033813	44327.35676411116
0.9615156054496765	45477.34872831366
0.9652225375175476	46943.00392751215
0.9689450263977051	49185.28038953998
0.9726828336715698	51824.93785614269
0.9764357805252075	54162.64454619048
0.9802037477493286	56231.08446231128
0.983986496925354	58399.85481479196
0.9877838492393494	60660.00193268319
0.9915955662727356	62997.12204166205
0.9954215884208679	65336.536095683696
0.9992615580558777	67653.96400360814
1.0031154155731201	69978.75574068227
1.0069829225540161	72379.78128431192
1.0108637809753418	74885.46617592298
1.0147579908370972	77459.94055999815
1.018665075302124	80042.53863253756
1.022585153579712	82561.89854816483
1.0265177488327026	85044.74959685653
1.0304628610610962	87700.53771715147
1.0344202518463135	90694.79093592704
1.0383895635604858	93796.98290099151
1.0423706769943237	96837.76227756905
1.0463634729385376	99890.89002435278
1.0503677129745483	102985.85962422281
1.0543830394744873	106190.68686256929
1.058409333229065	109489.91894996598
1.0624464750289917	112824.0892394321
1.0664942264556885	116200.01765964463
1.0705522298812866	119656.38744037894
1.0746204853057861	123254.16747908757
1.0786986351013184	126978.07240090038
1.0827864408493042	130753.11594388778
1.086883783340454	134489.83860502663
1.0909905433654785	138145.03264992902
1.0951062440872192	141429.25478801868
1.0992310047149658	142894.56021816793
1.10336434841156	142744.33206642492
1.1075061559677124	144529.21600721832
1.1116561889648438	146523.5738975922
1.115814208984375	145915.1210804979
1.1199802160263062	146187.76342043513
1.124153733253479	150693.0892310057
1.1283347606658936	156417.55177365284
1.1325229406356812	157856.43395129428
1.1367181539535522	163086.2013277688
1.1409201622009277	175131.94523782269
1.145128846168518	183377.99054922216
1.1493438482284546	180350.75404017317
1.1535650491714478	171655.25576724927
1.1577922105789185	173226.8795289547
1.1620250940322876	186065.47735226084
1.1662636995315552	201216.9943753247
1.170507550239563	213039.59671837074
1.174756646156311	223323.438100833
1.1790107488632202	234236.339908776
1.1832695007324219	243180.32734045375
1.1875330209732056	250534.22078267232
1.191800832748413	257795.47474826206
1.1960728168487549	265314.3810018951
1.2003488540649414	272422.4132346614
1.2046287059783936	279165.7206461103
1.2089121341705322	286060.5704252325
1.2131990194320679	293113.81766639167
1.2174891233444214	300271.0685381715
1.2217823266983032	307510.98389031604
1.2260783910751343	314733.22060593596
1.230377197265625	321848.31995880784
1.2346785068511963	328969.69418632286
1.238982081413269	336392.1128382791
1.2432878017425537	344036.5473238387
1.2475954294204712	351749.29650305107
1.2519049644470215	359594.00269498845
1.256216049194336	367513.49621260824
1.2605286836624146	375291.862851651
1.2648425102233887	382989.8723487618
1.2691574096679688	390753.3314225954
1.2734732627868652	398695.1533117293
1.2777899503707886	406748.4081497111
1.2821072340011597	414674.43668401364
1.2864248752593994	422213.0579355622
1.2907428741455078	429449.79634177196
1.2950609922409058	437309.144457501
1.2993791103363037	445292.1464242985
1.303696870803833	452572.0304638986
1.3080145120620728	459946.8853609925
1.3123314380645752	468350.1222909014
1.3166478872299194	478284.2829593026
1.3209635019302368	485847.7311408364
1.3252781629562378	487204.66197769274
1.3295916318893433	477181.62030449783
1.3339040279388428	440613.11991898855
1.3382149934768677	368052.2361119851
1.3425244092941284	317613.8965700629
1.3468321561813354	315017.6417747053
1.3511382341384888	275046.6248028435
1.3554422855377197	217057.99443420157
1.3597444295883179	201420.94687363203
1.3640443086624146	213732.09150389011
1.3683418035507202	253028.30750299277
1.3726370334625244	332110.8727554801
1.3769296407699585	391650.2390991442
1.381219506263733	325054.8281907882
1.3855066299438477	222126.7959325508
1.3897908926010132	199562.27118065718
1.3940720558166504	209806.1219022412
1.3983501195907593	237772.93328493417
1.4026249647140503	317014.86326573516
1.4068963527679443	376683.96802062786
1.4111642837524414	333280.31179773837
1.4154287576675415	304778.4257428816
1.419689416885376	326959.0162524864
1.4239463806152344	326996.90137250395
1.4281994104385376	353268.4936409431
1.4324485063552856	377509.00319150457
1.436693549156189	385193.6531747487
1.440934419631958	436341.51501199254
1.4451709985733032	530111.0868725164
1.449403166770935	627104.4851877755
1.453631043434143	682134.0897254501
1.4578542709350586	705114.3085402263
1.4620729684829712	725441.628511603
1.4662868976593018	731012.6720895853
1.4704961776733398	720413.6475118224
1.4747005701065063	717407.6987914055
1.4788999557495117	733560.2542566219
1.4830944538116455	776659.3979378971
1.4872838258743286	826536.2962811743
1.491468071937561	850400.2876688999
1.4956470727920532	854572.5096826572
1.4998208284378052	869179.5599511835
1.5039892196655273	893806.2403473605
1.5081522464752197	910310.9435669099
1.5123097896575928	928556.747699671
1.5164618492126465	953325.7601018326
1.5206083059310913	978532.8239105546
1.5247491598129272	999251.106579172
1.5288842916488647	1013451.0344984322
1.5330137014389038	1028167.0105413961
1.5371372699737549	1044488.9684799294
1.541254997253418	1057622.959770841
1.545366883277893	1070735.339871719
1.5494728088378906	1086052.939880982
1.5535727739334106	1098916.5735696491
1.5576666593551636	1107617.7636058426
1.561754584312439	1119360.4102321898
1.5658363103866577	1137351.3113779991
1.5699119567871094	1153134.3503553986
1.5739814043045044	1156978.3572051895
1.5780447721481323	1150931.6499829295
1.582101821899414	1163066.2093356801
1.5861525535583496	1196307.3377798682
1.5901970863342285	1219109.3476333676
1.5942351818084717	1228471.1924480607
1.5982669591903687	1234152.733288167
1.6022924184799194	1242302.2319348913
1.606311559677124	1256396.6607916052
1.6103241443634033	1267166.9767605453
1.6143304109573364	1271942.2395234217
1.6183301210403442	1273940.7980944738
1.6223233938217163	1271888.6178228995
1.6263102293014526	1265697.8872615122
1.6302905082702637	1258595.8495653735
1.634264349937439	1277220.3862483473
1.638231635093689	1325877.0702519352
1.6421923637390137	1356679.239823
1.646146535873413	1346577.1571697765
1.6500942707061768	1335176.4767103624
1.6540353298187256	1360820.6396682367
1.6579699516296387	1393068.8317681
1.661897897720337	1379128.7203879554
1.6658192873001099	1314568.816632735
1.6697341203689575	1304111.7278747375
1.6736423969268799	1378151.5488153843
1.677544116973877	1421149.4500678212
1.6814392805099487	1422784.77331799
1.6853278875350952	1427129.022395306
1.6892099380493164	1426611.4967673712
1.6930854320526123	1404820.9290610582
1.696954369544983	1371221.0034041337
1.7008168697357178	1366578.7867815855
1.7046726942062378	1392154.9038539028
1.708522081375122	1432423.2086351758
1.712364912033081	1476520.8106104857
1.7162011861801147	1516397.2187080637
1.7200311422348022	1550595.5914890275
1.723854422569275	1566125.3822232985
1.7276713848114014	1568689.4705973458
1.731481909751892	1568383.6468555522
1.7352858781814575	1569696.1072712506
1.7390835285186768	1579511.8006859233
1.7428747415542603	1588640.1109669534
1.7466596364974976	1585080.6204285556
1.7504380941390991	1568645.8465564987
1.7542102336883545	1558685.0199217668
1.7579760551452637	1594933.2758800704
1.7617355585098267	1634828.0772506935
1.7654887437820435	1619181.353099604
1.7692357301712036	1556211.140045456
1.7729763984680176	1425361.9651097483
1.776710867881775	1250858.3897920302
1.7804391384124756	1176215.2655795428
1.7841613292694092	1170457.5371491208
1.7878772020339966	1119317.2548638184
1.7915871143341064	1139933.385093153
1.7952908277511597	1195726.021514424
1.7989884614944458	1095520.8901581333
1.8026801347732544	844648.1794488934
1.806365728378296	599438.7292627103
1.8100452423095703	587829.6768837018
1.8137187957763672	684233.785847908
1.817386507987976	640524.9643180639
1.8210482597351074	737025.2908861535
1.8247040510177612	807537.1571502512
1.828354001045227	583234.3204605726
1.8319982290267944	542999.2971243911
1.8356364965438843	754490.3402348625
1.8392690420150757	939881.9742313034
1.8428958654403687	1034512.651582752
1.8465168476104736	1062814.1668961805
1.8501322269439697	1007231.3461963565
1.8537418842315674	804217.9481873771
1.8573459386825562	726555.7829433158
1.860944390296936	744385.9175478078
1.864537239074707	610750.013102393
1.8681244850158691	616474.6961793369
1.871706247329712	871735.8776182887
1.8752825260162354	1140859.0033212882
1.8788533210754395	1380286.7903478304
1.8824186325073242	1568668.3145924332
1.8859784603118896	1531418.2574091938
1.8895330429077148	1389490.752751542
1.8930821418762207	1431301.7193013467
1.8966259956359863	1359313.5212684758
1.9001644849777222	913406.249754427
1.9036977291107178	569051.7589858664
1.9072256088256836	611288.2674973632
1.9107483625411987	624897.2148754627
1.9142658710479736	450359.9226555386
1.9177782535552979	470665.24681669386
1.9212853908538818	655174.6589697521
1.9247875213623047	688264.1683723064
1.9282845258712769	724091.2961618713
1.9317764043807983	910635.9553808543
1.9352631568908691	1012015.4421784162
1.9387450218200684	1002876.4780921825
1.942221760749817	1090592.5488618193
1.9456936120986938	1175485.0594074794
1.9491604566574097	1174682.9865679846
1.952622413635254	1108840.7687529959
1.956079363822937	1046206.8766957126
1.959531545639038	1131154.4298271534
1.962978720664978	1245165.7614258279
1.966421127319336	1414384.3800789262
1.9698586463928223	1678039.2184133553
1.9732913970947266	1825273.9390970087
1.9767193794250488	1885203.0848633135
1.9801424741744995	1999995.1068418985
1.9835609197616577	2099670.0737405587
1.9869745969772339	2092620.5722258138
1.990383505821228	2013108.5767680176
1.9937876462936401	2016363.5154983236
1.9971871376037598	2055801.9604979109
2.000581979751587	2091374.6648826785
2.003972291946411	2218251.8492046497
2.007357597351074	2337672.991465661
2.0107386112213135	2405915.593332045
2.0141148567199707	2421352.4430458066
2.017486572265625	2388487.796324727
2.0208535194396973	2424700.4968337202
2.0242159366607666	2507446.1616009655
2.027573823928833	2544815.744759795
2.0309269428253174	2565930.25949996
2.034275770187378	2601265.0242753234
2.0376198291778564	2632217.871860346
2.040959596633911	2653971.664450797
2.044294595718384	2679184.008087213
2.0476250648498535	2703455.8828842426
2.0509510040283203	2711008.10930958
2.054272413253784	2713197.15699267
2.057589530944824	2729223.0546109653
2.0609018802642822	2749705.402988536
2.0642096996307373	2765223.8407804207
2.0675129890441895	2778560.9815180716
2.0708119869232178	2791829.722932928
2.074106216430664	2802668.330215372
2.0773961544036865	2811120.408605724
2.080681324005127	2821522.203736825
2.0839622020721436	2831197.009248698
2.087238311767578	2840117.922212563
2.090510129928589	2849690.8782821675
2.0937774181365967	2857592.2004786436
2.0970399379730225	2866008.8876133966
2.1002981662750244	2874357.938021103
2.1035518646240234	2880139.336861468
2.1068007946014404	2885159.179108752
2.1100454330444336	2893151.652604228
2.1132853031158447	2899939.782919722
2.116520881652832	2899527.2150797797
2.1197516918182373	2899336.32094924
2.1229779720306396	2905900.387446869
2.12619948387146	2916400.3381010774
2.1294167041778564	2926067.9779387997
2.132629156112671	2934584.0806047944
2.1358368396759033	2935109.623887842
2.139039993286133	2927189.061835171
2.1422386169433594	2915929.9142185617
2.145432472229004	2904664.116711823
2.1486217975616455	2896392.952695321
2.151806354522705	2883377.426977345
2.1549863815307617	2888416.2872915715
2.1581614017486572	2900994.719792892
2.16133189201355	2888310.906866192
2.1644976139068604	2880373.9026242597
2.167658567428589	2893304.657401511
2.1708147525787354	2920109.767973458
2.173966407775879	2947713.947124877
2.1771130561828613	2960972.3453263147
2.1802549362182617	2958741.0627186354
2.183391809463501	2943387.759136196
2.1865241527557373	2920319.950825163
2.1896514892578125	2878838.2887450317
2.1927738189697266	2766589.357068403
2.1958916187286377	2554712.768461047
2.1990041732788086	2325946.661348985
2.2021119594573975	2210590.541993737
2.2052149772644043	2232012.3623776156
2.208312749862671	2327682.270256509
2.2114057540893555	2432623.1820755354
2.214493751525879	2479988.9790849746
2.217576742172241	2447737.748335166
2.2206547260284424	2401624.279950271
2.2237277030944824	2370429.2944676788
2.2267956733703613	2278191.9847599
2.2298583984375	2127551.275354767
2.2329163551330566	2015768.6247195753
2.235969066619873	1973453.9182718112
2.2390167713165283	1929530.31740399
2.2420592308044434	1810281.2639271892
2.2450966835021973	1684343.6447423368
2.248128890991211	1717822.5607106315
2.2511560916900635	1861004.999910267
2.254178285598755	1939866.607858939
2.257194995880127	1982241.9689779102
2.260206699371338	1977230.7005337556
2.2632133960723877	1858078.7345926915
2.266214609146118	1721795.2415642038
2.2692108154296875	1689005.2031687405
2.2722020149230957	1791533.071819877
2.2751877307891846	1912260.812017486
2.278168201446533	1916219.3096361642
2.2811436653137207	1846402.2646160608
2.284113883972168	1796226.4771555162
2.287078857421875	1742374.1680185958
2.290038824081421	1674953.1130813158
2.2929933071136475	1660227.3048277039
2.295942783355713	1690263.6092357184
2.298887014389038	1712795.320504837
2.301826238632202	1746833.7336103308
2.304760217666626	1855100.644017414
2.3076889514923096	2035008.7172533923
2.310612440109253	2174276.084076335
2.3135311603546143	2074883.913433881
2.3164443969726562	1685699.8249251174
2.319352865219116	1347675.161173027
2.322256088256836	1304659.181182799
2.3251543045043945	1354800.8616040307
2.328047275543213	1351652.6497674254
2.330935478210449	1355754.7558098407
2.3338186740875244	1365282.2484894644
2.3366971015930176	1355067.31917087
2.3395702838897705	1342040.951876865
2.3424389362335205	1305063.8752166813
2.3453025817871094	1236834.510594778
2.348161458969116	1206648.9282498374
2.351015567779541	1302270.3662494207
2.353865146636963	1498646.9571327965
2.3567099571228027	1656503.3388126232
2.3595502376556396	1755878.9102520715
2.3623859882354736	1847910.7292808348
2.3652172088623047	1789671.8855272387
2.368043899536133	1448556.3989953236
2.370866537094116	1078537.3163292066
2.3736846446990967	1030624.4923935984
2.3764986991882324	1173711.5532784509
2.3793084621429443	1269547.911974201
2.3821144104003906	1375110.7196115388
2.384916305541992	1557955.7100214628
2.387714147567749	1710228.4603851817
2.3905084133148193	1715238.6193072745
2.393299102783203	1673533.5937978886
2.3960859775543213	1675683.0449515122
2.398869514465332	1704634.4119292642
2.4016497135162354	1697823.8851441042
2.4044265747070312	1671225.306345957
2.407200336456299	1773043.9410804827
2.409970998764038	1983268.2386168803
2.4127390384674072	2117630.1941805133
2.415503978729248	2164486.817349007
2.418266534805298	2261995.782336162
2.4210267066955566	2355488.7672120384
2.4237842559814453	2283919.9418039294
2.426539897918701	2175308.324286672
2.429293394088745	2263518.925176375
2.4320452213287354	2455148.306977812
2.4347951412200928	2526532.2463847618
2.4375438690185547	2504511.659460534
2.440291166305542	2515502.2104909876
2.443037271499634	2500142.90172281
2.445782423019409	2353765.293456773
2.4485268592834473	2143308.3543951893
2.451270818710327	2085069.5679244497
2.454014539718628	2271316.414729173
2.4567582607269287	2437546.3648776263
2.4595019817352295	2421761.3130716807
2.4622461795806885	2479027.48543531
2.4649908542633057	2524421.0092257815
2.4677364826202393	2269066.418072447
2.4704833030700684	1879511.0841796575
2.473231554031372	1553306.2515511224
2.4759814739227295	1306132.810351383
2.4787333011627197	1203547.7809090952
