#wavelength	surface flux
0.6450077295303345	4131.6140148439235
0.6472567915916443	6478.414843792322
0.6494921445846558	8416.71992587309
0.6517150402069092	9641.890731067218
0.6539263725280762	10900.668343987078
0.6561272740364075	12242.50990318354
0.6583186388015747	13680.67797986891
0.6605015397071838	15226.44275939733
0.6626768708229065	16889.837411616536
0.6648455858230591	18656.958589360405
0.6670085787773132	20111.23301806726
0.6691668033599854	20373.668407017016
0.6713210344314575	21248.119181155573
0.6734722256660461	24906.794179535696
0.6756211519241333	28975.32014851718
0.6777685880661011	31840.274377323847
0.6799154281616211	34429.60253761751
0.6820623278617859	37038.57087490316
0.6842101216316223	39680.880448109216
0.6863595843315125	42337.842075876506
0.688511312007904	44924.03641099929
0.6906660795211792	47173.97947412401
0.6928245425224304	49135.56686287288
0.6949873566627502	51577.33601859163
0.6971551775932312	54367.62569219013
0.6993286609649658	56752.62428701412
0.7015084028244019	58883.946336127854
0.7036949396133423	60778.5851930887
0.7058889269828796	62205.84742272315
0.7080909013748169	63221.978889362865
0.710301399230957	63979.28468464119
0.712520956993103	64343.74320902456
0.7147500514984131	63900.015365114115
0.7169892191886902	62618.79231051972
0.7192389369010925	60833.330497899056
0.7214996814727783	58472.840632483356
0.723771870136261	55304.79607067998
0.7260559797286987	51703.31196917266
0.7283523678779602	47945.13777328581
0.7306615710258484	44991.53822547628
0.7329838871955872	43199.46657206636
0.7353196740150452	40400.36184004425
0.7376693487167358	36157.32392663191
0.7400332689285278	31717.536751735133
0.7424117922782898	27396.248992851302
0.7448052167892456	23389.261555416142
0.7472138404846191	19617.5667553579
0.7496379613876343	15998.671962482325
0.7520779371261597	12671.275509274972
0.7545340061187744	9697.39246565605
0.7570064663887024	7101.0167501337855
0.7594954967498779	4879.337018704011
0.7620013952255249	2990.800210971559
0.7645244002342224	1489.1723326335468
0.7670646905899048	641.068406263163
0.7696225643157959	679.967722226491
0.7721980810165405	1813.565171220455
0.7747915983200073	4022.7392607275247
0.7774031162261963	6779.019276888153
0.7800329327583313	10233.485702652852
0.7826811671257019	15604.396960311095
0.7853479981422424	22904.513087712327
0.7880334854125977	31204.092118124434
0.7907378077507019	37246.88148590333
0.7934610247612	38808.31786479315
0.7962033748626709	50523.10565945077
0.7989648580551147	77736.0402819692
0.801745593547821	104700.90321577045
0.8045456409454346	128504.12636439364
0.8073651194572449	152885.3678389092
0.8102040886878967	177333.66219974455
0.8130625486373901	206598.86406816565
0.8159406185150146	244732.9577779898
0.8188382983207703	289803.9465464556
0.8217556476593018	340429.5496978346
0.8246926665306091	392498.0896630998
0.8276493549346924	442313.8314343539
0.8306257724761963	499433.17744466756
0.8336219191551208	571736.5335098098
0.8366377949714661	646204.7675598684
0.8396733403205872	720010.6295408504
0.8427285552024841	805557.9974610213
0.8458034992218018	895330.8510560831
0.8488980531692505	933059.1611068906
0.8520121574401855	951842.4241844318
0.8551458716392517	1117175.7159926365
0.8582990765571594	1365990.216455147
0.8614717125892639	1547623.4656781866
0.8646637797355652	1705372.9061857
0.8678751587867737	1885813.2040297575
0.8711057901382446	2083402.8913560018
0.8743556141853333	2281368.3132803054
0.87762451171875	2466577.484670805
0.8809124231338501	2620486.337852097
0.8842192888259888	2748328.16598009
0.8875449895858765	2842472.739565242
0.8908893465995789	2740355.1023450266
0.894252359867096	2536539.5127020054
0.8976338505744934	2885340.855992948
0.9010337591171265	3784734.9874027986
0.9044519662857056	4569463.012792624
0.9078882932662964	5051920.226313237
0.9113426208496094	5307140.395627759
0.914814829826355	5390672.887519328
0.9183048605918884	5522839.805475559
0.9218124747276306	5422582.60631481
0.925337553024292	4294491.673867498
0.9288799166679382	2994096.859145712
0.9324395060539246	2706527.9786616415
0.9360161423683167	2992237.7137268707
0.9396095871925354	3241447.369254998
0.943219780921936	3149179.4008578607
0.9468464851379395	2652623.844755925
0.9504896402359009	2894460.090917128
0.9541489481925964	4248551.251472791
0.9578243494033813	4684604.153519841
0.9615156054496765	3626807.7702229116
0.9652225375175476	2834113.3713384476
0.9689450263977051	3898727.653729655
0.9726828336715698	6116897.649958696
0.9764357805252075	7270441.843809101
0.9802037477493286	7852364.630076525
0.983986496925354	9347783.54520555
0.9877838492393494	10982211.48387284
0.9915955662727356	12120867.403933242
0.9954215884208679	12954771.178820498
0.9992615580558777	13180568.9139234
1.0031154155731201	13231151.473689146
1.0069829225540161	14298150.692226272
1.0108637809753418	16341339.955352763
1.0147579908370972	18442784.525204163
1.018665075302124	19890545.58564602
1.022585153579712	20524720.633271515
1.0265177488327026	21165162.389844652
1.0304628610610962	22478401.89164745
1.0344202518463135	23978281.749802537
1.0383895635604858	25174211.57711297
1.0423706769943237	26085162.921284206
1.0463634729385376	26559244.537103303
1.0503677129745483	26986385.576758422
1.0543830394744873	28121391.908530336
1.058409333229065	29488477.466844466
1.0624464750289917	30380362.884171907
1.0664942264556885	30495859.34175251
1.0705522298812866	30131143.671047125
1.0746204853057861	30096699.2655044
1.0786986351013184	30101704.4755
1.0827864408493042	30003464.54094103
1.086883783340454	28207201.414132398
1.0909905433654785	23099311.860723056
1.0951062440872192	17695047.842263952
1.0992310047149658	12357247.050471572
1.10336434841156	6441911.255709148
1.1075061559677124	3577204.962807297
1.1116561889648438	2908670.7307251473
1.115814208984375	2032429.444001203
1.1199802160263062	1793215.780127157
1.124153733253479	1955136.0336479428
1.1283347606658936	1663152.240411238
1.1325229406356812	1347957.210708618
1.1367181539535522	2353321.188265868
1.1409201622009277	4258289.148911463
1.145128846168518	5105233.05646206
1.1493438482284546	4114737.6866470748
1.1535650491714478	2388782.6712516523
1.1577922105789185	1616441.7981871332
1.1620250940322876	1931280.481223665
1.1662636995315552	3101739.603702962
1.170507550239563	4803641.088896959
1.174756646156311	7134943.727581789
1.1790107488632202	10303176.219190547
1.1832695007324219	12031487.495437402
1.1875330209732056	11781356.718969436
1.191800832748413	14671075.533244625
1.1960728168487549	20751439.36525905
1.2003488540649414	24701146.062874407
1.2046287059783936	26604781.476624306
1.2089121341705322	27659025.671691574
1.2131990194320679	29024617.404481184
1.2174891233444214	32156765.478572
1.2217823266983032	35145755.90068119
1.2260783910751343	37323797.192532055
1.230377197265625	39642737.98668753
1.2346785068511963	41406540.061823376
1.238982081413269	42274736.03748531
1.2432878017425537	43226314.06032652
1.2475954294204712	44329083.78422965
1.2519049644470215	45032459.4665424
1.256216049194336	47635227.37007708
1.2605286836624146	49655512.060223535
1.2648425102233887	48375331.89100049
1.2691574096679688	48583634.76085937
1.2734732627868652	51022372.22506428
1.2777899503707886	50205862.93305759
1.2821072340011597	45977517.986694
1.2864248752593994	43939606.387768574
1.2907428741455078	43383820.164409906
1.2950609922409058	41542338.50023449
1.2993791103363037	35375792.94179857
1.303696870803833	29498262.856922213
1.3080145120620728	28496855.46104523
1.3123314380645752	29181500.33165032
1.3166478872299194	31058029.776089504
1.3209635019302368	28087586.52920245
1.3252781629562378	20578655.07497345
1.3295916318893433	13268071.05216523
1.3339040279388428	5892987.987445176
1.3382149934768677	1498256.5651934282
1.3425244092941284	502587.81306078203
1.3468321561813354	319273.72997002624
1.3511382341384888	234203.74611879134
1.3554422855377197	154824.2177442406
1.3597444295883179	165651.97754323605
1.3640443086624146	243676.32786970751
1.3683418035507202	231292.3009373266
1.3726370334625244	177249.25610527451
1.3769296407699585	226902.89271927625
1.381219506263733	227157.20396327277
1.3855066299438477	126426.1055823468
1.3897908926010132	140284.54914936773
1.3940720558166504	254724.25542062797
1.3983501195907593	239776.7396166893
1.4026249647140503	211561.10994307845
1.4068963527679443	255075.56176851358
1.4111642837524414	211686.34030464274
1.4154287576675415	159862.10226063454
1.419689416885376	155129.33179980994
1.4239463806152344	158168.17151739125
1.4281994104385376	123894.27522489964
1.4324485063552856	100509.44030923772
1.436693549156189	221406.6005425246
1.440934419631958	551134.8197636958
1.4451709985733032	1173263.8532030394
1.449403166770935	1900107.5285562288
1.453631043434143	2039176.235992429
1.4578542709350586	1969398.022606087
1.4620729684829712	2622723.9817866567
1.4662868976593018	3212131.0991276866
1.4704961776733398	2202028.406309157
1.4747005701065063	858303.7911805598
1.4788999557495117	1211806.4566519295
1.4830944538116455	2509964.601783233
1.4872838258743286	2836913.662738989
1.491468071937561	2128601.6113226986
1.4956470727920532	2361645.843956672
1.4998208284378052	4061254.0709829205
1.5039892196655273	4833634.923249977
1.5081522464752197	3862392.8139906204
1.5123097896575928	3877253.370435262
1.5164618492126465	6273155.718239326
1.5206083059310913	9307554.142319443
1.5247491598129272	10799597.88938356
1.5288842916488647	11223909.855625158
1.5330137014389038	12255008.9862254
1.5371372699737549	13323907.834052661
1.541254997253418	13538787.980865255
1.545366883277893	14412559.802518543
1.5494728088378906	15879181.902608939
1.5535727739334106	16973424.626178246
1.5576666593551636	18357683.02854474
1.561754584312439	20396842.334718358
1.5658363103866577	22547371.811595738
1.5699119567871094	23549326.480068114
1.5739814043045044	23128014.622318298
1.5780447721481323	23145960.74006409
1.582101821899414	24532013.47478314
1.5861525535583496	25775811.948981665
1.5901970863342285	25172833.23097679
1.5942351818084717	22999448.092104472
1.5982669591903687	21507906.9583279
1.6022924184799194	20501625.30992091
1.606311559677124	18973670.57432621
1.6103241443634033	18315204.889058292
1.6143304109573364	16957971.325148206
1.6183301210403442	13989533.466516761
1.6223233938217163	11739722.436561922
1.6263102293014526	10536429.302566359
1.6302905082702637	10896285.09911234
1.634264349937439	13210380.492532304
1.638231635093689	15714587.504057484
1.6421923637390137	15909810.109668784
1.646146535873413	12323714.049217617
1.6500942707061768	9253740.130972391
1.6540353298187256	10072222.491885273
1.6579699516296387	11231698.319203872
1.661897897720337	10549769.675579911
1.6658192873001099	7382941.716150353
1.6697341203689575	4461241.164275945
1.6736423969268799	4844183.7989002755
1.677544116973877	5500106.226554682
1.6814392805099487	5200369.211671451
1.6853278875350952	4636543.594288659
1.6892099380493164	3833852.5425475533
1.6930854320526123	3295588.6431136075
1.696954369544983	2722932.3136707568
1.7008168697357178	2249664.53504822
1.7046726942062378	2203834.1491898946
1.708522081375122	2780680.4099595915
1.712364912033081	3384496.8610612056
1.7162011861801147	3673830.3953906596
1.7200311422348022	4275051.7991642775
1.723854422569275	4320039.754798045
1.7276713848114014	3522089.739140324
1.731481909751892	3092773.6663581515
1.7352858781814575	3221208.442998955
1.7390835285186768	3551132.4789580805
1.7428747415542603	3698642.5098765464
1.7466596364974976	3064555.5822975202
1.7504380941390991	2199758.062047195
1.7542102336883545	2326149.432560866
1.7579760551452637	3095681.834327641
1.7617355585098267	3412483.1078998814
1.7654887437820435	3032857.222272466
1.7692357301712036	2218522.1369539085
1.7729763984680176	1451829.4692554527
1.776710867881775	935029.7615934241
1.7804391384124756	733184.465873583
1.7841613292694092	750889.0066322547
1.7878772020339966	795899.5579031274
1.7915871143341064	1134600.4120964736
1.7952908277511597	1394372.5091987124
1.7989884614944458	1165128.0468124924
1.8026801347732544	817813.3449804678
1.806365728378296	678089.59426216
1.8100452423095703	626222.5539253218
1.8137187957763672	473229.9188876776
1.817386507987976	307158.33009878034
1.8210482597351074	530410.398750619
1.8247040510177612	982079.5763890272
1.828354001045227	914457.3498327481
1.8319982290267944	484403.0692696815
1.8356364965438843	446428.5191237193
1.8392690420150757	843157.1877394025
1.8428958654403687	1161610.9292503675
1.8465168476104736	1072905.8035258835
1.8501322269439697	742134.0413113034
1.8537418842315674	577215.1031643976
1.8573459386825562	665465.8534476588
1.860944390296936	541130.7866085573
1.864537239074707	211234.23133484912
1.8681244850158691	75905.03142096111
1.871706247329712	150284.3949134124
1.8752825260162354	353034.4479065235
1.8788533210754395	552830.0897843349
1.8824186325073242	765174.4380545153
1.8859784603118896	1242094.3379506564
1.8895330429077148	1629398.0392910398
1.8930821418762207	1244558.8240484027
1.8966259956359863	706822.7375333564
1.9001644849777222	605367.0896053071
1.9036977291107178	530094.1633708224
1.9072256088256836	704064.2905124932
1.9107483625411987	938480.380750214
1.9142658710479736	646667.1914394712
1.9177782535552979	431543.22222681367
1.9212853908538818	407256.35551325895
1.9247875213623047	204816.51317299172
1.9282845258712769	118805.45720444951
1.9317764043807983	365311.7238388614
1.9352631568908691	809265.0104235301
1.9387450218200684	877197.0233515196
1.942221760749817	515275.61997078406
1.9456936120986938	271069.02721080295
1.9491604566574097	223825.5175274649
1.952622413635254	284209.31865444314
1.956079363822937	550944.1477150405
1.959531545639038	947192.3707461392
1.962978720664978	980843.2636591487
1.966421127319336	798970.7685591779
1.9698586463928223	949100.8758044532
1.9732913970947266	1159421.0699585518
1.9767193794250488	1294058.5132893415
1.9801424741744995	1491776.262484694
1.9835609197616577	1594478.6016365616
1.9869745969772339	1781491.140372784
1.990383505821228	1956425.0881639905
1.9937876462936401	1890110.662893033
1.9971871376037598	1535317.0428738296
2.000581979751587	1174795.4380064025
2.003972291946411	1527082.1353531976
2.007357597351074	2211662.57669379
2.0107386112213135	2533456.499463288
2.0141148567199707	2412081.542777125
2.017486572265625	2053520.938538358
2.0208535194396973	1924413.0388983535
2.0242159366607666	2018782.0355103398
2.027573823928833	2086637.3722398053
2.0309269428253174	2103063.864565856
2.034275770187378	2428833.16021994
2.0376198291778564	3182258.1584304874
2.040959596633911	3728736.9561982825
2.044294595718384	3861544.3643073956
2.0476250648498535	3780058.072052229
2.0509510040283203	3487912.3992775534
2.054272413253784	3285507.1462010485
2.057589530944824	3452886.2672665855
2.0609018802642822	3738658.084700037
2.0642096996307373	3904546.7701466484
2.0675129890441895	3948445.72541898
2.0708119869232178	3900228.147989182
2.074106216430664	3812891.2687825947
2.0773961544036865	3793492.152583088
2.080681324005127	3818310.6682150033
2.0839622020721436	3777038.2044400154
2.087238311767578	3691462.1168804606
2.090510129928589	3640876.228987047
2.0937774181365967	3625694.13172031
2.0970399379730225	3560004.416892699
2.1002981662750244	3401127.5791882724
2.1035518646240234	3291567.7827822976
2.1068007946014404	3299093.972491602
2.1100454330444336	3300073.104260046
2.1132853031158447	3208621.336066338
2.116520881652832	3003576.4380548685
2.1197516918182373	2780382.313751728
2.1229779720306396	2638419.7741386755
2.12619948387146	2541701.448596045
2.1294167041778564	2517744.880805519
2.132629156112671	2563259.7820893386
2.1358368396759033	2458951.7099217786
2.139039993286133	2264352.2409906103
2.1422386169433594	2108419.9192299577
2.145432472229004	1946798.572511015
2.1486217975616455	1806630.6673887072
2.151806354522705	1626702.1665165594
2.1549863815307617	1600083.1661306603
2.1581614017486572	1778242.2621226946
2.16133189201355	1868763.75950848
2.1644976139068604	1810685.3994693474
2.167658567428589	1606356.0070234595
2.1708147525787354	1466805.3167126966
2.173966407775879	1628860.7427845506
2.1771130561828613	1889808.0186012066
2.1802549362182617	1921977.2982118665
2.183391809463501	1712748.1262238552
2.1865241527557373	1504575.5440611509
2.1896514892578125	1381261.8091293396
2.1927738189697266	1173253.638657346
2.1958916187286377	776620.7525682286
2.1990041732788086	379577.5083626636
2.2021119594573975	200761.39292360237
2.2052149772644043	228638.20392518127
2.208312749862671	354487.72330203507
2.2114057540893555	515551.1068264673
2.214493751525879	607019.2370096685
2.217576742172241	504677.24305903533
2.2206547260284424	325530.1825481193
2.2237277030944824	235388.01963809392
2.2267956733703613	194290.4251831736
2.2298583984375	161019.16601467726
2.2329163551330566	146979.9443771832
2.235969066619873	156916.19627331794
2.2390167713165283	158680.2179379386
2.2420592308044434	133028.7724885591
2.2450966835021973	107904.47713547795
2.248128890991211	100851.08690205554
2.2511560916900635	110145.6959250837
2.254178285598755	153208.82535665203
2.257194995880127	245279.97650247495
2.260206699371338	260555.55179483825
2.2632133960723877	144671.57923582385
2.266214609146118	89235.05305950812
2.2692108154296875	184501.24013050913
2.2722020149230957	287043.1293817054
2.2751877307891846	263344.9029415108
2.278168201446533	186893.461127289
2.2811436653137207	172896.0720491418
2.284113883972168	177420.79539810817
2.287078857421875	135789.06673384306
2.290038824081421	91136.57732589057
2.2929933071136475	84358.55709884354
2.295942783355713	88080.05040877637
2.298887014389038	92068.79417220745
2.301826238632202	116799.93743590267
2.304760217666626	183497.52951942672
2.3076889514923096	293784.1112538997
2.310612440109253	425403.7458207639
2.3135311603546143	555444.9006084555
2.3164443969726562	538579.2725136802
2.319352865219116	303262.19490992825
2.322256088256836	110944.83014130252
2.3251543045043945	76392.97146064845
2.328047275543213	71648.64868258011
2.330935478210449	61030.47605356901
2.3338186740875244	50330.99377167385
2.3366971015930176	39094.271817478104
2.3395702838897705	31370.389388558695
2.3424389362335205	27686.0981557678
2.3453025817871094	24843.921617373457
2.348161458969116	24530.653293877884
2.351015567779541	46453.62913025875
2.353865146636963	115346.94382864794
2.3567099571228027	213145.10848548764
2.3595502376556396	291333.5851676427
2.3623859882354736	295379.98156973615
2.3652172088623047	198921.13301439813
2.368043899536133	83136.73583012019
2.370866537094116	30081.617271324034
2.3736846446990967	24500.099438835197
2.3764986991882324	29024.577406943674
2.3793084621429443	35903.56813933586
2.3821144104003906	58198.94164743768
2.384916305541992	93706.72171718306
2.387714147567749	108568.62426462854
2.3905084133148193	88962.15654995998
2.393299102783203	68338.28483903062
2.3960859775543213	58823.4932666689
2.398869514465332	61389.44965842824
2.4016497135162354	100768.6043155293
2.4044265747070312	187431.82988992124
2.407200336456299	257637.85455948728
2.409970998764038	248107.34924361078
2.4127390384674072	206668.90527994957
2.415503978729248	205001.2258553127
2.418266534805298	248292.72857957016
2.4210267066955566	282426.4012732149
2.4237842559814453	261645.47744033902
2.426539897918701	244954.88275760788
2.429293394088745	311663.02733885695
2.4320452213287354	389477.37290008157
2.4347951412200928	381159.5351203258
2.4375438690185547	359404.4161129712
2.440291166305542	398677.62236304826
2.443037271499634	415055.7330590918
2.445782423019409	370680.5688221422
2.4485268592834473	355996.7787017754
2.451270818710327	428944.332139846
2.454014539718628	537637.8936393914
2.4567582607269287	592786.974371035
2.4595019817352295	615391.8855475634
2.4622461795806885	699040.5936092093
2.4649908542633057	819713.4698224281
2.4677364826202393	841244.2326377344
2.4704833030700684	698217.1870412086
2.473231554031372	477388.42709436116
2.4759814739227295	307529.51821392425
2.4787333011627197	217020.43030528032
