#wavelength	surface flux
0.6450077295303345	24355.610160844953
0.6472567915916443	36711.40332337461
0.6494921445846558	44221.4286138843
0.6517150402069092	46233.930528470184
0.6539263725280762	47954.67271392858
0.6561272740364075	49692.80766223887
0.6583186388015747	51473.914345303754
0.6605015397071838	53309.66761856488
0.6626768708229065	55180.96333411286
0.6648455858230591	57078.05335778685
0.6670085787773132	58721.86073292814
0.6691668033599854	59531.99134667324
0.6713210344314575	60850.30761095935
0.6734722256660461	63982.802022928925
0.6756211519241333	67174.34150137228
0.6777685880661011	69553.65542904005
0.6799154281616211	71803.08065138725
0.6820623278617859	74105.33443686258
0.6842101216316223	76486.0738753791
0.6863595843315125	78906.31981437141
0.688511312007904	81330.70534633085
0.6906660795211792	83699.91090357881
0.6928245425224304	86148.98311139787
0.6949873566627502	88899.38874377702
0.6971551775932312	91771.84452616489
0.6993286609649658	94575.03288730969
0.7015084028244019	97385.43046013187
0.7036949396133423	100307.34970867712
0.7058889269828796	103346.0476703591
0.7080909013748169	106416.10315141646
0.710301399230957	109548.2727426
0.712520956993103	112758.6275435345
0.7147500514984131	115890.62500779846
0.7169892191886902	118976.5484936845
0.7192389369010925	122329.63812348022
0.7214996814727783	125869.66876924787
0.723771870136261	129373.95868991106
0.7260559797286987	132930.36462084032
0.7283523678779602	136561.18352278194
0.7306615710258484	140336.91298964949
0.7329838871955872	144349.70582498095
0.7353196740150452	148415.9590899073
0.7376693487167358	152501.6723424269
0.7400332689285278	156620.773425814
0.7424117922782898	160602.10704077297
0.7448052167892456	164476.95595659871
0.7472138404846191	168152.92672213746
0.7496379613876343	171311.38182456823
0.7520779371261597	173510.74895349267
0.7545340061187744	173902.86920846265
0.7570064663887024	170668.28941730046
0.7594954967498779	159234.79109254276
0.7620013952255249	129422.81067703037
0.7645244002342224	78169.16597012396
0.7670646905899048	34414.31811264153
0.7696225643157959	34830.939706055775
0.7721980810165405	86626.93985162908
0.7747915983200073	154319.5749214598
0.7774031162261963	197956.82045654923
0.7800329327583313	220133.7944447372
0.7826811671257019	237332.5095799317
0.7853479981422424	252456.9677364775
0.7880334854125977	264006.45602059085
0.7907378077507019	267857.62433776486
0.7934610247612	258238.004316498
0.7962033748626709	262144.89579074114
0.7989648580551147	290453.1933985288
0.801745593547821	311791.23778226844
0.8045456409454346	321853.4714555627
0.8073651194572449	330944.8496179761
0.8102040886878967	339517.3484637728
0.8130625486373901	348724.0221983687
0.8159406185150146	359542.6048009898
0.8188382983207703	370705.86117986654
0.8217556476593018	381319.29086332675
0.8246926665306091	392226.5292091232
0.8276493549346924	403459.8387447076
0.8306257724761963	414644.9110893915
0.8336219191551208	426155.6080673867
0.8366377949714661	437801.74036828004
0.8396733403205872	450209.2918491207
0.8427285552024841	463991.94204307214
0.8458034992218018	477988.45826661465
0.8488980531692505	491629.63378681237
0.8520121574401855	505436.7938511226
0.8551458716392517	519920.8783934183
0.8582990765571594	534433.429373791
0.8614717125892639	547938.0769025842
0.8646637797355652	561943.69705527
0.8678751587867737	577755.9519266485
0.8711057901382446	594106.9421469265
0.8743556141853333	610170.5622509785
0.87762451171875	626047.3142995317
0.8809124231338501	642455.6327377603
0.8842192888259888	659823.485494359
0.8875449895858765	676585.7905446705
0.8908893465995789	691105.0840474275
0.894252359867096	706228.6481327912
0.8976338505744934	726304.3551240192
0.9010337591171265	749422.4329236356
0.9044519662857056	771710.1397000467
0.9078882932662964	792814.4307334931
0.9113426208496094	813144.46286682
0.914814829826355	831781.913623146
0.9183048605918884	851023.414021706
0.9218124747276306	869749.8072812002
0.925337553024292	871233.0455530555
0.9288799166679382	856718.6069340234
0.9324395060539246	862377.6247218279
0.9360161423683167	897141.1920522611
0.9396095871925354	935837.1157186719
0.943219780921936	956435.2463117007
0.9468464851379395	969058.0609185765
0.9504896402359009	995505.777571591
0.9541489481925964	1029220.206431398
0.9578243494033813	1051332.2691429951
0.9615156054496765	1059059.3171100833
0.9652225375175476	1075559.8843656215
0.9689450263977051	1115844.4986332075
0.9726828336715698	1172324.6606587563
0.9764357805252075	1220716.7699347348
0.9802037477493286	1256669.792136288
0.983986496925354	1292429.7846590613
0.9877838492393494	1329994.3937496392
0.9915955662727356	1369284.5783804436
0.9954215884208679	1407236.9087264175
0.9992615580558777	1442897.5579363357
1.0031154155731201	1477822.346713255
1.0069829225540161	1514907.136939423
1.0108637809753418	1554344.7310224688
1.0147579908370972	1594241.2723170451
1.018665075302124	1632457.317781367
1.022585153579712	1666790.118015349
1.0265177488327026	1698876.1959850423
1.0304628610610962	1735180.98119497
1.0344202518463135	1779276.132953388
1.0383895635604858	1823795.499886306
1.0423706769943237	1864416.0793527865
1.0463634729385376	1903553.8573985181
1.0503677129745483	1942566.6530288681
1.0543830394744873	1984038.8138780287
1.058409333229065	2027114.567197898
1.0624464750289917	2069432.673131228
1.0664942264556885	2111052.782890531
1.0705522298812866	2152798.673868355
1.0746204853057861	2196078.661502998
1.0786986351013184	2240532.1311819614
1.0827864408493042	2284437.776848389
1.086883783340454	2324154.110070346
1.0909905433654785	2357044.300361527
1.0951062440872192	2377798.1694876696
1.0992310047149658	2348998.583632747
1.10336434841156	2280670.007684501
1.1075061559677124	2271422.3099233536
1.1116561889648438	2294027.6229352416
1.115814208984375	2284189.4035477005
1.1199802160263062	2292997.5331714046
1.124153733253479	2359830.545711904
1.1283347606658936	2420067.590407594
1.1325229406356812	2394338.023045421
1.1367181539535522	2445719.43658343
1.1409201622009277	2619976.900674245
1.145128846168518	2733455.1223893855
1.1493438482284546	2682090.2571590478
1.1535650491714478	2538028.040145731
1.1577922105789185	2519778.717333181
1.1620250940322876	2658008.981354997
1.1662636995315552	2837720.972594548
1.170507550239563	2967726.925605241
1.174756646156311	3087782.1729844552
1.1790107488632202	3240203.3832393624
1.1832695007324219	3362169.410123088
1.1875330209732056	3446200.02629316
1.191800832748413	3526023.144362704
1.1960728168487549	3612924.386034234
1.2003488540649414	3686388.1446558135
1.2046287059783936	3746086.4243015614
1.2089121341705322	3806971.4494146947
1.2131990194320679	3873598.157104386
1.2174891233444214	3944423.3284914778
1.2217823266983032	4014878.308517751
1.2260783910751343	4082311.663711677
1.230377197265625	4146770.4337239736
1.2346785068511963	4209637.863669696
1.238982081413269	4274252.106727156
1.2432878017425537	4338210.7670132695
1.2475954294204712	4398517.28665466
1.2519049644470215	4457848.752692457
1.256216049194336	4521743.969337524
1.2605286836624146	4584275.043944814
1.2648425102233887	4641423.527672653
1.2691574096679688	4698564.967803511
1.2734732627868652	4758190.729791099
1.2777899503707886	4818261.802695029
1.2821072340011597	4874504.558821314
1.2864248752593994	4922596.956852551
1.2907428741455078	4962983.602868081
1.2950609922409058	5013991.136373667
1.2993791103363037	5067672.657130091
1.303696870803833	5108162.944091873
1.3080145120620728	5158757.986432363
1.3123314380645752	5230203.162085868
1.3166478872299194	5305768.997155671
1.3209635019302368	5329791.50604241
1.3252781629562378	5259171.495032592
1.3295916318893433	4990941.7753926
1.3339040279388428	4315582.294428116
1.3382149934768677	3305498.257824593
1.3425244092941284	2731389.151272151
1.3468321561813354	2812698.3898886386
1.3511382341384888	2613903.1358011174
1.3554422855377197	2188897.756820715
1.3597444295883179	2097186.646209165
1.3640443086624146	2260018.0257605156
1.3683418035507202	2632866.840868131
1.3726370334625244	3289695.611957659
1.3769296407699585	3781775.397429251
1.381219506263733	3218178.4623693824
1.3855066299438477	2286915.458259035
1.3897908926010132	2017593.0900642693
1.3940720558166504	2075531.1863225421
1.3983501195907593	2259264.1499510496
1.4026249647140503	2871228.0344601595
1.4068963527679443	3367624.7105375053
1.4111642837524414	2983605.057993625
1.4154287576675415	2697375.8951847195
1.419689416885376	2843944.0217838427
1.4239463806152344	2831653.9552155086
1.4281994104385376	3033647.7265196955
1.4324485063552856	3169636.109621427
1.436693549156189	3148199.243357737
1.440934419631958	3510155.348554402
1.4451709985733032	4210329.268421734
1.449403166770935	4947768.717356814
1.453631043434143	5373408.160587016
1.4578542709350586	5565414.57775372
1.4620729684829712	5761259.566847427
1.4662868976593018	5821034.62488349
1.4704961776733398	5742065.966967066
1.4747005701065063	5754714.006009874
1.4788999557495117	5915759.0226121
1.4830944538116455	6239133.434502696
1.4872838258743286	6578068.334013306
1.491468071937561	6704498.012790046
1.4956470727920532	6726286.557855288
1.4998208284378052	6893419.78830749
1.5039892196655273	7124322.743191417
1.5081522464752197	7214565.755200174
1.5123097896575928	7310310.551238607
1.5164618492126465	7523822.346545789
1.5206083059310913	7793147.430730802
1.5247491598129272	7991885.90095833
1.5288842916488647	8064896.727993956
1.5330137014389038	8158174.892289204
1.5371372699737549	8288571.707863637
1.541254997253418	8366196.3845065
1.545366883277893	8448387.830552485
1.5494728088378906	8564395.568029275
1.5535727739334106	8643585.230848294
1.5576666593551636	8657070.771637764
1.561754584312439	8707176.839677334
1.5658363103866577	8852437.985431444
1.5699119567871094	8975120.39240482
1.5739814043045044	8984294.673180826
1.5780447721481323	8939284.375555191
1.582101821899414	9027413.134187806
1.5861525535583496	9233131.341385748
1.5901970863342285	9354161.44697791
1.5942351818084717	9387675.861368792
1.5982669591903687	9408887.39483964
1.6022924184799194	9463127.767318316
1.606311559677124	9549659.785359815
1.6103241443634033	9608463.115827734
1.6143304109573364	9642572.341476716
1.6183301210403442	9684782.41515118
1.6223233938217163	9742849.00454849
1.6263102293014526	9808583.199865889
1.6302905082702637	9849472.829605987
1.634264349937439	9922269.879960207
1.638231635093689	10059843.326985411
1.6421923637390137	10161569.050118342
1.646146535873413	10185873.382332738
1.6500942707061768	10196140.196710344
1.6540353298187256	10256625.524316281
1.6579699516296387	10322416.575487508
1.661897897720337	10302180.392904984
1.6658192873001099	10188933.029251534
1.6697341203689575	10183990.665775476
1.6736423969268799	10385991.255161766
1.677544116973877	10550047.781170554
1.6814392805099487	10603996.063841973
1.6853278875350952	10644196.099382408
1.6892099380493164	10638113.132985504
1.6930854320526123	10541716.372614259
1.696954369544983	10454744.427629706
1.7008168697357178	10506835.66417304
1.7046726942062378	10599353.83624599
1.708522081375122	10644335.099169385
1.712364912033081	10682481.586471757
1.7162011861801147	10757055.224386744
1.7200311422348022	10856940.758218655
1.723854422569275	10898988.306648282
1.7276713848114014	10865503.591085423
1.731481909751892	10757550.229966309
1.7352858781814575	10611521.187170886
1.7390835285186768	10501922.978238506
1.7428747415542603	10357093.856606888
1.7466596364974976	10117486.757391687
1.7504380941390991	9809693.879123967
1.7542102336883545	9630095.36738956
1.7579760551452637	10011235.944392819
1.7617355585098267	10497971.045779062
1.7654887437820435	10285621.161164796
1.7692357301712036	9514188.750132566
1.7729763984680176	8406100.40529427
1.776710867881775	7140887.540239151
1.7804391384124756	6610668.141268875
1.7841613292694092	6642376.181239739
1.7878772020339966	6364999.961311405
1.7915871143341064	6489942.566925586
1.7952908277511597	6916978.415726058
1.7989884614944458	6497310.538564963
1.8026801347732544	5172425.3720680205
1.806365728378296	3835738.3375827335
1.8100452423095703	3843446.5688108164
1.8137187957763672	4492593.102080364
1.817386507987976	4273198.165172265
1.8210482597351074	4680450.218347891
1.8247040510177612	5031333.677106044
1.828354001045227	3953077.430263991
1.8319982290267944	3826209.913678298
1.8356364965438843	4975558.295470839
1.8392690420150757	5956985.035523797
1.8428958654403687	6296710.598106807
1.8465168476104736	6289318.097629737
1.8501322269439697	5982801.312590846
1.8537418842315674	4845644.292154755
1.8573459386825562	4170469.0427924716
1.860944390296936	4109742.6138463696
1.864537239074707	3705741.812985445
1.8681244850158691	4111723.548149602
1.871706247329712	5449697.497304152
1.8752825260162354	6601169.271989696
1.8788533210754395	7556575.135979402
1.8824186325073242	8187111.670659642
1.8859784603118896	7928802.020847182
1.8895330429077148	7590045.313490806
1.8930821418762207	8111976.081047993
1.8966259956359863	7944610.242647141
1.9001644849777222	5941482.317662759
1.9036977291107178	4280959.495916657
1.9072256088256836	4481342.13713778
1.9107483625411987	4502977.826947117
1.9142658710479736	3475825.0776545084
1.9177782535552979	3436871.453966583
1.9212853908538818	4260412.898008814
1.9247875213623047	4353736.580374666
1.9282845258712769	4468738.268297028
1.9317764043807983	5262938.361619526
1.9352631568908691	5609010.815466587
1.9387450218200684	5365714.506562979
1.942221760749817	5494175.103385054
1.9456936120986938	5773221.625222596
1.9491604566574097	5859650.923716257
1.952622413635254	5598503.562337104
1.956079363822937	5201355.851559683
1.959531545639038	5445646.083577347
1.962978720664978	5854671.079174343
1.966421127319336	6513766.8994682375
1.9698586463928223	7621817.553423292
1.9732913970947266	8177898.261950772
1.9767193794250488	8417445.316486645
1.9801424741744995	9059717.456424326
1.9835609197616577	9664330.30198422
1.9869745969772339	9663575.10296091
1.990383505821228	9114431.167772917
1.9937876462936401	8968399.222650161
1.9971871376037598	9107577.90956703
2.000581979751587	9372778.895790624
2.003972291946411	10203942.74072572
2.007357597351074	10872504.630374758
2.0107386112213135	11327964.56013885
2.0141148567199707	11518931.668197695
2.017486572265625	11213147.815526322
2.0208535194396973	11345902.91903824
2.0242159366607666	11962482.97842519
2.027573823928833	12330057.623687692
2.0309269428253174	12533661.376277236
2.034275770187378	12794690.501300082
2.0376198291778564	13001162.542727003
2.040959596633911	13162901.269674568
2.044294595718384	13377504.948583165
2.0476250648498535	13597871.739381455
2.0509510040283203	13656971.137014285
2.054272413253784	13582534.823809361
2.057589530944824	13641949.337265532
2.0609018802642822	13819564.970769601
2.0642096996307373	13965309.495205354
2.0675129890441895	14069894.954036864
2.0708119869232178	14132258.831696058
2.074106216430664	14139002.721469034
2.0773961544036865	14142746.4231241
2.080681324005127	14199525.201469729
2.0839622020721436	14271157.56280863
2.087238311767578	14326391.577285154
2.090510129928589	14347246.853465285
2.0937774181365967	14343441.263578616
2.0970399379730225	14371198.859859264
2.1002981662750244	14407961.964035738
2.1035518646240234	14403638.685053324
2.1068007946014404	14388001.890149118
2.1100454330444336	14451114.213413436
2.1132853031158447	14548280.521118175
2.116520881652832	14564452.039954435
2.1197516918182373	14566589.931200435
2.1229779720306396	14619697.278596178
2.12619948387146	14674281.536993181
2.1294167041778564	14702933.359880494
2.132629156112671	14727953.592801655
2.1358368396759033	14730457.87374415
2.139039993286133	14700208.194614496
2.1422386169433594	14677941.088654589
2.145432472229004	14676109.367491065
2.1486217975616455	14675925.71779675
2.151806354522705	14657632.471812434
2.1549863815307617	14662782.179020764
2.1581614017486572	14695489.094665287
2.16133189201355	14704125.853774026
2.1644976139068604	14709873.137006545
2.167658567428589	14722405.212520707
2.1708147525787354	14722399.898622321
2.173966407775879	14701428.634897219
2.1771130561828613	14693545.65672409
2.1802549362182617	14728037.827144464
2.183391809463501	14752387.406767534
2.1865241527557373	14737939.393518532
2.1896514892578125	14688255.327114444
2.1927738189697266	14510471.288278606
2.1958916187286377	14141884.467866221
2.1990041732788086	13774565.229138555
2.2021119594573975	13625115.177500945
2.2052149772644043	13649605.748913998
2.208312749862671	13775188.089094806
2.2114057540893555	13953803.012540106
2.214493751525879	14044043.60880188
2.217576742172241	13991802.775721837
2.2206547260284424	13933618.033812182
2.2237277030944824	13903328.509431018
2.2267956733703613	13743902.549350262
2.2298583984375	13487325.16270573
2.2329163551330566	13319939.12837552
2.235969066619873	13284005.126321837
2.2390167713165283	13212224.659624767
2.2420592308044434	12910846.663640555
2.2450966835021973	12546310.717285229
2.248128890991211	12545410.882384006
2.2511560916900635	12854815.35439205
2.254178285598755	13074502.264087025
2.257194995880127	13183397.048420656
2.260206699371338	13160100.653980281
2.2632133960723877	12828024.879016219
2.266214609146118	12384193.283875499
2.2692108154296875	12225917.5194663
2.2722020149230957	12470182.549578514
2.2751877307891846	12788057.97951413
2.278168201446533	12789431.930118987
2.2811436653137207	12557061.720998963
2.284113883972168	12415763.799002001
2.287078857421875	12350524.470896566
2.290038824081421	12116588.687420826
2.2929933071136475	11567499.977010049
2.295942783355713	10699011.73149398
2.298887014389038	9703962.627673216
2.301826238632202	8863862.726410547
2.304760217666626	8283531.2894211365
2.3076889514923096	7968056.546646392
2.310612440109253	8023332.0022792695
2.3135311603546143	8124820.860633244
2.3164443969726562	7699050.762845022
2.319352865219116	7083797.681692044
2.322256088256836	6861483.068866423
2.3251543045043945	6886239.84703916
2.328047275543213	6948313.220390413
2.330935478210449	7132402.872813253
2.3338186740875244	7431885.944316609
2.3366971015930176	7758421.579693352
2.3395702838897705	8110451.429772999
2.3424389362335205	8506748.728506109
2.3453025817871094	8951167.887815911
2.348161458969116	9211703.148758424
2.351015567779541	9147876.824199503
2.353865146636963	9002130.318647077
2.3567099571228027	8886264.258097155
2.3595502376556396	9004405.42465789
2.3623859882354736	9536744.517625349
2.3652172088623047	9605551.255492425
2.368043899536133	8524283.897237519
2.370866537094116	7709062.936393398
2.3736846446990967	8186531.272180809
2.3764986991882324	8317329.819675159
2.3793084621429443	7537993.283428954
2.3821144104003906	7315853.917334426
2.384916305541992	8229647.722185295
2.387714147567749	9590896.907739636
2.3905084133148193	10426410.352926634
2.393299102783203	10413874.650187088
2.3960859775543213	9660918.522600682
2.398869514465332	8785074.820571993
2.4016497135162354	8306131.279217439
2.4044265747070312	8201906.76278003
2.407200336456299	8516609.397835216
2.409970998764038	9024386.62115438
2.4127390384674072	9338189.84637887
2.415503978729248	9551297.507876312
2.418266534805298	9937985.57016005
2.4210267066955566	10285127.121000117
2.4237842559814453	10257934.155500678
2.426539897918701	10035598.214643879
2.429293394088745	9937909.684286786
2.4320452213287354	10019726.7913398
2.4347951412200928	10204437.396296114
2.4375438690185547	10307706.298853217
2.440291166305542	10130992.468453009
2.443037271499634	9668862.654352661
2.445782423019409	9099480.832933301
2.4485268592834473	8523440.171849411
2.451270818710327	8267166.486226237
2.454014539718628	8911502.90682118
2.4567582607269287	9713468.276382105
2.4595019817352295	9571247.30339439
2.4622461795806885	9543929.156605896
2.4649908542633057	9640553.017095292
2.4677364826202393	8599892.877550952
2.4704833030700684	7020355.509080815
2.473231554031372	5673591.75583396
2.4759814739227295	4682221.59814223
2.4787333011627197	4332880.1639232375
2.481487512588501	4870680.094832262
2.4842441082000732	5656184.012898362
