#wavelength	surface flux
0.6450077295303345	54504.92026103623
0.6472567915916443	84915.80127037606
0.6494921445846558	108901.62984942431
0.6517150402069092	122665.59035749754
0.6539263725280762	136208.67641269823
0.6561272740364075	150106.58035010408
0.6583186388015747	164812.60994386094
0.6605015397071838	180661.96449089368
0.6626768708229065	197213.12789155808
0.6648455858230591	212854.70438114632
0.6670085787773132	218069.3332343803
0.6691668033599854	198113.3455547197
0.6713210344314575	191244.18460375184
0.6734722256660461	240076.5762732479
0.6756211519241333	298166.1831835687
0.6777685880661011	331175.2337776954
0.6799154281616211	355525.7883334943
0.6820623278617859	378465.1110719283
0.6842101216316223	400796.4228586169
0.6863595843315125	422411.70469229104
0.688511312007904	441298.3643042739
0.6906660795211792	451968.8688082494
0.6928245425224304	461827.02667207486
0.6949873566627502	486377.4112358426
0.6971551775932312	514912.2824256992
0.6993286609649658	533120.7512074552
0.7015084028244019	545147.4023742318
0.7036949396133423	558603.9026595475
0.7058889269828796	573361.4503980018
0.7080909013748169	582418.8691863099
0.710301399230957	587787.0426103213
0.712520956993103	590592.2711685275
0.7147500514984131	580197.7679903479
0.7169892191886902	558854.1896130105
0.7192389369010925	546681.0628270754
0.7214996814727783	538666.773300074
0.723771870136261	520640.8463500952
0.7260559797286987	497988.1657059939
0.7283523678779602	473604.2485157971
0.7306615710258484	449601.36136868224
0.7329838871955872	428755.33613658283
0.7353196740150452	404945.48970726045
0.7376693487167358	376508.6872949353
0.7400332689285278	345470.4564422189
0.7424117922782898	309464.6286086956
0.7448052167892456	271380.4793465393
0.7472138404846191	233079.10213879123
0.7496379613876343	193818.61392549856
0.7520779371261597	154770.67872519567
0.7545340061187744	117283.97384383946
0.7570064663887024	82880.86493905977
0.7594954967498779	52959.584558144736
0.7620013952255249	28806.76259208255
0.7645244002342224	12057.81680504672
0.7670646905899048	4025.0027744295103
0.7696225643157959	4436.512845787874
0.7721980810165405	15269.508826355606
0.7747915983200073	38651.98567717906
0.7774031162261963	69577.59060073666
0.7800329327583313	109772.45064954032
0.7826811671257019	173171.03780301014
0.7853479981422424	255207.29783570132
0.7880334854125977	339687.5946167829
0.7907378077507019	387102.24217430886
0.7934610247612	375130.18067724333
0.7962033748626709	469465.1264180238
0.7989648580551147	714711.8828747934
0.801745593547821	929969.252812483
0.8045456409454346	1087985.244344986
0.8073651194572449	1224524.3232001823
0.8102040886878967	1329419.7520379897
0.8130625486373901	1461357.367987752
0.8159406185150146	1673365.2532283333
0.8188382983207703	1901402.0747725903
0.8217556476593018	2108464.3766226345
0.8246926665306091	2340958.6931421207
0.8276493549346924	2574165.6994385156
0.8306257724761963	2782097.898452062
0.8336219191551208	3001754.113580928
0.8366377949714661	3214848.8136886535
0.8396733403205872	3514536.577393559
0.8427285552024841	3974263.4854626446
0.8458034992218018	4391404.135623063
0.8488980531692505	4478524.106734772
0.8520121574401855	4495857.389580912
0.8551458716392517	5172834.954925378
0.8582990765571594	6040002.431819532
0.8614717125892639	6219077.624077206
0.8646637797355652	6205527.910650738
0.8678751587867737	6575850.545753706
0.8711057901382446	7089691.087945506
0.8743556141853333	7490474.615401766
0.87762451171875	7740435.158133635
0.8809124231338501	8000400.138314894
0.8842192888259888	8474010.607846212
0.8875449895858765	8590394.463879885
0.8908893465995789	7690433.853579542
0.894252359867096	6928081.754394299
0.8976338505744934	7984938.684533716
0.9010337591171265	10194952.302772673
0.9044519662857056	12105160.467692824
0.9078882932662964	13463613.612402273
0.9113426208496094	14021359.52688321
0.914814829826355	13250755.57753084
0.9183048605918884	12616903.628292458
0.9218124747276306	12426600.739778632
0.925337553024292	9480894.931593593
0.9288799166679382	5177106.63237262
0.9324395060539246	3423743.3980773445
0.9360161423683167	3740843.415494933
0.9396095871925354	4687231.916826552
0.943219780921936	4694959.635712982
0.9468464851379395	3969519.168720089
0.9504896402359009	4314672.909750958
0.9541489481925964	5465856.874492738
0.9578243494033813	5483225.385040839
0.9615156054496765	3944816.356416991
0.9652225375175476	3050033.2907726937
0.9689450263977051	4107670.6125485213
0.9726828336715698	6573172.197109994
0.9764357805252075	8490345.551945237
0.9802037477493286	9606351.588467637
0.983986496925354	10925943.498230023
0.9877838492393494	12740594.571233246
0.9915955662727356	14889616.386411322
0.9954215884208679	16251095.144935785
0.9992615580558777	16508085.513690168
1.0031154155731201	16875081.403234083
1.0069829225540161	18692180.20477245
1.0108637809753418	22103423.079525452
1.0147579908370972	26349403.397830725
1.018665075302124	29290429.64627824
1.022585153579712	28984723.95367775
1.0265177488327026	27768382.14804161
1.0304628610610962	30449018.59348047
1.0344202518463135	36993269.87026456
1.0383895635604858	41974501.541680284
1.0423706769943237	44063664.88829839
1.0463634729385376	45576664.73783887
1.0503677129745483	47129400.93003395
1.0543830394744873	51075684.457594275
1.058409333229065	55461896.22565245
1.0624464750289917	56521979.15570654
1.0664942264556885	56537537.01030357
1.0705522298812866	57832931.65632467
1.0746204853057861	60730516.18790489
1.0786986351013184	63604816.369791836
1.0827864408493042	63918770.74860563
1.086883783340454	56947970.80282727
1.0909905433654785	41946286.77140826
1.0951062440872192	28433831.544774726
1.0992310047149658	18120584.92407801
1.10336434841156	8767082.96906112
1.1075061559677124	5289476.9944973355
1.1116561889648438	5032245.707322739
1.115814208984375	3813673.6778028533
1.1199802160263062	2912141.8144752667
1.124153733253479	2795759.3236456173
1.1283347606658936	2966506.917499657
1.1325229406356812	2900246.8148570154
1.1367181539535522	3534749.8418789045
1.1409201622009277	4793575.871023245
1.145128846168518	5707719.024142045
1.1493438482284546	4971502.06852299
1.1535650491714478	2644984.9629699425
1.1577922105789185	1484324.7593271811
1.1620250940322876	2144424.851282777
1.1662636995315552	3370309.5516906315
1.170507550239563	4267580.953996513
1.174756646156311	5942624.789724235
1.1790107488632202	9464553.56585608
1.1832695007324219	13470547.638744447
1.1875330209732056	16325365.023358922
1.191800832748413	20336315.98146853
1.1960728168487549	25987086.14791281
1.2003488540649414	29586145.51137615
1.2046287059783936	30574626.86673261
1.2089121341705322	31263832.381377187
1.2131990194320679	34806530.09380518
1.2174891233444214	41779305.61603244
1.2217823266983032	49228104.38285358
1.2260783910751343	55514992.30133829
1.230377197265625	59906986.69031224
1.2346785068511963	63412023.7393952
1.238982081413269	65771581.93910169
1.2432878017425537	65681564.33124594
1.2475954294204712	64134394.22030837
1.2519049644470215	62973462.46759656
1.256216049194336	70940310.42329752
1.2605286836624146	78260501.44263528
1.2648425102233887	74793964.54353178
1.2691574096679688	70471619.99636252
1.2734732627868652	68528428.90579993
1.2777899503707886	67068595.831360385
1.2821072340011597	63574519.14620185
1.2864248752593994	57247630.62171562
1.2907428741455078	48011039.87142001
1.2950609922409058	43216310.8613164
1.2993791103363037	41450957.246284306
1.303696870803833	35663879.43474917
1.3080145120620728	32133456.32877402
1.3123314380645752	32561707.82465822
1.3166478872299194	33682170.48157347
1.3209635019302368	29648975.802738216
1.3252781629562378	19431807.51332314
1.3295916318893433	10738540.762667384
1.3339040279388428	5011698.209084798
1.3382149934768677	1494079.6729834715
1.3425244092941284	476106.1483341965
1.3468321561813354	372567.03058619983
1.3511382341384888	285666.8970671929
1.3554422855377197	170397.79320412633
1.3597444295883179	140714.2592790903
1.3640443086624146	141589.50019623656
1.3683418035507202	202709.46273146383
1.3726370334625244	456931.27165108116
1.3769296407699585	756191.8389128721
1.381219506263733	604321.3810033344
1.3855066299438477	222974.13393931265
1.3897908926010132	92501.28776904641
1.3940720558166504	116829.80284081658
1.3983501195907593	189754.23832665334
1.4026249647140503	365809.9469256673
1.4068963527679443	491007.25894551125
1.4111642837524414	365946.4733968137
1.4154287576675415	249837.8374634208
1.419689416885376	239510.89570861158
1.4239463806152344	223883.17796641597
1.4281994104385376	303981.09408625466
1.4324485063552856	418979.6343953636
1.436693549156189	483594.9411635539
1.440934419631958	600795.7249290113
1.4451709985733032	995816.8880015803
1.449403166770935	1734449.2107652389
1.453631043434143	2275068.9336675624
1.4578542709350586	2550605.333270736
1.4620729684829712	2913533.241737008
1.4662868976593018	2942946.621204073
1.4704961776733398	2546569.5048060417
1.4747005701065063	2278018.4018947054
1.4788999557495117	2478619.5030364487
1.4830944538116455	3420530.494981012
1.4872838258743286	4519647.409225327
1.491468071937561	4866095.499124849
1.4956470727920532	4783401.024701029
1.4998208284378052	5386144.369670313
1.5039892196655273	6292452.680168042
1.5081522464752197	6478382.607504145
1.5123097896575928	6932819.818044857
1.5164618492126465	8569878.358248383
1.5206083059310913	11299277.199886726
1.5247491598129272	13352938.071894538
1.5288842916488647	13533211.788574936
1.5330137014389038	14388329.316900466
1.5371372699737549	15981416.803197827
1.541254997253418	16510325.096892912
1.545366883277893	17470735.60910513
1.5494728088378906	19426753.461272318
1.5535727739334106	20381782.676200412
1.5576666593551636	19611743.656550776
1.561754584312439	20382591.512930732
1.5658363103866577	24165300.642175082
1.5699119567871094	26481516.143524803
1.5739814043045044	24754024.8649429
1.5780447721481323	22607706.772337675
1.582101821899414	25356755.24672909
1.5861525535583496	30884689.973298315
1.5901970863342285	32863983.16610893
1.5942351818084717	31243060.359460615
1.5982669591903687	29074077.344996233
1.6022924184799194	28715506.362065166
1.606311559677124	29610492.692672342
1.6103241443634033	29432252.89985018
1.6143304109573364	28192941.873498812
1.6183301210403442	26880268.69705818
1.6223233938217163	26185796.906326253
1.6263102293014526	25660650.17864626
1.6302905082702637	24134972.8833276
1.634264349937439	27000955.465102807
1.638231635093689	36023219.54787316
1.6421923637390137	40989425.78723232
1.646146535873413	37303497.433486775
1.6500942707061768	31904647.965252154
1.6540353298187256	32327525.57444511
1.6579699516296387	34230157.71108202
1.661897897720337	30244370.88182722
1.6658192873001099	21420109.680397034
1.6697341203689575	18106108.5028256
1.6736423969268799	25892514.50741597
1.677544116973877	31302847.184490573
1.6814392805099487	29676448.592441447
1.6853278875350952	27650182.462158285
1.6892099380493164	23760824.982892353
1.6930854320526123	17143708.383098397
1.696954369544983	12052444.86112029
1.7008168697357178	11476200.319844624
1.7046726942062378	12759585.546746343
1.708522081375122	13482812.232763244
1.712364912033081	13849222.037857126
1.7162011861801147	15221353.698785143
1.7200311422348022	17385224.043852072
1.723854422569275	17300434.553598884
1.7276713848114014	15095611.031233834
1.731481909751892	12490196.795825137
1.7352858781814575	10268211.502311787
1.7390835285186768	9177375.606864048
1.7428747415542603	8428196.95659787
1.7466596364974976	7252930.465097213
1.7504380941390991	6091331.948503396
1.7542102336883545	5770346.609061872
1.7579760551452637	7445760.498949878
1.7617355585098267	9289048.729436057
1.7654887437820435	8193179.416171476
1.7692357301712036	5295096.595978381
1.7729763984680176	2985710.0002891547
1.776710867881775	1635532.0458469682
1.7804391384124756	1183823.1574455441
1.7841613292694092	1216681.0482099135
1.7878772020339966	1079748.1079438222
1.7915871143341064	1217231.7106716607
1.7952908277511597	1990199.2532461465
1.7989884614944458	2402275.734566657
1.8026801347732544	1544743.1860349874
1.806365728378296	554605.4135085148
1.8100452423095703	513870.1011595527
1.8137187957763672	688523.3911567245
1.817386507987976	576397.4680215825
1.8210482597351074	701715.5034375936
1.8247040510177612	777545.1737559824
1.828354001045227	403089.0409535037
1.8319982290267944	252313.49550499863
1.8356364965438843	522779.1400082965
1.8392690420150757	818640.8517937864
1.8428958654403687	828808.8204815486
1.8465168476104736	851729.501464524
1.8501322269439697	1062175.6165964617
1.8537418842315674	903815.209559259
1.8573459386825562	567392.2252999084
1.860944390296936	429632.155301235
1.864537239074707	268171.1964337924
1.8681244850158691	230136.31765435223
1.871706247329712	467217.17400323326
1.8752825260162354	928852.5412684479
1.8788533210754395	1824976.5352384907
1.8824186325073242	2549871.641889698
1.8859784603118896	2294218.8673955565
1.8895330429077148	1997886.8023778636
1.8930821418762207	2661215.450093318
1.8966259956359863	2730398.720494255
1.9001644849777222	1295274.934723878
1.9036977291107178	285488.6888652384
1.9072256088256836	248439.24747811456
1.9107483625411987	246879.31230907104
1.9142658710479736	138375.9138434267
1.9177782535552979	142249.24543817007
1.9212853908538818	230088.24008199156
1.9247875213623047	242398.6579787637
1.9282845258712769	263851.4593462704
1.9317764043807983	389392.6669093981
1.9352631568908691	470605.180987989
1.9387450218200684	499517.26033988956
1.942221760749817	650192.8610521441
1.9456936120986938	830449.0561715009
1.9491604566574097	1033416.961238507
1.952622413635254	1021453.2976398196
1.956079363822937	739846.6073020498
1.959531545639038	667026.6955864368
1.962978720664978	774120.7215957326
1.966421127319336	1158113.148949583
1.9698586463928223	1879615.2974849218
1.9732913970947266	2299667.724622903
1.9767193794250488	2583309.6603946527
1.9801424741744995	3218299.7733537927
1.9835609197616577	3866779.3735919623
1.9869745969772339	3935334.3423004267
1.990383505821228	3355881.4114623074
1.9937876462936401	3222910.7351881065
1.9971871376037598	3389455.4428914185
2.000581979751587	3767199.6420050487
2.003972291946411	4984223.349086076
2.007357597351074	6241499.408105383
2.0107386112213135	7457247.877262885
2.0141148567199707	7714304.014603121
2.017486572265625	6774496.711145838
2.0208535194396973	7304691.963900055
2.0242159366607666	9048923.665177898
2.027573823928833	9984341.8558827
2.0309269428253174	10790682.347073164
2.034275770187378	12223035.336118478
2.0376198291778564	13609949.662738558
2.040959596633911	14979887.034507632
2.044294595718384	16944087.86627787
2.0476250648498535	19173825.676185887
2.0509510040283203	19464104.39834295
2.054272413253784	17999651.20481785
2.057589530944824	18316721.505215965
2.0609018802642822	20351829.230980836
2.0642096996307373	22265852.727867264
2.0675129890441895	23744521.742589805
2.0708119869232178	24493641.820485596
2.074106216430664	24101964.622446425
2.0773961544036865	23642658.83812092
2.080681324005127	24320894.341281854
2.0839622020721436	25335775.75867797
2.087238311767578	26080020.970446598
2.090510129928589	26070103.439486273
2.0937774181365967	25275505.77165234
2.0970399379730225	25008305.399327133
2.1002981662750244	25018351.615334872
2.1035518646240234	24337711.7359722
2.1068007946014404	23500850.36928673
2.1100454330444336	24238634.64029046
2.1132853031158447	25523012.0220451
2.116520881652832	24768631.596046608
2.1197516918182373	23727950.732396886
2.1229779720306396	24210370.798497166
2.12619948387146	25029081.203206543
2.1294167041778564	25290368.921254274
2.132629156112671	25430400.830068246
2.1358368396759033	24671033.61923085
2.139039993286133	22717277.06153627
2.1422386169433594	20894198.61054156
2.145432472229004	19541935.842387278
2.1486217975616455	18584443.533223227
2.151806354522705	17533574.776647396
2.1549863815307617	17395894.560826942
2.1581614017486572	17821190.748000715
2.16133189201355	16846354.16782534
2.1644976139068604	15755906.739730706
2.167658567428589	15443561.629004467
2.1708147525787354	15437222.226000004
2.173966407775879	15256369.269638786
2.1771130561828613	14729075.92409182
2.1802549362182617	14065298.281929856
2.183391809463501	13062135.326369494
2.1865241527557373	11764854.763233159
2.1896514892578125	10258036.052673243
2.1927738189697266	7993627.620048046
2.1958916187286377	5091456.620909641
2.1990041732788086	2922566.1187632377
2.2021119594573975	2066971.913737632
2.2052149772644043	1987261.9144210985
2.208312749862671	2261306.7812671876
2.2114057540893555	2729716.192715922
2.214493751525879	3079423.228281985
2.217576742172241	2978816.3959582667
2.2206547260284424	2713566.1293696295
2.2237277030944824	2551613.483271103
2.2267956733703613	2167983.592652316
2.2298583984375	1623346.713305526
2.2329163551330566	1288099.306631215
2.235969066619873	1184390.189231473
2.2390167713165283	1109679.3989660004
2.2420592308044434	929303.0523526962
2.2450966835021973	751654.2203005237
2.248128890991211	802998.4853288591
2.2511560916900635	994977.7890751235
2.254178285598755	1096856.750638061
2.257194995880127	1183365.3121263967
2.260206699371338	1194227.6042303743
2.2632133960723877	990111.4621743201
2.266214609146118	774593.5813847007
2.2692108154296875	727204.4507168401
2.2722020149230957	850921.2025514384
2.2751877307891846	1000201.5879432262
2.278168201446533	996927.9569556029
2.2811436653137207	892160.6663302606
2.284113883972168	819841.6395284436
2.287078857421875	757937.1740924696
2.290038824081421	686082.513821629
2.2929933071136475	676686.577517147
2.295942783355713	727060.5034423514
2.298887014389038	782649.7990756724
2.301826238632202	875224.209004213
2.304760217666626	1128515.626878511
2.3076889514923096	1568627.477751266
2.310612440109253	1949314.3699966602
2.3135311603546143	1821205.2334025046
2.3164443969726562	1146166.2052224318
2.319352865219116	600563.8392177741
2.322256088256836	508454.5733911532
2.3251543045043945	544251.4897819106
2.328047275543213	536595.6405695402
2.330935478210449	529324.5246348723
2.3338186740875244	522799.9352454152
2.3366971015930176	500705.8962365046
2.3395702838897705	478653.4681479141
2.3424389362335205	443664.7554363573
2.3453025817871094	390578.3751440576
2.348161458969116	369016.17387496296
2.351015567779541	441638.3454584672
2.353865146636963	596859.2996133246
2.3567099571228027	736948.3069669635
2.3595502376556396	843864.9491818347
2.3623859882354736	942144.6216253652
2.3652172088623047	895396.6627106004
2.368043899536133	630408.771812811
2.370866537094116	369313.5101675795
2.3736846446990967	314018.185001107
2.3764986991882324	382215.2813698899
2.3793084621429443	456031.5519272916
2.3821144104003906	546463.4386386891
2.384916305541992	680760.907158025
2.387714147567749	769921.2202524479
2.3905084133148193	730728.7345519218
2.393299102783203	680510.29173731
2.3960859775543213	708194.250713555
2.398869514465332	771261.2167127649
2.4016497135162354	780632.2288354371
2.4044265747070312	759643.6673190674
2.407200336456299	880802.336691493
2.409970998764038	1134559.9174068056
2.4127390384674072	1301241.012331402
2.415503978729248	1364190.1713423703
2.418266534805298	1540524.734804079
2.4210267066955566	1725036.1966729888
2.4237842559814453	1583210.9720936203
2.426539897918701	1358650.5771297503
2.429293394088745	1543590.0085029812
2.4320452213287354	1934654.0660269
2.4347951412200928	2044592.1461941008
2.4375438690185547	1955257.6815165947
2.440291166305542	1979589.816071716
2.443037271499634	1981841.8599673368
2.445782423019409	1722315.6010017039
2.4485268592834473	1366319.2328719508
2.451270818710327	1293155.7426150898
2.454014539718628	1613911.4164546719
2.4567582607269287	1910161.7697202428
2.4595019817352295	1939821.0059336147
2.4622461795806885	2092986.9200521281
2.4649908542633057	2142922.016547629
2.4677364826202393	1676309.2215878174
2.4704833030700684	1136368.882257691
2.473231554031372	832669.4419769518
2.4759814739227295	669429.38934728
2.4787333011627197	604020.0467976098
2.481487512588501	660517.895835447
