#wavelength	surface flux
0.6450077295303345	86806.57537424596
0.6472567915916443	130739.40029273253
0.6494921445846558	157337.42100034337
0.6517150402069092	164314.62137357646
0.6539263725280762	170120.17737063044
0.6561272740364075	175897.3705131103
0.6583186388015747	181841.2458735034
0.6605015397071838	187926.7721526867
0.6626768708229065	193881.32229228673
0.6648455858230591	199818.84974850845
0.6670085787773132	203124.58324383126
0.6691668033599854	198269.19071827768
0.6713210344314575	197632.2314012525
0.6734722256660461	213961.18732693698
0.6756211519241333	231316.41841943804
0.6777685880661011	240600.6388981751
0.6799154281616211	247724.10221452176
0.6820623278617859	255051.69906325423
0.6842101216316223	263110.69486274524
0.6863595843315125	271068.04114686407
0.688511312007904	278527.6895126732
0.6906660795211792	285524.9361701383
0.6928245425224304	293173.4044105799
0.6949873566627502	302316.29334921925
0.6971551775932312	311666.95653573144
0.6993286609649658	320457.9553200658
0.7015084028244019	329144.53080261924
0.7036949396133423	338065.4457501911
0.7058889269828796	347260.43750737316
0.7080909013748169	356532.96545769676
0.710301399230957	365936.5171121199
0.712520956993103	375514.6480750566
0.7147500514984131	384910.6795293377
0.7169892191886902	394184.97016745247
0.7192389369010925	404038.0621319206
0.7214996814727783	414279.5967366086
0.723771870136261	424371.4069884482
0.7260559797286987	434489.0751547431
0.7283523678779602	444673.11581658456
0.7306615710258484	454988.4159784836
0.7329838871955872	465547.38177673245
0.7353196740150452	475934.27760993084
0.7376693487167358	485974.0078485839
0.7400332689285278	495503.5977877178
0.7424117922782898	503919.826752678
0.7448052167892456	510942.78801915544
0.7472138404846191	515870.4650092068
0.7496379613876343	517213.10454391415
0.7520779371261597	512756.45958755235
0.7545340061187744	498698.3169736557
0.7570064663887024	468320.2845142214
0.7594954967498779	409436.6678924134
0.7620013952255249	305047.9342326308
0.7645244002342224	166615.46800905844
0.7670646905899048	65231.46941018634
0.7696225643157959	67243.77452253594
0.7721980810165405	188135.21598028144
0.7747915983200073	365918.65038607083
0.7774031162261963	502765.0231924337
0.7800329327583313	586662.7036137936
0.7826811671257019	659471.8716037358
0.7853479981422424	724362.7997133149
0.7880334854125977	769808.8772302245
0.7907378077507019	778954.0267699138
0.7934610247612	731789.8585327063
0.7962033748626709	742753.274994068
0.7989648580551147	851749.5542007114
0.801745593547821	929249.9165406903
0.8045456409454346	960619.9436903704
0.8073651194572449	987977.6061724817
0.8102040886878967	1013930.3022479259
0.8130625486373901	1040940.475885101
0.8159406185150146	1070315.7795709898
0.8188382983207703	1100009.2186143715
0.8217556476593018	1130167.812734874
0.8246926665306091	1161528.116418564
0.8276493549346924	1192640.4398204149
0.8306257724761963	1223372.2268527637
0.8336219191551208	1254696.9049873946
0.8366377949714661	1286283.7231426632
0.8396733403205872	1319436.4858325715
0.8427285552024841	1355315.050130283
0.8458034992218018	1391438.2848856912
0.8488980531692505	1425800.707819848
0.8520121574401855	1460274.9687116558
0.8551458716392517	1498594.030302828
0.8582990765571594	1535382.4387532228
0.8614717125892639	1562254.1123812394
0.8646637797355652	1592085.5440029057
0.8678751587867737	1635065.6912831913
0.8711057901382446	1679697.898983706
0.8743556141853333	1721956.4417874166
0.87762451171875	1763584.7290691955
0.8809124231338501	1805065.8056462691
0.8842192888259888	1849847.8568673192
0.8875449895858765	1893510.3865740583
0.8908893465995789	1930638.0613661373
0.894252359867096	1971409.2954668947
0.8976338505744934	2024888.6121986394
0.9010337591171265	2082637.8193176682
0.9044519662857056	2137546.0450453795
0.9078882932662964	2190427.640486932
0.9113426208496094	2240865.6419048067
0.914814829826355	2287013.301318101
0.9183048605918884	2334695.335596142
0.9218124747276306	2382003.670429613
0.925337553024292	2396150.9531887285
0.9288799166679382	2380597.908328081
0.9324395060539246	2405411.286585344
0.9360161423683167	2484999.007487597
0.9396095871925354	2570420.4715327644
0.943219780921936	2623131.013298025
0.9468464851379395	2661572.3022123203
0.9504896402359009	2724216.258651405
0.9541489481925964	2799369.3924052785
0.9578243494033813	2852353.1277712476
0.9615156054496765	2878207.7175481897
0.9652225375175476	2920174.8986673392
0.9689450263977051	3006483.437853897
0.9726828336715698	3124824.4619095586
0.9764357805252075	3229445.105976352
0.9802037477493286	3309918.0955076437
0.983986496925354	3388940.7027357174
0.9877838492393494	3469912.0835229037
0.9915955662727356	3553026.983945754
0.9954215884208679	3634074.5604974837
0.9992615580558777	3709535.927045862
1.0031154155731201	3783992.618814583
1.0069829225540161	3866567.2002679245
1.0108637809753418	3956014.051921032
1.0147579908370972	4046714.120459795
1.018665075302124	4133095.129171753
1.022585153579712	4209587.616220313
1.0265177488327026	4282378.708293392
1.0304628610610962	4365739.242060559
1.0344202518463135	4462521.267584527
1.0383895635604858	4557911.951662391
1.0423706769943237	4645666.211094421
1.0463634729385376	4731256.008937288
1.0503677129745483	4816899.259552232
1.0543830394744873	4906775.520182564
1.058409333229065	4999028.638087261
1.0624464750289917	5089219.076351692
1.0664942264556885	5178429.9025953105
1.0705522298812866	5268226.646674892
1.0746204853057861	5360553.824704986
1.0786986351013184	5454666.960541012
1.0827864408493042	5547423.802259507
1.086883783340454	5631586.091548162
1.0909905433654785	5701762.809737468
1.0951062440872192	5750294.142439841
1.0992310047149658	5711585.941006877
1.10336434841156	5602752.030651297
1.1075061559677124	5600229.736933095
1.1116561889648438	5662438.2879661415
1.115814208984375	5676419.595301263
1.1199802160263062	5721968.872541665
1.124153733253479	5858452.245297855
1.1283347606658936	5969877.184872227
1.1325229406356812	5925569.555727571
1.1367181539535522	6021115.659192409
1.1409201622009277	6340087.939380421
1.145128846168518	6557266.6075583175
1.1493438482284546	6498081.63911177
1.1535650491714478	6284214.385849644
1.1577922105789185	6267651.6452085115
1.1620250940322876	6499312.834730098
1.1662636995315552	6801215.568309686
1.170507550239563	7024591.108132443
1.174756646156311	7234896.602065304
1.1790107488632202	7510763.149007009
1.1832695007324219	7742663.324939747
1.1875330209732056	7904995.22726804
1.191800832748413	8057324.532080825
1.1960728168487549	8222989.025443538
1.2003488540649414	8363477.089453934
1.2046287059783936	8478223.741188882
1.2089121341705322	8593785.583004091
1.2131990194320679	8721199.57355138
1.2174891233444214	8858415.85640575
1.2217823266983032	8993635.227116223
1.2260783910751343	9121406.309611082
1.230377197265625	9243245.544470685
1.2346785068511963	9362015.140691778
1.238982081413269	9482813.411489679
1.2432878017425537	9601258.933918225
1.2475954294204712	9705485.497655332
1.2519049644470215	9801496.28728167
1.256216049194336	9925115.970200185
1.2605286836624146	10058097.367557555
1.2648425102233887	10169638.669459729
1.2691574096679688	10276235.032727798
1.2734732627868652	10386372.255761813
1.2777899503707886	10496719.22323414
1.2821072340011597	10601285.94564552
1.2864248752593994	10693644.802920023
1.2907428741455078	10773774.298588669
1.2950609922409058	10870485.775044225
1.2993791103363037	10971042.70395279
1.303696870803833	11048953.408155724
1.3080145120620728	11141822.428097766
1.3123314380645752	11265418.793326909
1.3166478872299194	11392092.191388663
1.3209635019302368	11436862.321617715
1.3252781629562378	11322381.949291151
1.3295916318893433	10846377.645876316
1.3339040279388428	9601704.526508901
1.3382149934768677	7704470.904414492
1.3425244092941284	6662722.473141342
1.3468321561813354	6937948.940847749
1.3511382341384888	6645195.779415449
1.3554422855377197	5830009.290085654
1.3597444295883179	5665129.797858156
1.3640443086624146	6050283.955685944
1.3683418035507202	6852895.360120154
1.3726370334625244	8086497.578733118
1.3769296407699585	8931213.579447031
1.381219506263733	7849756.177334026
1.3855066299438477	6102661.708234513
1.3897908926010132	5571153.802558022
1.3940720558166504	5636587.640026374
1.3983501195907593	5942156.3030783525
1.4026249647140503	7110966.189627652
1.4068963527679443	8079311.603140318
1.4111642837524414	7310492.585710647
1.4154287576675415	6763418.743785721
1.419689416885376	7107695.8235950405
1.4239463806152344	7092653.751799065
1.4281994104385376	7447323.327417387
1.4324485063552856	7634805.561976115
1.436693549156189	7528254.995229081
1.440934419631958	8227476.358941532
1.4451709985733032	9526830.48426366
1.449403166770935	10800335.748798655
1.453631043434143	11505350.406688796
1.4578542709350586	11835063.257054422
1.4620729684829712	12173341.681192053
1.4662868976593018	12288995.577417072
1.4704961776733398	12192231.863977918
1.4747005701065063	12257221.484137475
1.4788999557495117	12541086.24816103
1.4830944538116455	13033275.486740354
1.4872838258743286	13528996.567278242
1.491468071937561	13716846.637898428
1.4956470727920532	13789243.319744168
1.4998208284378052	14095395.194842938
1.5039892196655273	14474943.776644124
1.5081522464752197	14613190.795581829
1.5123097896575928	14744691.834776368
1.5164618492126465	15068627.905039702
1.5206083059310913	15497930.772200346
1.5247491598129272	15813701.19860873
1.5288842916488647	15920552.039935121
1.5330137014389038	16062594.863015164
1.5371372699737549	16270103.438499862
1.541254997253418	16401756.124151656
1.545366883277893	16544790.2663879
1.5494728088378906	16732735.734472588
1.5535727739334106	16863669.107099146
1.5576666593551636	16915946.452079404
1.561754584312439	17024975.463129185
1.5658363103866577	17241675.209526405
1.5699119567871094	17409656.38786027
1.5739814043045044	17444381.86620393
1.5780447721481323	17438523.789933093
1.582101821899414	17577723.64512122
1.5861525535583496	17825717.708146095
1.5901970863342285	17976677.929106206
1.5942351818084717	18030163.076395378
1.5982669591903687	18072017.25423329
1.6022924184799194	18152853.13519866
1.606311559677124	18261632.898656398
1.6103241443634033	18343263.95319911
1.6143304109573364	18399718.87726728
1.6183301210403442	18453383.93678884
1.6223233938217163	18516809.868574936
1.6263102293014526	18583273.40575771
1.6302905082702637	18626164.893944826
1.634264349937439	18742414.72112262
1.638231635093689	18965040.87818011
1.6421923637390137	19122455.99928667
1.646146535873413	19145063.57575441
1.6500942707061768	19144168.541120443
1.6540353298187256	19232733.87995521
1.6579699516296387	19335635.86861052
1.661897897720337	19286953.04281811
1.6658192873001099	19058558.21376341
1.6697341203689575	19020105.068964098
1.6736423969268799	19353763.622443795
1.677544116973877	19621998.50796466
1.6814392805099487	19691958.15375685
1.6853278875350952	19732175.866910037
1.6892099380493164	19704970.823785298
1.6930854320526123	19542623.797167793
1.696954369544983	19389611.349537853
1.7008168697357178	19443458.90982877
1.7046726942062378	19578046.989833497
1.708522081375122	19661999.340018038
1.712364912033081	19726222.850919917
1.7162011861801147	19831470.88515391
1.7200311422348022	19969016.184469096
1.723854422569275	20019016.538094476
1.7276713848114014	19952336.242704257
1.731481909751892	19767801.226209134
1.7352858781814575	19535495.27886583
1.7390835285186768	19370246.686052095
1.7428747415542603	19158342.54750727
1.7466596364974976	18806185.143607605
1.7504380941390991	18322367.881451156
1.7542102336883545	17995726.939399425
1.7579760551452637	18541559.972605538
1.7617355585098267	19296245.12774766
1.7654887437820435	18987899.69769354
1.7692357301712036	17818783.573506575
1.7729763984680176	16139910.003909452
1.776710867881775	14181907.542880869
1.7804391384124756	13360070.419050815
1.7841613292694092	13419356.027928773
1.7878772020339966	12948976.70316243
1.7915871143341064	13078993.612281417
1.7952908277511597	13644681.59877856
1.7989884614944458	12854654.062637057
1.8026801347732544	10684942.721624037
1.806365728378296	8477922.151197214
1.8100452423095703	8494278.192126019
1.8137187957763672	9709557.868102076
1.817386507987976	9415226.124707272
1.8210482597351074	10055651.373988342
1.8247040510177612	10653144.880302781
1.828354001045227	8957750.873700755
1.8319982290267944	8921181.881863702
1.8356364965438843	10940951.704410631
1.8392690420150757	12582837.505771179
1.8428958654403687	13106092.352987599
1.8465168476104736	12997754.631723955
1.8501322269439697	12315095.383006189
1.8537418842315674	10191892.894695455
1.8573459386825562	8957796.442952257
1.860944390296936	8873490.950456157
1.864537239074707	8365939.714873114
1.8681244850158691	9390873.873661056
1.871706247329712	11772187.305623159
1.8752825260162354	13512599.38250682
1.8788533210754395	14796329.710637063
1.8824186325073242	15575522.165451001
1.8859784603118896	15180311.204727123
1.8895330429077148	14853524.512814151
1.8930821418762207	15739881.678481178
1.8966259956359863	15544961.177834634
1.9001644849777222	12575364.23567766
1.9036977291107178	9947631.349330917
1.9072256088256836	10260574.12178832
1.9107483625411987	10275478.227212943
1.9142658710479736	8406923.624544663
1.9177782535552979	8286337.363205452
1.9212853908538818	9712279.505098088
1.9247875213623047	9811942.85962154
1.9282845258712769	9983631.572223334
1.9317764043807983	11360725.976866303
1.9352631568908691	11897488.184631126
1.9387450218200684	11308240.115643933
1.942221760749817	11281739.71410118
1.9456936120986938	11619627.813760975
1.9491604566574097	11712821.233737549
1.952622413635254	11252288.20086768
1.956079363822937	10608776.867127363
1.959531545639038	11048038.673203198
1.962978720664978	11728100.540041123
1.966421127319336	12716266.080535686
1.9698586463928223	14370046.268257305
1.9732913970947266	15136906.364096828
1.9767193794250488	15439380.921158062
1.9801424741744995	16428375.337895418
1.9835609197616577	17378666.923686333
1.9869745969772339	17389649.26834462
1.990383505821228	16517667.442493217
1.9937876462936401	16212989.939043848
1.9971871376037598	16363044.003913887
2.000581979751587	16764608.771598827
2.003972291946411	18028410.09363782
2.007357597351074	18989531.07942674
2.0107386112213135	19648868.05679367
2.0141148567199707	19978951.545496307
2.017486572265625	19520819.67767115
2.0208535194396973	19648867.793291435
2.0242159366607666	20533288.77537434
2.027573823928833	21103278.52239823
2.0309269428253174	21417508.959024813
2.034275770187378	21779434.891980205
2.0376198291778564	22054739.353673812
2.040959596633911	22287854.908843912
2.044294595718384	22599510.85916166
2.0476250648498535	22922766.8618865
2.0509510040283203	23023156.294983543
2.054272413253784	22897259.61917286
2.057589530944824	22954957.824704356
2.0609018802642822	23209322.73335057
2.0642096996307373	23424332.554495215
2.0675129890441895	23573121.281835675
2.0708119869232178	23643054.935600407
2.074106216430664	23624648.5911859
2.0773961544036865	23616839.38400025
2.080681324005127	23692551.00888155
2.0839622020721436	23792122.99523369
2.087238311767578	23870496.42963707
2.090510129928589	23887530.095995992
2.0937774181365967	23858214.3471435
2.0970399379730225	23875910.039656922
2.1002981662750244	23910232.36550064
2.1035518646240234	23885017.43803169
2.1068007946014404	23839537.26143072
2.1100454330444336	23916263.405846972
2.1132853031158447	24054871.114045393
2.116520881652832	24071980.470766947
2.1197516918182373	24058431.346689284
2.1229779720306396	24112426.59177894
2.12619948387146	24170244.079794496
2.1294167041778564	24195089.875466574
2.132629156112671	24216519.430772062
2.1358368396759033	24204086.0025183
2.139039993286133	24144102.293822292
2.1422386169433594	24097582.062931105
2.145432472229004	24074020.434255306
2.1486217975616455	24048738.600142587
2.151806354522705	24004834.17861982
2.1549863815307617	24004240.609151013
2.1581614017486572	24038338.957067538
2.16133189201355	24021546.18022372
2.1644976139068604	23996743.716374215
2.167658567428589	23989748.3221764
2.1708147525787354	23975467.901746035
2.173966407775879	23935455.16614619
2.1771130561828613	23895841.279206492
2.1802549362182617	23887856.36550336
2.183391809463501	23862206.736512657
2.1865241527557373	23791659.586011406
2.1896514892578125	23666772.749683276
2.1927738189697266	23351963.736211464
2.1958916187286377	22773536.770643882
2.1990041732788086	22190527.02517485
2.2021119594573975	21865794.090170763
2.2052149772644043	21745643.77118321
2.208312749862671	21809753.993792787
2.2114057540893555	22072037.265883535
2.214493751525879	22300182.16411219
2.217576742172241	22297121.56628127
2.2206547260284424	22225478.681415424
2.2237277030944824	22160375.173988715
2.2267956733703613	21873608.326569177
2.2298583984375	21443738.200334653
2.2329163551330566	21175950.16314289
2.235969066619873	21122005.79132786
2.2390167713165283	21025912.525309045
2.2420592308044434	20609254.01947941
2.2450966835021973	20105906.901374295
2.248128890991211	20116205.278247476
2.2511560916900635	20554672.37537277
2.254178285598755	20857234.429443505
2.257194995880127	21020948.862542983
2.260206699371338	21019230.872794468
2.2632133960723877	20569085.156104583
2.266214609146118	19942825.186485544
2.2692108154296875	19700660.25524104
2.2722020149230957	19987507.28257525
2.2751877307891846	20368313.998210702
2.278168201446533	20338440.176681135
2.2811436653137207	20000566.140159275
2.284113883972168	19750392.974369984
2.287078857421875	19572746.120900363
2.290038824081421	19211608.862225212
2.2929933071136475	18555468.910417706
2.295942783355713	17645514.65258387
2.298887014389038	16673984.664045066
2.301826238632202	15901707.775839698
2.304760217666626	15432609.604980161
2.3076889514923096	15285513.237714037
2.310612440109253	15574114.13190881
2.3135311603546143	15783674.949934829
2.3164443969726562	15084416.304347718
2.319352865219116	14036670.36752752
2.322256088256836	13579481.50343571
2.3251543045043945	13494418.253020914
2.328047275543213	13480978.104732329
2.330935478210449	13693666.373855462
2.3338186740875244	14063657.84833105
2.3366971015930176	14431530.19795672
2.3395702838897705	14798112.904646184
2.3424389362335205	15121101.962259157
2.3453025817871094	15428050.184421469
2.348161458969116	15649117.032750264
2.351015567779541	15760899.303652186
2.353865146636963	15931828.370450402
2.3567099571228027	16063295.410302028
2.3595502376556396	16301929.07864004
2.3623859882354736	16891256.18852869
2.3652172088623047	16876673.38128359
2.368043899536133	15412053.68765992
2.370866537094116	14049817.490485717
2.3736846446990967	14314326.035659764
2.3764986991882324	14563218.469674531
2.3793084621429443	13820126.861457169
2.3821144104003906	13592009.591381663
2.384916305541992	14649081.82015633
2.387714147567749	16218527.542258486
2.3905084133148193	17160700.023951102
2.393299102783203	17149318.019667827
2.3960859775543213	16376475.941734493
2.398869514465332	15504961.883538766
2.4016497135162354	15000333.500920704
2.4044265747070312	14851152.930560282
2.407200336456299	15234678.22041071
2.409970998764038	15880301.76288126
2.4127390384674072	16233213.057524724
2.415503978729248	16442270.052681899
2.418266534805298	16925070.86264855
2.4210267066955566	17330011.55113078
2.4237842559814453	17099605.423129622
2.426539897918701	16554449.103618337
2.429293394088745	16339029.479906296
2.4320452213287354	16516410.07441331
2.4347951412200928	16773875.120369207
2.4375438690185547	16828707.734957695
2.440291166305542	16521187.578821568
2.443037271499634	15852903.143342802
2.445782423019409	15030305.894104837
2.4485268592834473	14262534.328203715
2.451270818710327	13925169.596158223
2.454014539718628	14708196.439481625
2.4567582607269287	15710325.956775757
2.4595019817352295	15436477.825242113
2.4622461795806885	15377254.433132749
2.4649908542633057	15561591.346379815
2.4677364826202393	14152156.443762153
2.4704833030700684	11910334.128051143
2.473231554031372	9844865.854712212
2.4759814739227295	8229337.349887128
