#wavelength	surface flux
0.6450077295303345	339399.02366671443
0.6472567915916443	510993.66578423406
0.6494921445846558	614799.073355723
0.6517150402069092	641920.828628074
0.6539263725280762	664024.7854655641
0.6561272740364075	685589.4133359941
0.6583186388015747	707824.8419759662
0.6605015397071838	730672.8313608266
0.6626768708229065	752589.1012406547
0.6648455858230591	774323.8624193481
0.6670085787773132	781513.4548734465
0.6691668033599854	742870.0903248958
0.6713210344314575	726858.6717841311
0.6734722256660461	804574.820514283
0.6756211519241333	887359.1354863159
0.6777685880661011	924967.9754586855
0.6799154281616211	950383.0637573937
0.6820623278617859	976737.814307684
0.6842101216316223	1007089.284194985
0.6863595843315125	1036417.6186659381
0.688511312007904	1062195.1707095804
0.6906660795211792	1084075.8522419198
0.6928245425224304	1109209.5983686068
0.6949873566627502	1143840.2574314475
0.6971551775932312	1179338.9375888603
0.6993286609649658	1210340.69086672
0.7015084028244019	1240065.294534847
0.7036949396133423	1270968.7186039058
0.7058889269828796	1303197.1558238456
0.7080909013748169	1334974.514834136
0.710301399230957	1366834.3469270128
0.712520956993103	1399104.7529436045
0.7147500514984131	1428577.5634672476
0.7169892191886902	1455815.3597480792
0.7192389369010925	1487054.8081416946
0.7214996814727783	1520657.8963113015
0.723771870136261	1551859.7474974522
0.7260559797286987	1582237.244764939
0.7283523678779602	1612313.736234642
0.7306615710258484	1642841.3659469406
0.7329838871955872	1675052.5337934105
0.7353196740150452	1705536.9604994862
0.7376693487167358	1733039.7958258132
0.7400332689285278	1756790.172575999
0.7424117922782898	1772599.373243445
0.7448052167892456	1779478.3544160393
0.7472138404846191	1773504.7647784755
0.7496379613876343	1745564.9956438092
0.7520779371261597	1683328.5312767967
0.7545340061187744	1567327.945675835
0.7570064663887024	1369219.8184160423
0.7594954967498779	1059864.2551888248
0.7620013952255249	653865.2102959391
0.7645244002342224	275249.2487922639
0.7670646905899048	73598.85943126952
0.7696225643157959	82653.9355390497
0.7721980810165405	331421.71489004436
0.7747915983200073	804408.3235725432
0.7774031162261963	1286459.2308027982
0.7800329327583313	1655349.1337986717
0.7826811671257019	2006058.2672857398
0.7853479981422424	2320049.82569208
0.7880334854125977	2527571.42189611
0.7907378077507019	2552523.9551509987
0.7934610247612	2319057.940072749
0.7962033748626709	2359697.231851749
0.7989648580551147	2836187.4253091817
0.801745593547821	3158478.3007349526
0.8045456409454346	3271395.307140398
0.8073651194572449	3360134.6041000397
0.8102040886878967	3435132.8389811395
0.8130625486373901	3517275.292078887
0.8159406185150146	3621050.7484551463
0.8188382983207703	3725782.3928598333
0.8217556476593018	3822361.7770115305
0.8246926665306091	3922453.243683109
0.8276493549346924	4021720.856549611
0.8306257724761963	4115710.630660455
0.8336219191551208	4211277.361460029
0.8366377949714661	4305358.698413855
0.8396733403205872	4408853.896731442
0.8427285552024841	4531760.590476947
0.8458034992218018	4653389.379385705
0.8488980531692505	4759770.905884343
0.8520121574401855	4863692.975864447
0.8551458716392517	4986675.272711258
0.8582990765571594	5095783.353666132
0.8614717125892639	5139496.292533668
0.8646637797355652	5199294.8515589535
0.8678751587867737	5339791.428352301
0.8711057901382446	5487664.138062709
0.8743556141853333	5616214.853493963
0.87762451171875	5735854.574538966
0.8809124231338501	5851615.162423039
0.8842192888259888	5985532.021184322
0.8875449895858765	6105313.914498022
0.8908893465995789	6173300.2532522045
0.894252359867096	6261177.799267137
0.8976338505744934	6438846.31038597
0.9010337591171265	6650014.17832157
0.9044519662857056	6836776.063439353
0.9078882932662964	7000890.26434002
0.9113426208496094	7141841.6372435605
0.914814829826355	7245123.544761635
0.9183048605918884	7354631.3455623025
0.9218124747276306	7455252.014629326
0.925337553024292	7297430.945646868
0.9288799166679382	6916318.074496773
0.9324395060539246	6831430.883350541
0.9360161423683167	7144078.1336967135
0.9396095871925354	7503444.755706892
0.943219780921936	7618450.9235994285
0.9468464851379395	7619119.039569771
0.9504896402359009	7797520.546753121
0.9541489481925964	8068147.905381731
0.9578243494033813	8168595.595299181
0.9615156054496765	8059868.871959521
0.9652225375175476	8065128.748848016
0.9689450263977051	8394705.51975384
0.9726828336715698	8955913.755043589
0.9764357805252075	9409480.105547816
0.9802037477493286	9680396.151736008
0.983986496925354	9936491.3154107
0.9877838492393494	10202967.41681748
0.9915955662727356	10482360.110143432
0.9954215884208679	10743606.385267913
0.9992615580558777	10959159.978553059
1.0031154155731201	11156927.578037405
1.0069829225540161	11405332.879333744
1.0108637809753418	11698775.57186859
1.0147579908370972	11995433.727908228
1.018665075302124	12255355.939084662
1.022585153579712	12436162.940871641
1.0265177488327026	12582050.98813418
1.0304628610610962	12801059.49957406
1.0344202518463135	13115839.75689081
1.0383895635604858	13415102.793577105
1.0423706769943237	13651744.953896685
1.0463634729385376	13866088.103588644
1.0503677129745483	14075435.250518383
1.0543830394744873	14311326.665420245
1.058409333229065	14560000.562125787
1.0624464750289917	14788398.402822271
1.0664942264556885	15003461.885740254
1.0705522298812866	15217011.615376856
1.0746204853057861	15444745.27918834
1.0786986351013184	15681315.68901031
1.0827864408493042	15902312.960410519
1.086883783340454	16051150.589932544
1.0909905433654785	16087191.34488352
1.0951062440872192	15965080.387307027
1.0992310047149658	15237755.780897235
1.10336434841156	14048134.499706682
1.1075061559677124	13611143.214749139
1.1116561889648438	13633714.567325553
1.115814208984375	13341001.613781746
1.1199802160263062	13217117.168342104
1.124153733253479	13638778.74738174
1.1283347606658936	13961274.346702771
1.1325229406356812	13430542.613878421
1.1367181539535522	13679153.697257001
1.1409201622009277	15135257.157662073
1.145128846168518	16017410.054929119
1.1493438482284546	15303744.701731041
1.1535650491714478	13627459.31263428
1.1577922105789185	13087945.402083797
1.1620250940322876	14037701.600147577
1.1662636995315552	15427726.750242634
1.170507550239563	16358689.442629337
1.174756646156311	17268650.33831163
1.1790107488632202	18621241.651878756
1.1832695007324219	19689892.199226324
1.1875330209732056	20297019.72334722
1.191800832748413	20846139.310422294
1.1960728168487549	21493419.449979007
1.2003488540649414	21958090.27626093
1.2046287059783936	22233318.36666004
1.2089121341705322	22506549.889062755
1.2131990194320679	22861518.54338369
1.2174891233444214	23288581.036937155
1.2217823266983032	23699790.37492246
1.2260783910751343	24054268.54518504
1.230377197265625	24362742.634736862
1.2346785068511963	24646232.69716293
1.238982081413269	24944383.592215046
1.2432878017425537	25225024.879269917
1.2475954294204712	25409563.004044265
1.2519049644470215	25540052.624166276
1.256216049194336	25839335.14700993
1.2605286836624146	26185429.665653303
1.2648425102233887	26390733.57788783
1.2691574096679688	26567583.679684367
1.2734732627868652	26770626.547733165
1.2777899503707886	26973204.907911617
1.2821072340011597	27130810.898631785
1.2864248752593994	27198632.46186152
1.2907428741455078	27176132.685063913
1.2950609922409058	27275078.16414629
1.2993791103363037	27405766.45287506
1.303696870803833	27374407.63157006
1.3080145120620728	27451981.71999713
1.3123314380645752	27750575.87783349
1.3166478872299194	28070940.49640853
1.3209635019302368	27817875.358296737
1.3252781629562378	26564154.34930445
1.3295916318893433	23523150.45449226
1.3339040279388428	17598985.548386097
1.3382149934768677	10647971.198181886
1.3425244092941284	7205659.015503574
1.3468321561813354	7491360.12931849
1.3511382341384888	6880192.816845036
1.3554422855377197	5351190.966306555
1.3597444295883179	5045052.62179153
1.3640443086624146	5610298.414172339
1.3683418035507202	6897304.657629267
1.3726370334625244	9696789.793940557
1.3769296407699585	12202380.070988918
1.381219506263733	9927327.301037472
1.3855066299438477	5666573.160474456
1.3897908926010132	4265036.466751729
1.3940720558166504	4521618.708090894
1.3983501195907593	5209784.1404725835
1.4026249647140503	7419175.29335697
1.4068963527679443	9262992.963869492
1.4111642837524414	7688662.150309209
1.4154287576675415	6304643.281302641
1.419689416885376	6527895.900223072
1.4239463806152344	6426143.507764543
1.4281994104385376	7294941.701712161
1.4324485063552856	7902784.773719424
1.436693549156189	7784211.986101265
1.440934419631958	8947967.442552725
1.4451709985733032	11639229.98526364
1.449403166770935	15023455.641648594
1.453631043434143	17154805.8796422
1.4578542709350586	18146326.659278106
1.4620729684829712	19259867.71273345
1.4662868976593018	19488132.558424328
1.4704961776733398	18825729.47784229
1.4747005701065063	18778424.77079757
1.4788999557495117	19651125.758947235
1.4830944538116455	21521009.263242945
1.4872838258743286	23433134.055661324
1.491468071937561	23974511.696815223
1.4956470727920532	24053005.69348151
1.4998208284378052	25281775.77448888
1.5039892196655273	26837899.820079967
1.5081522464752197	27177295.718573824
1.5123097896575928	27526891.694542296
1.5164618492126465	28944998.616001144
1.5206083059310913	31004137.433967277
1.5247491598129272	32437936.45231285
1.5288842916488647	32654306.747507885
1.5330137014389038	33107938.298587747
1.5371372699737549	33968997.9257339
1.541254997253418	34374319.50842721
1.545366883277893	34863852.32585766
1.5494728088378906	35630894.96592157
1.5535727739334106	36031678.167754844
1.5576666593551636	35934499.95649425
1.561754584312439	36204761.47761769
1.5658363103866577	37174494.64474501
1.5699119567871094	37846413.947749645
1.5739814043045044	37672426.83040305
1.5780447721481323	37246960.59490052
1.582101821899414	37729869.60198108
1.5861525535583496	38882807.73859449
1.5901970863342285	39434553.65372448
1.5942351818084717	39387425.42561032
1.5982669591903687	39269914.15483889
1.6022924184799194	39402479.82886606
1.606311559677124	39711059.759859785
1.6103241443634033	39844081.507866584
1.6143304109573364	39825434.30084114
1.6183301210403442	39803649.22446258
1.6223233938217163	39858437.930180274
1.6263102293014526	39938022.72174607
1.6302905082702637	39857119.129100665
1.634264349937439	40202465.441063605
1.638231635093689	41191634.18083019
1.6421923637390137	41796626.514566906
1.646146535873413	41593504.272946194
1.6500942707061768	41237057.84054099
1.6540353298187256	41412692.97962569
1.6579699516296387	41675229.10614883
1.661897897720337	41071640.76347625
1.6658192873001099	39484376.916816235
1.6697341203689575	38964738.048469305
1.6736423969268799	40563504.13992048
1.677544116973877	41812712.86468707
1.6814392805099487	41917014.15251369
1.6853278875350952	41849189.57999731
1.6892099380493164	41363081.79136432
1.6930854320526123	40077434.957151785
1.696954369544983	38897676.48281002
1.7008168697357178	38948669.991933964
1.7046726942062378	39418622.66484951
1.708522081375122	39530958.709311284
1.712364912033081	39522371.50145147
1.7162011861801147	39798992.87987461
1.7200311422348022	40302972.012829885
1.723854422569275	40285542.46212541
1.7276713848114014	39566481.186719716
1.731481909751892	38176537.06972717
1.7352858781814575	36550037.34261395
1.7390835285186768	35354933.74651285
1.7428747415542603	33990498.74944401
1.7466596364974976	31992118.139104243
1.7504380941390991	29629930.21191044
1.7542102336883545	28200755.066499226
1.7579760551452637	30630213.927225463
1.7617355585098267	33905101.907296054
1.7654887437820435	32270588.967737593
1.7692357301712036	27015297.013440326
1.7729763984680176	21058958.054800373
1.776710867881775	15451403.678318782
1.7804391384124756	13219904.039696544
1.7841613292694092	13504087.105243735
1.7878772020339966	12508433.046501065
1.7915871143341064	12824081.013023483
1.7952908277511597	15125739.823680365
1.7989884614944458	15096919.080290643
1.8026801347732544	11131771.861652667
1.806365728378296	6813853.585444563
1.8100452423095703	6948713.344949366
1.8137187957763672	8683711.362002425
1.817386507987976	7792342.008827196
1.8210482597351074	8786751.463546446
1.8247040510177612	9692393.303039245
1.828354001045227	6676189.949801778
1.8319982290267944	5973019.935639653
1.8356364965438843	8948567.962314071
1.8392690420150757	11721742.64805942
1.8428958654403687	12066078.273012146
1.8465168476104736	11625363.884146333
1.8501322269439697	11384862.46063934
1.8537418842315674	8869904.82962023
1.8573459386825562	6613155.303616961
1.860944390296936	6025403.568749262
1.864537239074707	5188358.837623314
1.8681244850158691	6114393.155725001
1.871706247329712	9188669.972659636
1.8752825260162354	12181625.908632267
1.8788533210754395	15268620.814588303
1.8824186325073242	17340379.35498971
1.8859784603118896	16450809.503223522
1.8895330429077148	15776675.04711084
1.8930821418762207	18117271.873097807
1.8966259956359863	17827679.50412216
1.9001644849777222	11572807.908123838
1.9036977291107178	6925406.391164437
1.9072256088256836	7590728.228818124
1.9107483625411987	7546020.743822025
1.9142658710479736	5015401.00451012
1.9177782535552979	4671925.515842169
1.9212853908538818	6184225.315128724
1.9247875213623047	6274835.247005607
1.9282845258712769	6420876.520210284
1.9317764043807983	7998170.803769973
1.9352631568908691	8668757.235366158
1.9387450218200684	8046873.911019665
1.942221760749817	8249511.980535616
1.9456936120986938	9029419.59859519
1.9491604566574097	9792753.580463175
1.952622413635254	9389922.87595515
1.956079363822937	7909290.5134119615
1.959531545639038	7914605.164575411
1.962978720664978	8664418.325746318
1.966421127319336	10350543.630711742
1.9698586463928223	13353919.342917796
1.9732913970947266	14779258.04304112
1.9767193794250488	15497803.535705874
1.9801424741744995	17704548.668316938
1.9835609197616577	19950260.662050933
1.9869745969772339	20118056.612468734
1.990383505821228	17955565.74462703
1.9937876462936401	17054420.269933734
1.9971871376037598	17396916.43515354
2.000581979751587	18594291.618128985
2.003972291946411	21958867.917620458
2.007357597351074	24553742.510233592
2.0107386112213135	26733082.816600338
2.0141148567199707	27729384.272891775
2.017486572265625	26014450.643818133
2.0208535194396973	26439130.11175268
2.0242159366607666	29556770.9189308
2.027573823928833	31608388.044299703
2.0309269428253174	32872449.942382228
2.034275770187378	34442738.36764758
2.0376198291778564	35681370.92104028
2.040959596633911	36782463.36190669
2.044294595718384	38275839.50135583
2.0476250648498535	39865037.419809945
2.0509510040283203	40300693.09518618
2.054272413253784	39496879.693788394
2.057589530944824	39685074.4911644
2.0609018802642822	40978485.195667125
2.0642096996307373	42098082.26861239
2.0675129890441895	42866987.41527427
2.0708119869232178	43177238.746206366
2.074106216430664	42964017.60032055
2.0773961544036865	42817708.917010985
2.080681324005127	43170156.526961185
2.0839622020721436	43671962.67937071
2.087238311767578	44051713.53562581
2.090510129928589	44059978.410721
2.0937774181365967	43791575.86574765
2.0970399379730225	43809207.77526329
2.1002981662750244	43933430.082617484
2.1035518646240234	43724923.29863153
2.1068007946014404	43425139.981139265
2.1100454330444336	43831007.47935181
2.1132853031158447	44560653.45290846
2.116520881652832	44566818.82512164
2.1197516918182373	44411070.64760973
2.1229779720306396	44669855.2521354
2.12619948387146	44945764.91793925
2.1294167041778564	45020613.652876705
2.132629156112671	45085280.197598934
2.1358368396759033	44960201.26582189
2.139039993286133	44552840.71326122
2.1422386169433594	44236037.97686501
2.145432472229004	44063332.339207284
2.1486217975616455	43862834.938076116
2.151806354522705	43550558.583327
2.1549863815307617	43481549.65446357
2.1581614017486572	43625501.24458134
2.16133189201355	43505831.513882846
2.1644976139068604	43323115.55937006
2.167658567428589	43215826.78527622
2.1708147525787354	43054643.06059159
2.173966407775879	42752480.33111835
2.1771130561828613	42483221.18487232
2.1802549362182617	42436173.26779127
2.183391809463501	42315061.30753904
2.1865241527557373	41946172.283100516
2.1896514892578125	41310853.945207484
2.1927738189697266	39779334.18256795
2.1958916187286377	37037914.83013743
2.1990041732788086	34362760.44836515
2.2021119594573975	32960399.041668482
2.2052149772644043	32509793.020691447
2.208312749862671	32806649.417571746
2.2114057540893555	33867451.837052785
2.214493751525879	34743462.825599365
2.217576742172241	34641110.456879474
2.2206547260284424	34282668.52548054
2.2237277030944824	33995889.064198986
2.2267956733703613	32800190.358296406
2.2298583984375	31028931.824619222
2.2329163551330566	29938009.998458114
2.235969066619873	29713008.51061638
2.2390167713165283	29337807.379898544
2.2420592308044434	27747557.844158895
2.2450966835021973	25827253.73809181
2.248128890991211	25772128.04635036
2.2511560916900635	27296576.98424548
2.254178285598755	28394121.045254104
2.257194995880127	29012322.76924757
2.260206699371338	28982071.19723467
2.2632133960723877	27273163.59707241
2.266214609146118	24960583.778514024
2.2692108154296875	24064527.20864974
2.2722020149230957	25045209.44715109
2.2751877307891846	26379000.356662307
2.278168201446533	26251903.23807058
2.2811436653137207	25009635.679849558
2.284113883972168	24146267.8395266
2.287078857421875	23629542.797070555
2.290038824081421	22468629.638576362
2.2929933071136475	20358514.241787493
2.295942783355713	17740012.80563251
2.298887014389038	15343243.497885501
2.301826238632202	13709821.795699634
2.304760217666626	12888121.823849652
2.3076889514923096	12741272.979737027
2.310612440109253	13302871.27302513
2.3135311603546143	13564234.32645113
2.3164443969726562	12153891.821599836
2.319352865219116	10269471.959077869
2.322256088256836	9554572.731185872
2.3251543045043945	9483311.813021906
2.328047275543213	9474765.565610912
2.330935478210449	9766937.14292266
2.3338186740875244	10279534.071141712
2.3366971015930176	10804468.592984367
2.3395702838897705	11359489.967649786
2.3424389362335205	11884348.896881232
2.3453025817871094	12430855.006861426
2.348161458969116	12827726.825627403
2.351015567779541	13033323.86700365
2.353865146636963	13389427.45139394
2.3567099571228027	13688903.893665306
2.3595502376556396	14240582.76532754
2.3623859882354736	15566976.255173948
2.3652172088623047	15706751.599578643
2.368043899536133	12954877.183092281
2.370866537094116	10438157.325106665
2.3736846446990967	10951378.07168908
2.3764986991882324	11358444.82724178
2.3793084621429443	10037212.0941708
2.3821144104003906	9689342.766669814
2.384916305541992	11592830.320465468
2.387714147567749	14425151.012005996
2.3905084133148193	16221740.29575494
2.393299102783203	16240696.503472675
2.3960859775543213	14612098.23552053
2.398869514465332	12795991.841472052
2.4016497135162354	11851799.822172219
2.4044265747070312	11593084.609326158
2.407200336456299	12296914.0884074
2.409970998764038	13520459.763651589
2.4127390384674072	14230911.550691156
2.415503978729248	14686427.451936819
2.418266534805298	15710470.765202874
2.4210267066955566	16585291.130216403
2.4237842559814453	16112268.593018053
2.426539897918701	14998641.661568196
2.429293394088745	14654632.235426191
2.4320452213287354	15120876.424511546
2.4347951412200928	15664405.090060137
2.4375438690185547	15775631.045441652
2.440291166305542	15240532.262110535
2.443037271499634	14086353.754522327
2.445782423019409	12675894.243376443
2.4485268592834473	11393986.91153508
2.451270818710327	10968218.466583122
2.454014539718628	12636393.770720584
2.4567582607269287	14687724.045378268
2.4595019817352295	14307553.667455183
2.4622461795806885	14016191.058682803
2.4649908542633057	14071536.254023168
2.4677364826202393	11754151.277175486
2.4704833030700684	8706045.511020536
2.473231554031372	6516381.209304911
2.4759814739227295	5093458.060400941
2.4787333011627197	4628324.201317948
