#wavelength	surface flux
0.6450077295303345	875101.4475266573
0.6472567915916443	1309680.3132810453
0.6494921445846558	1564935.550759708
0.6517150402069092	1622883.8768007974
0.6539263725280762	1662054.8621989489
0.6561272740364075	1696012.7280646423
0.6583186388015747	1736514.9586531017
0.6605015397071838	1783308.2932237785
0.6626768708229065	1819719.2599085208
0.6648455858230591	1860087.135644323
0.6670085787773132	1896117.8396723387
0.6691668033599854	1867490.0468238841
0.6713210344314575	1858181.3943493054
0.6734722256660461	1971059.6188984565
0.6756211519241333	2096759.779421906
0.6777685880661011	2157069.043647532
0.6799154281616211	2181670.9616600713
0.6820623278617859	2224974.6004628595
0.6842101216316223	2305443.7355834604
0.6863595843315125	2374142.774834858
0.688511312007904	2413324.6888729855
0.6906660795211792	2430320.5755371316
0.6928245425224304	2475310.19267215
0.6949873566627502	2572111.6946555707
0.6971551775932312	2661327.936846882
0.6993286609649658	2723906.324836324
0.7015084028244019	2781358.034255501
0.7036949396133423	2839354.0542340064
0.7058889269828796	2899594.038938441
0.7080909013748169	2960383.883127553
0.710301399230957	3021266.3749240935
0.712520956993103	3083199.435888884
0.7147500514984131	3143448.5654497524
0.7169892191886902	3202119.847982969
0.7192389369010925	3265419.1242084084
0.7214996814727783	3331685.5392663777
0.723771870136261	3396794.007628019
0.7260559797286987	3463406.643736053
0.7283523678779602	3531502.3055475135
0.7306615710258484	3600970.02964309
0.7329838871955872	3672221.8009198587
0.7353196740150452	3742540.770215916
0.7376693487167358	3813200.907748158
0.7400332689285278	3885143.132933985
0.7424117922782898	3954162.386511089
0.7448052167892456	4020021.1575990682
0.7472138404846191	4083311.216884189
0.7496379613876343	4138607.6574192564
0.7520779371261597	4176087.7211783757
0.7545340061187744	4180971.946540217
0.7570064663887024	4120309.7325386344
0.7594954967498779	3899607.355639287
0.7620013952255249	3270055.8145937547
0.7645244002342224	2088386.0516821942
0.7670646905899048	1008326.5872182789
0.7696225643157959	978689.3962421666
0.7721980810165405	2180458.310116113
0.7747915983200073	3671450.170690702
0.7774031162261963	4526407.411084897
0.7800329327583313	4897330.7756972
0.7826811671257019	5170825.571504234
0.7853479981422424	5409762.21814689
0.7880334854125977	5586346.339355919
0.7907378077507019	5623531.677487954
0.7934610247612	5410036.299489127
0.7962033748626709	5439130.845352214
0.7989648580551147	5917055.42503422
0.801745593547821	6268661.109832335
0.8045456409454346	6408794.308798295
0.8073651194572449	6526932.176500363
0.8102040886878967	6638371.468491389
0.8130625486373901	6762007.905881184
0.8159406185150146	6898243.021017896
0.8188382983207703	7031905.575366682
0.8217556476593018	7177077.932251167
0.8246926665306091	7333973.958114771
0.8276493549346924	7482546.194626558
0.8306257724761963	7626654.513631932
0.8336219191551208	7773248.706368331
0.8366377949714661	7915539.280467773
0.8396733403205872	8063222.996090344
0.8427285552024841	8228077.955917047
0.8458034992218018	8394488.844414128
0.8488980531692505	8554794.012218243
0.8520121574401855	8717957.462050468
0.8551458716392517	8888720.643374063
0.8582990765571594	9030248.190217206
0.8614717125892639	9090015.982591305
0.8646637797355652	9176377.733352074
0.8678751587867737	9364771.714998437
0.8711057901382446	9553220.890324462
0.8743556141853333	9733128.993598219
0.87762451171875	9919799.62438198
0.8809124231338501	10097792.463458922
0.8842192888259888	10296006.787172299
0.8875449895858765	10480788.537631135
0.8908893465995789	10626651.68772888
0.894252359867096	10811432.134335702
0.8976338505744934	11056488.433741843
0.9010337591171265	11300269.348403808
0.9044519662857056	11528230.02066001
0.9078882932662964	11746951.423405139
0.9113426208496094	11947547.780916788
0.914814829826355	12121148.997994306
0.9183048605918884	12301254.826506061
0.9218124747276306	12470095.633736383
0.925337553024292	12440344.142761163
0.9288799166679382	12259435.177933732
0.9324395060539246	12319515.11752729
0.9360161423683167	12663349.05201091
0.9396095871925354	13026961.646427423
0.943219780921936	13237164.759523038
0.9468464851379395	13376148.65245683
0.9504896402359009	13618387.735377088
0.9541489481925964	13911425.734015789
0.9578243494033813	14077192.005694218
0.9615156054496765	14090001.076864172
0.9652225375175476	14178582.240986709
0.9689450263977051	14493502.647406876
0.9726828336715698	14995243.819825798
0.9764357805252075	15441485.736947205
0.9802037477493286	15748974.084416635
0.983986496925354	16024149.391559383
0.9877838492393494	16231970.09966198
0.9915955662727356	16411152.53584525
0.9954215884208679	16705407.226000864
0.9992615580558777	17007113.227811307
1.0031154155731201	17208183.66535005
1.0069829225540161	17478098.175768506
1.0108637809753418	17836920.887337316
1.0147579908370972	18210435.685154144
1.018665075302124	18571991.81619588
1.022585153579712	18812957.76229486
1.0265177488327026	18998502.850982435
1.0304628610610962	19315715.68791063
1.0344202518463135	19733885.78235293
1.0383895635604858	20100348.18170708
1.0423706769943237	20386301.78703932
1.0463634729385376	20664616.429073658
1.0503677129745483	20947447.957787976
1.0543830394744873	21243148.057878487
1.058409333229065	21538797.63761045
1.0624464750289917	21812916.023834877
1.0664942264556885	22093420.073016454
1.0705522298812866	22377619.642042994
1.0746204853057861	22657060.416926164
1.0786986351013184	22939603.405910656
1.0827864408493042	23212357.811206207
1.086883783340454	23421655.538213044
1.0909905433654785	23532930.899780273
1.0951062440872192	23543015.88183271
1.0992310047149658	23172294.419298228
1.10336434841156	22501925.941355437
1.1075061559677124	22344872.249944665
1.1116561889648438	22557248.276845887
1.115814208984375	22628819.063910082
1.1199802160263062	22800222.09533826
1.124153733253479	23261490.41230537
1.1283347606658936	23545940.025542744
1.1325229406356812	23190069.86860375
1.1367181539535522	23397762.614867583
1.1409201622009277	24491172.05179769
1.145128846168518	25230061.912550114
1.1493438482284546	25017598.478577532
1.1535650491714478	24257330.165596984
1.1577922105789185	24086052.98364415
1.1620250940322876	24695037.604526643
1.1662636995315552	25548556.32854933
1.170507550239563	26122968.016417198
1.174756646156311	26704853.766829096
1.1790107488632202	27653124.27328571
1.1832695007324219	28479456.23673356
1.1875330209732056	28983908.384782963
1.191800832748413	29451791.45394198
1.1960728168487549	30004756.64213723
1.2003488540649414	30432389.237525593
1.2046287059783936	30731936.357954618
1.2089121341705322	31011082.30084215
1.2131990194320679	31362756.83361458
1.2174891233444214	31804690.85389533
1.2217823266983032	32225490.563311167
1.2260783910751343	32583517.948726337
1.230377197265625	32905168.79284166
1.2346785068511963	33213649.497846782
1.238982081413269	33530020.26427545
1.2432878017425537	33830379.11185955
1.2475954294204712	34039250.94648178
1.2519049644470215	34185777.949336365
1.256216049194336	34510267.44414663
1.2605286836624146	34901128.1536654
1.2648425102233887	35153514.88980924
1.2691574096679688	35379136.83202044
1.2734732627868652	35625262.00312541
1.2777899503707886	35867793.747036345
1.2821072340011597	36086346.01525528
1.2864248752593994	36260763.07865884
1.2907428741455078	36382511.345419005
1.2950609922409058	36565945.050465554
1.2993791103363037	36766793.42492729
1.303696870803833	36872073.44270755
1.3080145120620728	37035066.1962503
1.3123314380645752	37303665.408105515
1.3166478872299194	37533432.60785221
1.3209635019302368	37409275.22291635
1.3252781629562378	36655236.35515927
1.3295916318893433	34526449.37466307
1.3339040279388428	29747732.61915259
1.3382149934768677	23414600.733746123
1.3425244092941284	20381335.6762719
1.3468321561813354	21584226.03845439
1.3511382341384888	21332642.22990718
1.3554422855377197	19375117.369279265
1.3597444295883179	19030287.021983724
1.3640443086624146	20190344.185803074
1.3683418035507202	22384977.794456128
1.3726370334625244	25571575.906713188
1.3769296407699585	27740884.52673529
1.381219506263733	24975088.666303396
1.3855066299438477	20339876.90704609
1.3897908926010132	18694694.790874444
1.3940720558166504	18680507.920092378
1.3983501195907593	19295244.764575258
1.4026249647140503	22125690.996939547
1.4068963527679443	24543670.5096333
1.4111642837524414	22384421.535916176
1.4154287576675415	20801777.997508932
1.419689416885376	21677432.335470807
1.4239463806152344	21627701.670145035
1.4281994104385376	22460151.179666735
1.4324485063552856	22737547.350849595
1.436693549156189	22232779.308868974
1.440934419631958	23902418.778062005
1.4451709985733032	27074692.071296357
1.449403166770935	30143838.796620086
1.453631043434143	31828230.943065874
1.4578542709350586	32673273.02706863
1.4620729684829712	33578356.810497664
1.4662868976593018	33849988.38180539
1.4704961776733398	33591671.879630014
1.4747005701065063	33833182.2468342
1.4788999557495117	34574179.770740785
1.4830944538116455	35698608.922597945
1.4872838258743286	36757096.374905236
1.491468071937561	37118487.81266306
1.4956470727920532	37485819.62812956
1.4998208284378052	38568461.50083632
1.5039892196655273	39680131.47615242
1.5081522464752197	39938030.8655051
1.5123097896575928	40073761.23594169
1.5164618492126465	40861758.80354052
1.5206083059310913	42135689.40588479
1.5247491598129272	43032942.73823745
1.5288842916488647	43171783.23189177
1.5330137014389038	43499375.80661128
1.5371372699737549	44120747.154728055
1.541254997253418	44508093.17274212
1.545366883277893	44960407.41121425
1.5494728088378906	45520349.70274731
1.5535727739334106	45825750.045408785
1.5576666593551636	45932509.90179857
1.561754584312439	46278416.411953464
1.5658363103866577	46904996.33173857
1.5699119567871094	47333723.15952755
1.5739814043045044	47390509.91465722
1.5780447721481323	47359645.67338695
1.582101821899414	47674000.176906824
1.5861525535583496	48237333.79920226
1.5901970863342285	48601085.62515602
1.5942351818084717	48764674.066392116
1.5982669591903687	48897554.0230715
1.6022924184799194	49117532.323035754
1.606311559677124	49372855.92468838
1.6103241443634033	49551078.98541904
1.6143304109573364	49714771.78831361
1.6183301210403442	49886979.66369788
1.6223233938217163	50108576.20866081
1.6263102293014526	50385265.394100964
1.6302905082702637	50565157.07505598
1.634264349937439	50692692.09345561
1.638231635093689	50875976.79246844
1.6421923637390137	51055346.22694371
1.646146535873413	51201262.97565341
1.6500942707061768	51268571.68053112
1.6540353298187256	51291943.93970993
1.6579699516296387	51301916.43294215
1.661897897720337	51290548.64044862
1.6658192873001099	51316469.63158005
1.6697341203689575	51397905.603455804
1.6736423969268799	51675090.8981757
1.677544116973877	52011889.78855436
1.6814392805099487	52176231.89311541
1.6853278875350952	52244048.36604589
1.6892099380493164	52124368.915187635
1.6930854320526123	51757762.892419964
1.696954369544983	51545530.0877976
1.7008168697357178	51710318.46193986
1.7046726942062378	51774446.99919861
1.708522081375122	51467666.959267825
1.712364912033081	51071417.47679474
1.7162011861801147	50922380.47595278
1.7200311422348022	50980741.52638734
1.723854422569275	50899266.378107056
1.7276713848114014	50473120.55134691
1.731481909751892	49595319.007968016
1.7352858781814575	48584559.63577202
1.7390835285186768	47839168.60428235
1.7428747415542603	46958722.86069387
1.7466596364974976	45728624.40167261
1.7504380941390991	44236770.48411117
1.7542102336883545	43176316.06101314
1.7579760551452637	44572023.248793714
1.7617355585098267	46813090.50149137
1.7654887437820435	46043928.41929647
1.7692357301712036	42712969.47451395
1.7729763984680176	38545329.15384401
1.776710867881775	34087298.724005714
1.7804391384124756	32250959.317345824
1.7841613292694092	32514613.472811084
1.7878772020339966	31439063.430849332
1.7915871143341064	31454308.181787267
1.7952908277511597	32616333.188312706
1.7989884614944458	31188035.03770193
1.8026801347732544	26879187.303637248
1.806365728378296	22352249.862269707
1.8100452423095703	22409793.524711642
1.8137187957763672	25100660.003311526
1.817386507987976	24632276.715153918
1.8210482597351074	25890907.63869735
1.8247040510177612	27206322.630335957
1.828354001045227	24062497.977115516
1.8319982290267944	24131806.41785449
1.8356364965438843	28222419.55817714
1.8392690420150757	31459707.318906214
1.8428958654403687	31945065.23298295
1.8465168476104736	31112914.067776527
1.8501322269439697	29566534.62541803
1.8537418842315674	25133494.135489155
1.8573459386825562	22284027.42261915
1.860944390296936	22043179.63146992
1.864537239074707	21693172.409907516
1.8681244850158691	24517547.694027584
1.871706247329712	29237130.47644637
1.8752825260162354	32057171.93727972
1.8788533210754395	33976704.89535607
1.8824186325073242	35038100.41873975
1.8859784603118896	34347383.549230434
1.8895330429077148	34374777.829463
1.8930821418762207	36424198.714731686
1.8966259956359863	36239486.65206598
1.9001644849777222	31120751.643310983
1.9036977291107178	26510804.301678885
1.9072256088256836	27204381.86341401
1.9107483625411987	27134747.274110865
1.9142658710479736	23273205.787565425
1.9177782535552979	22813049.59802229
1.9212853908538818	25368867.329962064
1.9247875213623047	25299452.794498254
1.9282845258712769	25486118.436106496
1.9317764043807983	28113234.30594305
1.9352631568908691	28992109.47873296
1.9387450218200684	27328920.43273092
1.942221760749817	26540825.856395587
1.9456936120986938	26903624.19356793
1.9491604566574097	27244715.18091179
1.952622413635254	26416473.381175373
1.956079363822937	24953533.578825813
1.959531545639038	25577061.106902517
1.962978720664978	26758024.116725016
1.966421127319336	28435884.134613335
1.9698586463928223	31301433.06888167
1.9732913970947266	32400438.571275778
1.9767193794250488	32786770.481228005
1.9801424741744995	34757313.21307748
1.9835609197616577	36723662.03999008
1.9869745969772339	36791326.344865
1.990383505821228	34838188.544195764
1.9937876462936401	33830999.21948873
1.9971871376037598	33917847.54589851
2.000581979751587	34843179.66838621
2.003972291946411	37497645.5969793
2.007357597351074	39308643.75982864
2.0107386112213135	40720068.77356226
2.0141148567199707	41606961.38727386
2.017486572265625	40509070.49766841
2.0208535194396973	40544455.53764341
2.0242159366607666	42461731.86994514
2.027573823928833	43852424.673460014
2.0309269428253174	44678420.53876418
2.034275770187378	45589486.464133054
2.0376198291778564	46265318.06312667
2.040959596633911	46909651.221617915
2.044294595718384	47751358.90762568
2.0476250648498535	48673381.12068552
2.0509510040283203	49049864.605561756
2.054272413253784	48586157.96255358
2.057589530944824	48609101.12778932
2.0609018802642822	49373725.39763489
2.0642096996307373	50091035.73578771
2.0675129890441895	50613327.56007642
2.0708119869232178	50802508.31097027
2.074106216430664	50630387.58080136
2.0773961544036865	50569124.43779838
2.080681324005127	50819751.28860279
2.0839622020721436	51153038.499904364
2.087238311767578	51445129.722384065
2.090510129928589	51472422.41455904
2.0937774181365967	51297549.56078011
2.0970399379730225	51332666.197214544
2.1002981662750244	51462740.17486203
2.1035518646240234	51434045.209215455
2.1068007946014404	51436009.72573753
2.1100454330444336	51829364.1109854
2.1132853031158447	52298463.97438066
2.116520881652832	52322734.97283942
2.1197516918182373	52272205.70603149
2.1229779720306396	52434669.31092831
2.12619948387146	52567448.594965376
2.1294167041778564	52604446.46562322
2.132629156112671	52703403.51520603
2.1358368396759033	52747983.056597345
2.139039993286133	52640207.75777403
2.1422386169433594	52632672.50655165
2.145432472229004	52717189.24096267
2.1486217975616455	52659223.734663755
2.151806354522705	52527189.72215502
2.1549863815307617	52521332.94724359
2.1581614017486572	52645806.72701462
2.16133189201355	52735507.97813837
2.1644976139068604	52724842.27169899
2.167658567428589	52640136.77548489
2.1708147525787354	52478582.37779049
2.173966407775879	52265620.46069904
2.1771130561828613	52165058.95655513
2.1802549362182617	52288968.35098721
2.183391809463501	52454444.98895282
2.1865241527557373	52524679.28983335
2.1896514892578125	52544707.34204081
2.1927738189697266	52439799.80707665
2.1958916187286377	52132878.223077826
2.1990041732788086	51865251.672862485
2.2021119594573975	51845468.297629334
2.2052149772644043	51950782.0891516
2.208312749862671	52057348.07190876
2.2114057540893555	52088229.70416485
2.214493751525879	51982655.952905536
2.217576742172241	51822765.081873834
2.2206547260284424	51774031.42524074
2.2237277030944824	51802030.74520392
2.2267956733703613	51714592.863093615
2.2298583984375	51564556.06785161
2.2329163551330566	51505532.69005193
2.235969066619873	51573561.930346474
2.2390167713165283	51600192.88891377
2.2420592308044434	51263985.43280283
2.2450966835021973	50678119.68331011
2.248128890991211	50348558.1634449
2.2511560916900635	50482863.014050215
2.254178285598755	50800092.39224301
2.257194995880127	50986072.98827134
2.260206699371338	50913254.15190355
2.2632133960723877	50409465.38186414
2.266214609146118	49690478.22828431
2.2692108154296875	49318442.978764094
2.2722020149230957	49456712.968245566
2.2751877307891846	49779705.599485345
2.278168201446533	49690513.268298
2.2811436653137207	49165804.71509739
2.284113883972168	48999164.08950645
2.287078857421875	49236991.09743722
2.290038824081421	48469494.73527039
2.2929933071136475	45448672.6622803
2.295942783355713	40911942.559398085
2.298887014389038	36648947.27626624
2.301826238632202	33485004.654443603
2.304760217666626	31152298.870635007
2.3076889514923096	29576637.844821423
2.310612440109253	29707360.779137976
2.3135311603546143	31115114.612246998
2.3164443969726562	31731480.964572143
2.319352865219116	31251701.464018565
2.322256088256836	30613847.12333905
2.3251543045043945	30333608.346709713
2.328047275543213	30496043.816368494
2.330935478210449	31097604.007894102
2.3338186740875244	32113087.27862078
2.3366971015930176	33350980.82344385
2.3395702838897705	34757406.515395805
2.3424389362335205	36468058.39365861
2.3453025817871094	38574208.83590707
2.348161458969116	39843246.47468286
2.351015567779541	39010587.66898768
2.353865146636963	37108911.82570741
2.3567099571228027	35619665.057648525
2.3595502376556396	35448213.92109345
2.3623859882354736	36801703.34007518
2.3652172088623047	37310749.81003803
2.368043899536133	35734730.29743234
2.370866537094116	35748523.53854434
2.3736846446990967	37920745.59807443
2.3764986991882324	36955157.52880106
2.3793084621429443	33071758.055040758
2.3821144104003906	31403892.091103163
2.384916305541992	33366918.13382137
2.387714147567749	37206478.43309976
2.3905084133148193	40364983.13290915
2.393299102783203	40689715.660092175
2.3960859775543213	37718946.035713896
2.398869514465332	33992967.68052395
2.4016497135162354	32034323.022939254
2.4044265747070312	31789365.599004
2.407200336456299	32401708.771869525
2.409970998764038	32932648.421642665
2.4127390384674072	32971401.997529868
2.415503978729248	33194211.59552737
2.418266534805298	34084344.79320393
2.4210267066955566	34881056.545265354
2.4237842559814453	34784857.37005039
2.426539897918701	33968709.91770341
2.429293394088745	32875128.116764866
2.4320452213287354	32136513.25256932
2.4347951412200928	32247511.07504458
2.4375438690185547	32475254.01307272
2.440291166305542	31802918.063531067
2.443037271499634	30316576.230077416
2.445782423019409	28863908.59104243
2.4485268592834473	27813019.943910096
2.451270818710327	27334476.91614867
2.454014539718628	28864803.461777393
2.4567582607269287	31173577.136441052
2.4595019817352295	30787967.56476038
2.4622461795806885	30232238.749404117
2.4649908542633057	30258662.02275727
2.4677364826202393	27635197.33661604
2.4704833030700684	23560542.161231443
2.473231554031372	19790765.08231427
2.4759814739227295	16881937.067625195
2.4787333011627197	15971457.969178153
2.481487512588501	17810083.056855805
