#wavelength	surface flux
0.6450077295303345	58922.43871062479
0.6472567915916443	90440.10626048424
0.6494921445846558	112656.10735963024
0.6517150402069092	122452.58417184642
0.6539263725280762	131488.54359530998
0.6561272740364075	140454.22032697452
0.6583186388015747	149548.3795097219
0.6605015397071838	158881.1364491278
0.6626768708229065	168233.2867701009
0.6648455858230591	176853.2791520134
0.6670085787773132	179088.9637573577
0.6691668033599854	165526.91830977873
0.6713210344314575	160233.1094991569
0.6734722256660461	188765.55158698242
0.6756211519241333	220939.854311463
0.6777685880661011	237126.57554678977
0.6799154281616211	248610.04550485322
0.6820623278617859	259451.6681199859
0.6842101216316223	270117.57436867926
0.6863595843315125	280621.4506864121
0.688511312007904	290526.1341492958
0.6906660795211792	298567.165240142
0.6928245425224304	306451.9831721319
0.6949873566627502	317956.50358446705
0.6971551775932312	330636.86158272496
0.6993286609649658	340994.04960518447
0.7015084028244019	350025.0710560974
0.7036949396133423	359672.3879196744
0.7058889269828796	369889.8706916925
0.7080909013748169	378898.5101257054
0.710301399230957	387156.41813269927
0.712520956993103	394873.9646062548
0.7147500514984131	399158.22368899104
0.7169892191886902	400409.5658913648
0.7192389369010925	404042.3020173173
0.7214996814727783	408395.7152630046
0.723771870136261	408514.9074735027
0.7260559797286987	406062.8278187844
0.7283523678779602	402603.81988091127
0.7306615710258484	398486.46557387186
0.7329838871955872	393907.7573399628
0.7353196740150452	385909.0971834181
0.7376693487167358	373189.46519857616
0.7400332689285278	355690.70868275047
0.7424117922782898	331951.76069916296
0.7448052167892456	302807.33370576677
0.7472138404846191	268442.7016835473
0.7496379613876343	228360.26157890033
0.7520779371261597	183908.17055448474
0.7545340061187744	137501.2567315342
0.7570064663887024	92748.38778346083
0.7594954967498779	54072.313869945516
0.7620013952255249	25471.55410089401
0.7645244002342224	8790.466745303112
0.7670646905899048	2302.7985922266744
0.7696225643157959	2692.8368577856018
0.7721980810165405	11714.084208885668
0.7747915983200073	34782.275576749875
0.7774031162261963	69778.21695462345
0.7800329327583313	119102.34138079942
0.7826811671257019	197026.28031743827
0.7853479981422424	292802.21232752415
0.7880334854125977	382871.7426579201
0.7907378077507019	426025.8952550311
0.7934610247612	399324.5450129879
0.7962033748626709	467569.55040143314
0.7989648580551147	668336.3705719281
0.801745593547821	820740.09748849
0.8045456409454346	907625.9517341895
0.8073651194572449	978809.8541726224
0.8102040886878967	1034930.4883761593
0.8130625486373901	1093772.370535255
0.8159406185150146	1172152.4589456597
0.8188382983207703	1251295.86820417
0.8217556476593018	1319344.3446538849
0.8246926665306091	1388627.5251106028
0.8276493549346924	1455482.8458260787
0.8306257724761963	1513882.6447640632
0.8336219191551208	1572515.657456606
0.8366377949714661	1630045.1266271914
0.8396733403205872	1699892.639106058
0.8427285552024841	1792287.8029625926
0.8458034992218018	1877074.6145175544
0.8488980531692505	1923482.430682068
0.8520121574401855	1959600.4857780351
0.8551458716392517	2053678.7979001137
0.8582990765571594	2166055.611358058
0.8614717125892639	2228577.6651252685
0.8646637797355652	2281801.8210352683
0.8678751587867737	2361168.50607499
0.8711057901382446	2446975.7893035086
0.8743556141853333	2522356.331893733
0.87762451171875	2584377.0531578767
0.8809124231338501	2633970.451728323
0.8842192888259888	2681781.1915890775
0.8875449895858765	2715863.8647806416
0.8908893465995789	2695456.750057704
0.894252359867096	2675392.2282995563
0.8976338505744934	2791796.1214331063
0.9010337591171265	2999777.081035734
0.9044519662857056	3161020.462774229
0.9078882932662964	3266804.142056907
0.9113426208496094	3344572.3174946615
0.914814829826355	3375905.9700650745
0.9183048605918884	3412730.5911291735
0.9218124747276306	3439202.2639105753
0.925337553024292	3152971.6811507866
0.9288799166679382	2604317.0350463623
0.9324395060539246	2366832.231815409
0.9360161423683167	2568322.205517696
0.9396095871925354	2863902.485995914
0.943219780921936	2878273.210848013
0.9468464851379395	2749427.7837247173
0.9504896402359009	2857268.773250788
0.9541489481925964	3095953.041446648
0.9578243494033813	3134743.1788070137
0.9615156054496765	2912958.7235725573
0.9652225375175476	2823166.890881254
0.9689450263977051	3128950.326259082
0.9726828336715698	3692541.0298542427
0.9764357805252075	4108470.5871073278
0.9802037477493286	4322696.832266666
0.983986496925354	4535363.811422432
0.9877838492393494	4785128.802185857
0.9915955662727356	5069044.77606745
0.9954215884208679	5304189.625549009
0.9992615580558777	5477599.402954901
1.0031154155731201	5634343.312552215
1.0069829225540161	5823693.508711424
1.0108637809753418	6047507.86313528
1.0147579908370972	6269182.944830542
1.018665075302124	6447377.415238456
1.022585153579712	6552661.868719259
1.0265177488327026	6623921.666776012
1.0304628610610962	6756336.098775373
1.0344202518463135	6980279.274148975
1.0383895635604858	7192298.07710275
1.0423706769943237	7345459.686461423
1.0463634729385376	7470161.339937088
1.0503677129745483	7587202.509962952
1.0543830394744873	7735125.150719171
1.058409333229065	7898704.476014357
1.0624464750289917	8040723.391476325
1.0664942264556885	8158436.523257373
1.0705522298812866	8267306.913662432
1.0746204853057861	8400988.857764618
1.0786986351013184	8551090.30923067
1.0827864408493042	8678607.449301478
1.086883783340454	8703086.804208953
1.0909905433654785	8569014.11258796
1.0951062440872192	8229717.608769944
1.0992310047149658	7169272.331568979
1.10336434841156	5624089.524882868
1.1075061559677124	5006951.531977306
1.1116561889648438	4898464.542679375
1.115814208984375	4379471.600051456
1.1199802160263062	3957644.040220541
1.124153733253479	4046185.563101912
1.1283347606658936	4261417.435763583
1.1325229406356812	4032817.198151878
1.1367181539535522	4364724.068837531
1.1409201622009277	5411546.619247823
1.145128846168518	6012290.517417532
1.1493438482284546	5257771.1455150265
1.1535650491714478	3537153.6801537788
1.1577922105789185	2838496.9406959102
1.1620250940322876	3549430.419710295
1.1662636995315552	4724042.7284986125
1.170507550239563	5591301.4596030945
1.174756646156311	6619646.262747104
1.1790107488632202	8142643.458544573
1.1832695007324219	9363464.439929396
1.1875330209732056	10057630.10151107
1.191800832748413	10699207.517531214
1.1960728168487549	11474677.071380353
1.2003488540649414	12003833.085604053
1.2046287059783936	12267523.434172133
1.2089121341705322	12485248.689637799
1.2131990194320679	12775458.261693709
1.2174891233444214	13169705.49030534
1.2217823266983032	13566128.172928145
1.2260783910751343	13900585.563077837
1.230377197265625	14160263.193545526
1.2346785068511963	14371807.512642568
1.238982081413269	14612064.377196705
1.2432878017425537	14838477.171663938
1.2475954294204712	14990201.662767522
1.2519049644470215	15113827.377615806
1.256216049194336	15334615.033564188
1.2605286836624146	15538818.941327425
1.2648425102233887	15627034.413098697
1.2691574096679688	15699473.662439471
1.2734732627868652	15796889.430010755
1.2777899503707886	15874304.12821301
1.2821072340011597	15869067.203130167
1.2864248752593994	15719965.027617317
1.2907428741455078	15416838.457072198
1.2950609922409058	15320006.133584572
1.2993791103363037	15288730.156745099
1.303696870803833	14979114.39311145
1.3080145120620728	14781019.07223806
1.3123314380645752	14935773.777994022
1.3166478872299194	15322969.451576931
1.3209635019302368	14895187.415973734
1.3252781629562378	13058830.880627846
1.3295916318893433	9977967.485180704
1.3339040279388428	5827681.373125574
1.3382149934768677	2366361.910150132
1.3425244092941284	955810.9440394657
1.3468321561813354	794972.6298478268
1.3511382341384888	628917.827388077
1.3554422855377197	387931.8629463553
1.3597444295883179	328948.59625871136
1.3640443086624146	346896.2923215519
1.3683418035507202	492261.31455705257
1.3726370334625244	1046423.7082653531
1.3769296407699585	1689153.157251123
1.381219506263733	1348045.6855908923
1.3855066299438477	509428.4435728286
1.3897908926010132	221525.14790925884
1.3940720558166504	274434.3048457076
1.3983501195907593	418866.4071889046
1.4026249647140503	790169.1113927476
1.4068963527679443	1069093.5773572386
1.4111642837524414	800579.2318280712
1.4154287576675415	543529.9739052564
1.419689416885376	520149.90560098796
1.4239463806152344	491121.1206784541
1.4281994104385376	663120.8157528337
1.4324485063552856	879510.4804349988
1.436693549156189	979835.5193494626
1.440934419631958	1204185.580242533
1.4451709985733032	1921605.7106184268
1.449403166770935	3209714.7654311373
1.453631043434143	4142972.23597797
1.4578542709350586	4610945.397150826
1.4620729684829712	5206710.29837294
1.4662868976593018	5262311.506198376
1.4704961776733398	4659272.229054002
1.4747005701065063	4301978.794536911
1.4788999557495117	4640881.964795653
1.4830944538116455	5983225.995097887
1.4872838258743286	7483618.065377436
1.491468071937561	7888000.815246041
1.4956470727920532	7724521.838077451
1.4998208284378052	8439062.568777723
1.5039892196655273	9617562.972981447
1.5081522464752197	9956048.600369439
1.5123097896575928	10443980.159614192
1.5164618492126465	11958963.22610983
1.5206083059310913	14125040.55855586
1.5247491598129272	15738906.132701702
1.5288842916488647	16057316.648354543
1.5330137014389038	16524104.635541044
1.5371372699737549	17511192.075282633
1.541254997253418	18179851.22781307
1.545366883277893	18899376.615342125
1.5494728088378906	19758953.411718145
1.5535727739334106	20250738.83459666
1.5576666593551636	20400051.35963705
1.561754584312439	20959857.095447272
1.5658363103866577	21987971.40836952
1.5699119567871094	22507458.431302555
1.5739814043045044	22125253.989915855
1.5780447721481323	21514637.32471633
1.582101821899414	22003182.73979427
1.5861525535583496	23296455.876209974
1.5901970863342285	23747928.850636795
1.5942351818084717	23255832.819933522
1.5982669591903687	22594830.288045216
1.6022924184799194	22178783.99804004
1.606311559677124	22002759.13725992
1.6103241443634033	21729311.340370327
1.6143304109573364	21026761.111886557
1.6183301210403442	19899884.161514793
1.6223233938217163	18486020.142276887
1.6263102293014526	16873426.776016664
1.6302905082702637	15550959.502850963
1.634264349937439	16584123.681847014
1.638231635093689	20002835.1392953
1.6421923637390137	21704031.144024767
1.646146535873413	19899003.26476985
1.6500942707061768	17867294.79641308
1.6540353298187256	18562564.889645603
1.6579699516296387	19872093.821078844
1.661897897720337	18547912.846791375
1.6658192873001099	14256752.393244706
1.6697341203689575	12102441.186225856
1.6736423969268799	14931547.444909004
1.677544116973877	16955442.371848866
1.6814392805099487	16398657.177525647
1.6853278875350952	15695072.877725603
1.6892099380493164	14593657.698154002
1.6930854320526123	12513459.266929552
1.696954369544983	10330094.43999531
1.7008168697357178	9804098.260671362
1.7046726942062378	10722435.095608879
1.708522081375122	11999582.083274722
1.712364912033081	13138381.046932936
1.7162011861801147	14310185.261673758
1.7200311422348022	15529419.0085255
1.723854422569275	15783424.13458858
1.7276713848114014	15049884.684307348
1.731481909751892	13844296.719183568
1.7352858781814575	12630524.313758722
1.7390835285186768	12015477.947087372
1.7428747415542603	11470557.951955296
1.7466596364974976	10382180.326212931
1.7504380941390991	9047964.184970412
1.7542102336883545	8373117.620728541
1.7579760551452637	9868575.895796705
1.7617355585098267	11552945.786105908
1.7654887437820435	10330566.970815899
1.7692357301712036	7400605.398145317
1.7729763984680176	4672880.853657356
1.776710867881775	2675991.4967539487
1.7804391384124756	1965491.2991576274
1.7841613292694092	2026753.195626249
1.7878772020339966	1805281.2446953917
1.7915871143341064	1990594.8924192132
1.7952908277511597	3085883.126583833
1.7989884614944458	3617100.331912807
1.8026801347732544	2361861.3555134786
1.806365728378296	929056.770672878
1.8100452423095703	908247.8141614242
1.8137187957763672	1212979.2114585224
1.817386507987976	1002782.4467250876
1.8210482597351074	1172459.8999075815
1.8247040510177612	1294525.3943319202
1.828354001045227	693496.5168914967
1.8319982290267944	471162.9477631021
1.8356364965438843	952588.5776077899
1.8392690420150757	1466781.5396259993
1.8428958654403687	1477294.0327880422
1.8465168476104736	1473932.4197896447
1.8501322269439697	1755483.9389289657
1.8537418842315674	1462403.109042341
1.8573459386825562	920928.2301269552
1.860944390296936	707290.0542013283
1.864537239074707	464848.8567063585
1.8681244850158691	436388.9684897995
1.871706247329712	854115.2115484204
1.8752825260162354	1580565.7324066781
1.8788533210754395	2871030.778118196
1.8824186325073242	3882895.1424755356
1.8859784603118896	3519615.834549487
1.8895330429077148	3135414.895701186
1.8930821418762207	4090654.928603151
1.8966259956359863	4134149.409085378
1.9001644849777222	2006829.0052449184
1.9036977291107178	528801.6201520117
1.9072256088256836	511368.75043031835
1.9107483625411987	506161.1238954744
1.9142658710479736	282048.27118978533
1.9177782535552979	274947.6468784222
1.9212853908538818	431976.39432568656
1.9247875213623047	450623.712888921
1.9282845258712769	479738.01515763527
1.9317764043807983	680019.5695639828
1.9352631568908691	798367.2108686739
1.9387450218200684	805611.5107354616
1.942221760749817	977897.5922179536
1.9456936120986938	1241283.3840692688
1.9491604566574097	1569863.4943004318
1.952622413635254	1560617.2036394582
1.956079363822937	1147782.2518108157
1.959531545639038	1048224.6747820402
1.962978720664978	1208317.5133474048
1.966421127319336	1733791.7943459963
1.9698586463928223	2699712.454269866
1.9732913970947266	3203602.790387
1.9767193794250488	3462449.2176117375
1.9801424741744995	4262887.946318413
1.9835609197616577	5206219.494194921
1.9869745969772339	5361720.013875463
1.990383505821228	4580835.509022984
1.9937876462936401	4384192.132502785
1.9971871376037598	4615412.446310601
2.000581979751587	5112898.772240079
2.003972291946411	6652392.536773714
2.007357597351074	8132852.307123421
2.0107386112213135	9525677.515633432
2.0141148567199707	9881834.341663964
2.017486572265625	8672225.564563774
2.0208535194396973	8822245.68535725
2.0242159366607666	10408521.43043676
2.027573823928833	11626586.873225793
2.0309269428253174	12744840.034909226
2.034275770187378	13800362.264041014
2.0376198291778564	14690668.235065555
2.040959596633911	16006438.200009443
2.044294595718384	17698449.31822116
2.0476250648498535	19258397.092427067
2.0509510040283203	19469460.529232148
2.054272413253784	18417737.837763388
2.057589530944824	18509072.79855213
2.0609018802642822	19792785.088359937
2.0642096996307373	20858122.80224924
2.0675129890441895	21497234.879704352
2.0708119869232178	21668899.13709524
2.074106216430664	21351649.907963563
2.0773961544036865	21091043.040161736
2.080681324005127	21295138.569672547
2.0839622020721436	21540397.241033275
2.087238311767578	21640515.331668023
2.090510129928589	21533152.582499597
2.0937774181365967	21142461.940980293
2.0970399379730225	20890310.838086717
2.1002981662750244	20740075.967583593
2.1035518646240234	20363065.19929343
2.1068007946014404	19890954.96273172
2.1100454330444336	19864176.26887684
2.1132853031158447	19979472.821459927
2.116520881652832	19468823.40008779
2.1197516918182373	18897902.065588888
2.1229779720306396	18817148.89597956
2.12619948387146	18946726.259673543
2.1294167041778564	18966383.639991626
2.132629156112671	18867421.053594463
2.1358368396759033	18361278.613216754
2.139039993286133	17482703.73662296
2.1422386169433594	16603926.140119208
2.145432472229004	15764669.992704011
2.1486217975616455	15156001.377945779
2.151806354522705	14560544.371667901
2.1549863815307617	14462947.732592532
2.1581614017486572	14557195.791029692
2.16133189201355	13817337.351436015
2.1644976139068604	13122741.004798582
2.167658567428589	12986888.291187713
2.1708147525787354	13152063.559995733
2.173966407775879	13293445.732367694
2.1771130561828613	13046803.24972583
2.1802549362182617	12377279.034630822
2.183391809463501	11444510.259330725
2.1865241527557373	10477624.511928065
2.1896514892578125	9393741.947684964
2.1927738189697266	7710779.103853834
2.1958916187286377	5477093.806793957
2.1990041732788086	3668814.933328209
2.2021119594573975	2846489.7574853227
2.2052149772644043	2712738.30366763
2.208312749862671	2939084.367676873
2.2114057540893555	3395052.590601533
2.214493751525879	3768597.467167468
2.217576742172241	3701601.077658778
2.2206547260284424	3453389.9272045735
2.2237277030944824	3290294.1880966504
2.2267956733703613	2892776.6033108686
2.2298583984375	2312098.9569598944
2.2329163551330566	1940545.0098076581
2.235969066619873	1821471.4395526238
2.2390167713165283	1721077.511557933
2.2420592308044434	1451539.4711169335
2.2450966835021973	1151219.2711734115
2.248128890991211	1189799.1111158025
2.2511560916900635	1485670.0062495738
2.254178285598755	1655706.719626642
2.257194995880127	1769293.5887881613
2.260206699371338	1798849.307099857
2.2632133960723877	1557489.6419636626
2.266214609146118	1277175.5551861757
2.2692108154296875	1208562.292985782
2.2722020149230957	1373660.8818835146
2.2751877307891846	1571887.8253490215
2.278168201446533	1567091.6942524523
2.2811436653137207	1427383.7175057267
2.284113883972168	1321640.101861393
2.287078857421875	1226162.2917735653
2.290038824081421	1130361.6890810428
2.2929933071136475	1133392.277041619
2.295942783355713	1220844.16337515
2.298887014389038	1300469.197844908
2.301826238632202	1424709.5626622261
2.304760217666626	1843311.8074624606
2.3076889514923096	2611112.84623966
2.310612440109253	3259372.9810976246
2.3135311603546143	3050082.891215541
2.3164443969726562	1953099.8210530519
2.319352865219116	1049841.5360033754
2.322256088256836	870741.5203021736
2.3251543045043945	913274.7181394425
2.328047275543213	900809.0015753168
2.330935478210449	894999.3908085066
2.3338186740875244	890063.8334478498
2.3366971015930176	858582.5208026094
2.3395702838897705	824532.3651600259
2.3424389362335205	765768.3321088266
2.3453025817871094	679271.6466249558
2.348161458969116	648863.4965573939
2.351015567779541	770593.1963433856
2.353865146636963	1023764.2976594802
2.3567099571228027	1254272.1870015934
2.3595502376556396	1426124.3255942294
2.3623859882354736	1572330.8365570875
2.3652172088623047	1492769.4191788072
2.368043899536133	1076036.56525248
2.370866537094116	653478.1006860238
2.3736846446990967	553426.6688721975
2.3764986991882324	658567.7374264032
2.3793084621429443	768221.4992519093
2.3821144104003906	896551.3823404096
2.384916305541992	1093826.2752169091
2.387714147567749	1234338.2754366621
2.3905084133148193	1191520.9667516353
2.393299102783203	1128218.622307348
2.3960859775543213	1176644.5593334942
2.398869514465332	1276583.4219341527
2.4016497135162354	1290548.9254591004
2.4044265747070312	1252205.5992603926
2.407200336456299	1420695.2794304125
2.409970998764038	1783934.0190801541
2.4127390384674072	2022764.0565961539
2.415503978729248	2109543.8441515435
2.418266534805298	2341991.0413512415
2.4210267066955566	2577016.6085893703
2.4237842559814453	2369906.713782392
2.426539897918701	2046772.273525792
2.429293394088745	2263170.7859695572
2.4320452213287354	2768061.0949802175
2.4347951412200928	2927061.7818027963
2.4375438690185547	2815742.460534095
2.440291166305542	2814141.5321029024
2.443037271499634	2777669.8207807555
2.445782423019409	2437138.1307342984
2.4485268592834473	1989090.9979557935
2.451270818710327	1886196.961075552
2.454014539718628	2275332.26509383
2.4567582607269287	2636417.55769637
2.4595019817352295	2647568.569764131
2.4622461795806885	2813735.843316286
2.4649908542633057	2879241.1407901403
2.4677364826202393	2308146.3200180447
2.4704833030700684	1622957.7858545985
2.473231554031372	1206868.2080783036
2.4759814739227295	963532.2739673723
2.4787333011627197	867548.842863411
