#wavelength	surface flux
0.6450077295303345	547506.0284031001
0.6472567915916443	835805.8887309849
0.6494921445846558	1031230.3479064548
0.6517150402069092	1107526.4978945954
0.6539263725280762	1175336.9506499106
0.6561272740364075	1242247.0476450028
0.6583186388015747	1308942.0611982697
0.6605015397071838	1374141.0737698958
0.6626768708229065	1432787.3397014039
0.6648455858230591	1477079.8599023155
0.6670085787773132	1437034.3603076106
0.6691668033599854	1214932.0776523303
0.6713210344314575	1095825.7252323185
0.6734722256660461	1377195.5180531775
0.6756211519241333	1725105.039661899
0.6777685880661011	1886817.0378246265
0.6799154281616211	1971211.8453398207
0.6820623278617859	2045491.4918315723
0.6842101216316223	2123596.889794988
0.6863595843315125	2195803.2334088464
0.688511312007904	2254790.552970733
0.6906660795211792	2300668.7338628634
0.6928245425224304	2355910.9174384456
0.6949873566627502	2439121.17587343
0.6971551775932312	2528475.235379414
0.6993286609649658	2600696.0966111254
0.7015084028244019	2659250.0718934005
0.7036949396133423	2715201.5971155223
0.7058889269828796	2770602.6601079684
0.7080909013748169	2820411.9039328173
0.710301399230957	2865043.2529299716
0.712520956993103	2904963.094350969
0.7147500514984131	2931972.8871618425
0.7169892191886902	2946734.9590738164
0.7192389369010925	2963428.6911788643
0.7214996814727783	2976817.344116053
0.723771870136261	2972809.3930066884
0.7260559797286987	2954225.792364087
0.7283523678779602	2923025.148661486
0.7306615710258484	2878002.467613404
0.7329838871955872	2818254.649392339
0.7353196740150452	2735370.6358419335
0.7376693487167358	2624828.9242693433
0.7400332689285278	2484422.4447719343
0.7424117922782898	2308022.0278984807
0.7448052167892456	2097019.0118224726
0.7472138404846191	1852711.5536253476
0.7496379613876343	1576277.0749731313
0.7520779371261597	1276699.9048342227
0.7545340061187744	968344.5954636808
0.7570064663887024	670585.8280614007
0.7594954967498779	406471.7604863736
0.7620013952255249	199396.35875344186
0.7645244002342224	69318.64306003593
0.7670646905899048	15988.292654157876
0.7696225643157959	18983.843367323116
0.7721980810165405	89686.37664807432
0.7747915983200073	260156.7901552829
0.7774031162261963	499105.1413214535
0.7800329327583313	809915.6177764179
0.7826811671257019	1289058.2437587287
0.7853479981422424	1870719.217191202
0.7880334854125977	2405730.6137261502
0.7907378077507019	2648477.2860928546
0.7934610247612	2460601.6567655704
0.7962033748626709	2839222.3323924746
0.7989648580551147	4019725.5294923545
0.801745593547821	4909674.786043128
0.8045456409454346	5400431.586742227
0.8073651194572449	5811304.0785688115
0.8102040886878967	6171251.8757009385
0.8130625486373901	6515189.04808557
0.8159406185150146	6818590.455457199
0.8188382983207703	7093359.900493271
0.8217556476593018	7499590.192987457
0.8246926665306091	7966189.291368173
0.8276493549346924	8334083.152959153
0.8306257724761963	8648626.034868695
0.8336219191551208	8955806.807617972
0.8366377949714661	9251656.491944544
0.8396733403205872	9567823.385573978
0.8427285552024841	9927550.809994798
0.8458034992218018	10245700.051235402
0.8488980531692505	10364559.342248175
0.8520121574401855	10430174.334674474
0.8551458716392517	10869087.1845755
0.8582990765571594	11344061.794700611
0.8614717125892639	11298737.173148971
0.8646637797355652	11238563.226009332
0.8678751587867737	11609380.681636216
0.8711057901382446	12048758.615573639
0.8743556141853333	12400805.10309574
0.87762451171875	12726363.109833457
0.8809124231338501	13002383.781026317
0.8842192888259888	13341346.091831638
0.8875449895858765	13630479.440473365
0.8908893465995789	13630445.798422044
0.894252359867096	13709972.857550332
0.8976338505744934	14307056.413403891
0.9010337591171265	15053196.461387098
0.9044519662857056	15599583.397714134
0.9078882932662964	16029808.980318477
0.9113426208496094	16360649.440173648
0.914814829826355	16543050.800596392
0.9183048605918884	16746093.60539022
0.9218124747276306	16945090.218174573
0.925337553024292	16400276.456464207
0.9288799166679382	15222818.916748704
0.9324395060539246	14890973.617559332
0.9360161423683167	15660738.3060729
0.9396095871925354	16548961.55831431
0.943219780921936	16762523.448052865
0.9468464851379395	16661078.8916983
0.9504896402359009	17051296.047556993
0.9541489481925964	17687420.947984785
0.9578243494033813	17830480.428527653
0.9615156054496765	17369199.888051473
0.9652225375175476	17216273.935988177
0.9689450263977051	17979353.533050947
0.9726828336715698	19411629.884739198
0.9764357805252075	20552571.035579715
0.9802037477493286	21168068.385212857
0.983986496925354	21723569.815217804
0.9877838492393494	22296433.169139687
0.9915955662727356	22878058.082881633
0.9954215884208679	23328435.692576297
0.9992615580558777	23589998.563183054
1.0031154155731201	23891281.96120934
1.0069829225540161	24452739.324786372
1.0108637809753418	25176329.1401489
1.0147579908370972	25907299.037721448
1.018665075302124	26497030.99335804
1.022585153579712	26838024.21337831
1.0265177488327026	27123130.163939435
1.0304628610610962	27634171.28614924
1.0344202518463135	28326134.66539958
1.0383895635604858	28924751.143518284
1.0423706769943237	29371085.65317834
1.0463634729385376	29781859.482073326
1.0503677129745483	30190530.115874823
1.0543830394744873	30650662.32636297
1.058409333229065	31127712.542851616
1.0624464750289917	31540411.568827562
1.0664942264556885	31916573.75722403
1.0705522298812866	32296678.535300985
1.0746204853057861	32715101.060858827
1.0786986351013184	33147616.01410638
1.0827864408493042	33526340.25839282
1.086883783340454	33677913.9400683
1.0909905433654785	33476651.481245916
1.0951062440872192	32856109.754050385
1.0992310047149658	30699613.598429207
1.10336434841156	27396424.796857044
1.1075061559677124	26077300.14231627
1.1116561889648438	26014048.232248858
1.115814208984375	25213597.046325292
1.1199802160263062	24793938.097926743
1.124153733253479	25608578.235588178
1.1283347606658936	26143667.83660465
1.1325229406356812	24691811.859365724
1.1367181539535522	25016622.410945997
1.1409201622009277	28192816.604413558
1.145128846168518	30200029.53276027
1.1493438482284546	28502883.344146397
1.1535650491714478	24438807.73233993
1.1577922105789185	22885666.961647667
1.1620250940322876	24639767.700495288
1.1662636995315552	27296963.92026048
1.170507550239563	28987995.173823096
1.174756646156311	30763934.32365546
1.1790107488632202	33961932.78467393
1.1832695007324219	36963093.77747106
1.1875330209732056	38660022.61637088
1.191800832748413	39961179.62977074
1.1960728168487549	41505767.08594253
1.2003488540649414	42555578.9895153
1.2046287059783936	43083055.63138202
1.2089121341705322	43518833.65030629
1.2131990194320679	44174496.81827017
1.2174891233444214	45105662.43318082
1.2217823266983032	45994361.1922379
1.2260783910751343	46698853.991469234
1.230377197265625	47263099.70125532
1.2346785068511963	47745263.76764305
1.238982081413269	48188821.41786125
1.2432878017425537	48540269.73863966
1.2475954294204712	48657060.01093335
1.2519049644470215	48627020.38402226
1.256216049194336	49299225.07148135
1.2605286836624146	50236944.39567975
1.2648425102233887	50613419.10974631
1.2691574096679688	50841864.32364607
1.2734732627868652	51117924.05647149
1.2777899503707886	51363156.26806111
1.2821072340011597	51497197.52697836
1.2864248752593994	51434667.44700234
1.2907428741455078	51141599.3672689
1.2950609922409058	51147960.11849558
1.2993791103363037	51245431.62096105
1.303696870803833	50905471.45668695
1.3080145120620728	50788063.99228196
1.3123314380645752	51192353.00038905
1.3166478872299194	51679420.31383775
1.3209635019302368	50749260.292877555
1.3252781629562378	47328729.219802
1.3295916318893433	40061348.30587453
1.3339040279388428	27538182.840146724
1.3382149934768677	14600618.866592506
1.3425244092941284	8751752.000079755
1.3468321561813354	9023816.466017963
1.3511382341384888	8226264.934200588
1.3554422855377197	6195294.90256345
1.3597444295883179	5801061.10216312
1.3640443086624146	6552428.684532074
1.3683418035507202	8273593.91784519
1.3726370334625244	12373749.3277779
1.3769296407699585	16313642.12615924
1.381219506263733	13129541.166359875
1.3855066299438477	6798742.734447004
1.3897908926010132	4663304.326330754
1.3940720558166504	5036039.263980271
1.3983501195907593	5948778.148194829
1.4026249647140503	8905491.559344323
1.4068963527679443	11419583.323363975
1.4111642837524414	9224211.09832323
1.4154287576675415	7181795.322669629
1.419689416885376	7327857.911842681
1.4239463806152344	7195494.026946706
1.4281994104385376	8453156.715091778
1.4324485063552856	9368493.299518138
1.436693549156189	9242642.948386842
1.440934419631958	10740627.848120954
1.4451709985733032	14464748.243145162
1.449403166770935	19533318.783792783
1.453631043434143	22865764.192090522
1.4578542709350586	24506199.77150736
1.4620729684829712	26422200.718173113
1.4662868976593018	26784853.444781072
1.4704961776733398	25563684.98181189
1.4747005701065063	25397435.766810782
1.4788999557495117	26818696.284548786
1.4830944538116455	29984160.53393292
1.4872838258743286	33186776.662773088
1.491468071937561	34012832.86436202
1.4956470727920532	34271366.96923844
1.4998208284378052	36745211.75362211
1.5039892196655273	39708935.74968746
1.5081522464752197	40225858.97393899
1.5123097896575928	40710532.00970958
1.5164618492126465	43411206.95632892
1.5206083059310913	47618696.60242965
1.5247491598129272	50574145.70935452
1.5288842916488647	50883370.09606695
1.5330137014389038	51708407.224272616
1.5371372699737549	53544363.26070456
1.541254997253418	54624630.37114947
1.545366883277893	55917321.08425674
1.5494728088378906	57548369.65633087
1.5535727739334106	58385803.310371764
1.5576666593551636	58708993.20648218
1.561754584312439	59799364.58067833
1.5658363103866577	61463417.30871537
1.5699119567871094	62281181.30012595
1.5739814043045044	62057720.90295976
1.5780447721481323	61826407.349051
1.582101821899414	62682411.78341543
1.5861525535583496	64084069.012521565
1.5901970863342285	64655875.24916084
1.5942351818084717	64389291.67117881
1.5982669591903687	64014961.843103044
1.6022924184799194	63882943.80388475
1.606311559677124	63801707.9173241
1.6103241443634033	63622545.6525502
1.6143304109573364	63181447.59289733
1.6183301210403442	62317634.35753199
1.6223233938217163	61197941.76518028
1.6263102293014526	59866932.19316794
1.6302905082702637	58669488.4974828
1.634264349937439	59702578.39921709
1.638231635093689	63010364.46189136
1.6421923637390137	64755271.13574763
1.646146535873413	63369906.46249114
1.6500942707061768	61587861.51175594
1.6540353298187256	62028035.332116984
1.6579699516296387	62932501.55269312
1.661897897720337	60796559.89734157
1.6658192873001099	54876175.81691231
1.6697341203689575	52309099.9428751
1.6736423969268799	56869915.51769088
1.677544116973877	60365867.78112221
1.6814392805099487	60107065.56703709
1.6853278875350952	59260083.672606155
1.6892099380493164	57585471.8390461
1.6930854320526123	54102567.7961987
1.696954369544983	50599105.53504416
1.7008168697357178	49972345.300812215
1.7046726942062378	51161330.104868725
1.708522081375122	52352480.271469496
1.712364912033081	53155810.98622094
1.7162011861801147	54111923.04293932
1.7200311422348022	55277504.008120805
1.723854422569275	55177715.18994525
1.7276713848114014	53626155.06952198
1.731481909751892	50887228.84014913
1.7352858781814575	47911982.80382721
1.7390835285186768	45968058.80260296
1.7428747415542603	43917208.3533546
1.7466596364974976	40782212.34310843
1.7504380941390991	36970345.43242017
1.7542102336883545	34515710.94644244
1.7579760551452637	38098645.789615445
1.7617355585098267	43083826.280138925
1.7654887437820435	40379812.449812986
1.7692357301712036	32288109.10676303
1.7729763984680176	23885142.315069173
1.776710867881775	16569173.044511024
1.7804391384124756	13700689.80009179
1.7841613292694092	14063249.740384068
1.7878772020339966	12872047.08659708
1.7915871143341064	13207344.281753652
1.7952908277511597	16353064.601915026
1.7989884614944458	16959648.168226495
1.8026801347732544	12272409.670982504
1.806365728378296	6972394.49116453
1.8100452423095703	7112407.639465588
1.8137187957763672	9034199.983555892
1.817386507987976	7903775.793221001
1.8210482597351074	8854555.434295785
1.8247040510177612	9762458.551558778
1.828354001045227	6458950.110821093
1.8319982290267944	5686142.339876188
1.8356364965438843	9024712.272984095
1.8392690420150757	12201161.788360842
1.8428958654403687	12413755.544758836
1.8465168476104736	11801591.727404919
1.8501322269439697	11765691.336723533
1.8537418842315674	9142216.796192735
1.8573459386825562	6482726.669306135
1.860944390296936	5700699.916313026
1.864537239074707	4802438.276863491
1.8681244850158691	5730254.218440388
1.871706247329712	8978125.791962562
1.8752825260162354	12332030.246206904
1.8788533210754395	16089649.983614346
1.8824186325073242	18642650.412702825
1.8859784603118896	17584619.673582703
1.8895330429077148	16933644.369294185
1.8930821418762207	20052598.08236505
1.8966259956359863	19819868.60625418
1.9001644849777222	12227980.404890992
1.9036977291107178	6734008.148298249
1.9072256088256836	7480705.413598458
1.9107483625411987	7406235.856585872
1.9142658710479736	4680889.2264357265
1.9177782535552979	4249403.505996624
1.9212853908538818	5733397.246861983
1.9247875213623047	5806227.188916299
1.9282845258712769	5946279.986048753
1.9317764043807983	7543788.971591802
1.9352631568908691	8221843.764848462
1.9387450218200684	7577968.422899911
1.942221760749817	7802644.362430885
1.9456936120986938	8706486.658761505
1.9491604566574097	9739998.963725096
1.952622413635254	9392370.26055241
1.956079363822937	7622773.93456729
1.959531545639038	7450724.634846237
1.962978720664978	8214083.797604151
1.966421127319336	10072350.662784066
1.9698586463928223	13398092.333517205
1.9732913970947266	14956648.844757082
1.9767193794250488	15769070.862284219
1.9801424741744995	18371019.755618915
1.9835609197616577	21142394.888493776
1.9869745969772339	21476609.854080882
1.990383505821228	18859981.22740848
1.9937876462936401	17667165.27474625
1.9971871376037598	18026141.81859507
2.000581979751587	19501795.79873577
2.003972291946411	23607192.048870176
2.007357597351074	26767058.09592682
2.0107386112213135	29562554.27515813
2.0141148567199707	30851879.542054214
2.017486572265625	28526162.3421635
2.0208535194396973	28885520.2504919
2.0242159366607666	32810672.934692677
2.027573823928833	35553300.6629724
2.0309269428253174	37361875.68932268
2.034275770187378	39427830.36221813
2.0376198291778564	41055040.608469136
2.040959596633911	42739513.80217441
2.044294595718384	45027477.315238886
2.0476250648498535	47464881.156084165
2.0509510040283203	48164402.82482139
2.054272413253784	46803335.63151823
2.057589530944824	46904736.49734698
2.0609018802642822	48784415.95807733
2.0642096996307373	50408844.2847717
2.0675129890441895	51441106.08326031
2.0708119869232178	51657599.91578036
2.074106216430664	51091591.60526393
2.0773961544036865	50769357.518489
2.080681324005127	51222211.757185444
2.0839622020721436	51840463.97255042
2.087238311767578	52278548.60253523
2.090510129928589	52173111.13199903
2.0937774181365967	51569823.60319511
2.0970399379730225	51313448.19962582
2.1002981662750244	51241544.530018784
2.1035518646240234	50782011.466508955
2.1068007946014404	50226385.88127415
2.1100454330444336	50511005.77771429
2.1132853031158447	51120074.69621481
2.116520881652832	50754461.0454012
2.1197516918182373	50233056.09269873
2.1229779720306396	50333166.76320829
2.12619948387146	50530544.43680808
2.1294167041778564	50470508.59628577
2.132629156112671	50321181.816853076
2.1358368396759033	49773798.31416142
2.139039993286133	48789152.83728243
2.1422386169433594	47889493.79322562
2.145432472229004	47100890.49533823
2.1486217975616455	46455425.68698255
2.151806354522705	45797545.00745124
2.1549863815307617	45640093.5471473
2.1581614017486572	45661554.98402695
2.16133189201355	44868427.400389455
2.1644976139068604	44056507.98632974
2.167658567428589	43641150.6177947
2.1708147525787354	43369966.15196811
2.173966407775879	42965524.03534143
2.1771130561828613	42234509.99772467
2.1802549362182617	41245797.95016615
2.183391809463501	40005732.082238816
2.1865241527557373	38607612.28993271
2.1896514892578125	36867001.82912215
2.1927738189697266	33803620.436852984
2.1958916187286377	29208618.779662136
2.1990041732788086	24896543.746630706
2.2021119594573975	22241135.951716453
2.2052149772644043	20795120.384321358
2.208312749862671	20503030.039304987
2.2114057540893555	21846685.594160683
2.214493751525879	23664951.824570604
2.217576742172241	24133359.292128656
2.2206547260284424	23805126.69004524
2.2237277030944824	23360178.92889508
2.2267956733703613	21685411.892637827
2.2298583984375	19332644.144980226
2.2329163551330566	17939958.322596516
2.235969066619873	17619432.289872568
2.2390167713165283	17237643.17734683
2.2420592308044434	15816482.127040733
2.2450966835021973	14189332.752882788
2.248128890991211	14362223.644009957
2.2511560916900635	15861241.897302344
2.254178285598755	16738655.85012145
2.257194995880127	17286685.26096878
2.260206699371338	17392837.490045153
2.2632133960723877	15952834.695491338
2.266214609146118	13999875.00137148
2.2692108154296875	13256704.353305021
2.2722020149230957	13994177.829036137
2.2751877307891846	14960115.48870484
2.278168201446533	14842742.041311182
2.2811436653137207	13956771.422723355
2.284113883972168	13160632.669410145
2.287078857421875	12472771.791490212
2.290038824081421	11920440.887872823
2.2929933071136475	11835885.480997989
2.295942783355713	12111380.293110581
2.298887014389038	12471845.771934317
2.301826238632202	13044664.233540144
2.304760217666626	14274859.838588603
2.3076889514923096	16189853.965089059
2.310612440109253	17877877.79573125
2.3135311603546143	17371922.409309033
2.3164443969726562	13800210.540835587
2.319352865219116	10099057.08078128
2.322256088256836	8730207.193763424
2.3251543045043945	8427130.66450151
2.328047275543213	8163142.764370841
2.330935478210449	8247062.532212255
2.3338186740875244	8466304.754457686
2.3366971015930176	8544790.758089142
2.3395702838897705	8537121.989659322
2.3424389362335205	8283195.542334089
2.3453025817871094	7855799.607352867
2.348161458969116	7766946.747889707
2.351015567779541	8550451.92004948
2.353865146636963	10108376.46730087
2.3567099571228027	11515076.016872888
2.3595502376556396	12523829.812766306
2.3623859882354736	13419056.140672319
2.3652172088623047	13126005.819168897
2.368043899536133	10631066.241379194
2.370866537094116	7653615.017536492
2.3736846446990967	6745404.326449609
2.3764986991882324	7223089.167686725
2.3793084621429443	7397472.40857649
2.3821144104003906	7680025.3530780515
2.384916305541992	8776523.529475171
2.387714147567749	10011396.885776792
2.3905084133148193	10385493.674129134
2.393299102783203	10290017.111571118
2.3960859775543213	10350736.661417866
2.398869514465332	10574332.670153381
2.4016497135162354	10489626.433918653
2.4044265747070312	10206565.934533212
2.407200336456299	10831329.924196305
2.409970998764038	12234211.945562396
2.4127390384674072	13089042.833382059
2.415503978729248	13432606.379747415
2.418266534805298	14302576.047658179
2.4210267066955566	14971693.992731482
2.4237842559814453	13951130.309672914
2.426539897918701	12362572.902354296
2.429293394088745	12361677.968495669
2.4320452213287354	13542169.951093836
2.4347951412200928	14181713.08529691
2.4375438690185547	13964471.81172659
2.440291166305542	13427861.001100095
2.443037271499634	12555503.225426046
2.445782423019409	11248982.725583887
2.4485268592834473	9952852.573823806
2.451270818710327	9514737.01065124
2.454014539718628	10727769.343814723
2.4567582607269287	12135821.755929397
2.4595019817352295	11816715.80242583
2.4622461795806885	11813393.335763426
2.4649908542633057	11981928.706920702
2.4677364826202393	10080474.00461613
2.4704833030700684	7575335.53125802
2.473231554031372	5758327.508411647
2.4759814739227295	4548224.76902052
2.4787333011627197	4143309.1251419806
2.481487512588501	4784372.287651635
