#wavelength	surface flux
0.6450077295303345	89420.57747630356
0.6472567915916443	140678.79713422252
0.6494921445846558	183300.4219276739
0.6517150402069092	210136.3776194311
0.6539263725280762	237574.2865777541
0.6561272740364075	266628.2253798159
0.6583186388015747	297227.0109050347
0.6605015397071838	329050.2177805158
0.6626768708229065	361395.91938178363
0.6648455858230591	390872.4048152946
0.6670085787773132	396408.96943093964
0.6691668033599854	347909.72019277373
0.6713210344314575	326036.89136392344
0.6734722256660461	426463.9399560142
0.6756211519241333	556408.9283084066
0.6777685880661011	633936.9460128826
0.6799154281616211	688314.9850403379
0.6820623278617859	737595.7697412085
0.6842101216316223	784852.4814774874
0.6863595843315125	830449.3557839473
0.688511312007904	873227.4563314582
0.6906660795211792	910283.7587438597
0.6928245425224304	943598.9415706397
0.6949873566627502	981903.069459905
0.6971551775932312	1022364.0688810832
0.6993286609649658	1056203.4905076625
0.7015084028244019	1084863.0907496514
0.7036949396133423	1108262.443517858
0.7058889269828796	1123911.2338255574
0.7080909013748169	1132394.9911089225
0.710301399230957	1135402.0649401187
0.712520956993103	1131757.6066394057
0.7147500514984131	1117431.8766302825
0.7169892191886902	1092056.6799046216
0.7192389369010925	1058232.899060343
0.7214996814727783	1015723.3738796052
0.723771870136261	964240.777322788
0.7260559797286987	906296.4998986415
0.7283523678779602	842631.9498057982
0.7306615710258484	782538.6276765121
0.7329838871955872	730175.4931649424
0.7353196740150452	666332.1807164185
0.7376693487167358	587705.353831711
0.7400332689285278	506785.5702957529
0.7424117922782898	426949.4945220566
0.7448052167892456	350639.9602504388
0.7472138404846191	278352.6160666083
0.7496379613876343	210770.76785188774
0.7520779371261597	150776.73316099826
0.7545340061187744	100449.50906550176
0.7570064663887024	61141.54352133319
0.7594954967498779	33241.39568799282
0.7620013952255249	15579.210299651666
0.7645244002342224	5902.156040951268
0.7670646905899048	1937.6463468868983
0.7696225643157959	2103.188171395606
0.7721980810165405	7380.628823167043
0.7747915983200073	20684.702252860076
0.7774031162261963	42092.71517427286
0.7800329327583313	77970.31471108354
0.7826811671257019	146417.89877937434
0.7853479981422424	247212.74159433154
0.7880334854125977	364474.66524178913
0.7907378077507019	446300.1060687655
0.7934610247612	458778.35360263457
0.7962033748626709	617752.4831552418
0.7989648580551147	998358.9020063434
0.801745593547821	1364372.8279925815
0.8045456409454346	1669786.0629625043
0.8073651194572449	1976136.6368058685
0.8102040886878967	2288435.931378744
0.8130625486373901	2644784.811581649
0.8159406185150146	3045489.636153695
0.8188382983207703	3480461.171085411
0.8217556476593018	4011017.851277564
0.8246926665306091	4580536.823515642
0.8276493549346924	5101485.999460813
0.8306257724761963	5673115.444611706
0.8336219191551208	6367158.040283701
0.8366377949714661	7066598.583121219
0.8396733403205872	7741836.261724538
0.8427285552024841	8486515.017402982
0.8458034992218018	9183220.29018656
0.8488980531692505	9198987.63428109
0.8520121574401855	8990707.580757149
0.8551458716392517	10449679.267873503
0.8582990765571594	12462662.165557964
0.8614717125892639	12787526.015979256
0.8646637797355652	12789921.15958848
0.8678751587867737	13817359.015538206
0.8711057901382446	15019211.20484708
0.8743556141853333	16121077.799897753
0.87762451171875	17428698.135408647
0.8809124231338501	18630441.884016864
0.8842192888259888	19656339.645670697
0.8875449895858765	20257548.898695108
0.8908893465995789	19473259.73917411
0.894252359867096	18641356.430165064
0.8976338505744934	21369762.18414966
0.9010337591171265	26884379.83441018
0.9044519662857056	31542451.812441267
0.9078882932662964	34720882.37688795
0.9113426208496094	36895770.51496654
0.914814829826355	37983128.40821974
0.9183048605918884	38935504.219212554
0.9218124747276306	38226752.369857006
0.925337553024292	32686244.0524244
0.9288799166679382	27677813.693473753
0.9324395060539246	27809587.14472442
0.9360161423683167	29801255.961833287
0.9396095871925354	31050350.94962422
0.943219780921936	30723206.06553653
0.9468464851379395	28476942.77760683
0.9504896402359009	30141313.61796059
0.9541489481925964	38183052.410934135
0.9578243494033813	41290980.508962944
0.9615156054496765	35025419.36524083
0.9652225375175476	28693149.82804738
0.9689450263977051	33418407.3509309
0.9726828336715698	46000771.16758464
0.9764357805252075	52299861.06309793
0.9802037477493286	54374493.52575856
0.983986496925354	61077094.821711324
0.9877838492393494	66532633.51527733
0.9915955662727356	65816432.19998267
0.9954215884208679	62288729.49336014
0.9992615580558777	55861368.422965825
1.0031154155731201	51050825.12917474
1.0069829225540161	53744410.38459443
1.0108637809753418	61837439.53263379
1.0147579908370972	71198169.0044274
1.018665075302124	77583034.79057986
1.022585153579712	79003085.95054032
1.0265177488327026	80627898.76856545
1.0304628610610962	87610078.44629678
1.0344202518463135	96261596.01068605
1.0383895635604858	102292560.85463506
1.0423706769943237	106480227.0136439
1.0463634729385376	110237189.24125539
1.0503677129745483	113775494.3719441
1.0543830394744873	119707173.2545405
1.058409333229065	127019925.59406099
1.0624464750289917	131909951.601776
1.0664942264556885	134783060.26630107
1.0705522298812866	137522612.31550655
1.0746204853057861	141081704.87741214
1.0786986351013184	143875048.4950883
1.0827864408493042	145410753.48715252
1.086883783340454	138241683.28950122
1.0909905433654785	116967631.80871947
1.0951062440872192	96207546.76313923
1.0992310047149658	73404069.48549224
1.10336434841156	43363441.07817602
1.1075061559677124	28124438.72002421
1.1116561889648438	24794222.504700016
1.115814208984375	20125322.373158228
1.1199802160263062	19550214.36655003
1.124153733253479	21335389.54162221
1.1283347606658936	18226512.39151572
1.1325229406356812	13926307.66174461
1.1367181539535522	19710707.48797094
1.1409201622009277	33112457.874275822
1.145128846168518	40879247.95895556
1.1493438482284546	35947127.774520226
1.1535650491714478	25864971.745229084
1.1577922105789185	21733128.43796824
1.1620250940322876	22684293.940088786
1.1662636995315552	27983137.240766685
1.170507550239563	34352348.21644148
1.174756646156311	40865913.77357233
1.1790107488632202	52443946.420011684
1.1832695007324219	60378612.867000155
1.1875330209732056	58918667.46284001
1.191800832748413	69649062.12311262
1.1960728168487549	93447329.3017988
1.2003488540649414	106617223.09401809
1.2046287059783936	111268318.55707239
1.2089121341705322	113841849.00792387
1.2131990194320679	119025274.19804984
1.2174891233444214	131647840.82025222
1.2217823266983032	142183595.7037739
1.2260783910751343	147982423.8271918
1.230377197265625	154460787.47599095
1.2346785068511963	157934509.16948426
1.238982081413269	151779940.01442027
1.2432878017425537	142781472.76439303
1.2475954294204712	139890709.65784752
1.2519049644470215	139704484.32475567
1.256216049194336	156254131.48163947
1.2605286836624146	176678344.84039167
1.2648425102233887	178174845.69848
1.2691574096679688	182200566.2494286
1.2734732627868652	193385127.21865183
1.2777899503707886	192430769.93311682
1.2821072340011597	180473137.8216605
1.2864248752593994	176063807.14162025
1.2907428741455078	176874668.57803863
1.2950609922409058	172408089.53849766
1.2993791103363037	152814943.30384186
1.303696870803833	134729263.2166912
1.3080145120620728	133577627.50134024
1.3123314380645752	136227950.13747054
1.3166478872299194	137268161.34006605
1.3209635019302368	122077817.24366252
1.3252781629562378	95531556.94558035
1.3295916318893433	67223135.67005534
1.3339040279388428	32728273.992037036
1.3382149934768677	9870847.698466433
1.3425244092941284	4453262.810707534
1.3468321561813354	3741254.8087567617
1.3511382341384888	3382773.397606885
1.3554422855377197	2601859.049896111
1.3597444295883179	3032135.002232828
1.3640443086624146	4445010.708417051
1.3683418035507202	4087965.6087972596
1.3726370334625244	3147657.0245140665
1.3769296407699585	3716224.3548579775
1.381219506263733	3395926.5005364097
1.3855066299438477	1954730.3900797642
1.3897908926010132	2062468.3219861423
1.3940720558166504	3257264.853493261
1.3983501195907593	3071226.679581419
1.4026249647140503	2758452.5009447904
1.4068963527679443	3377501.717588854
1.4111642837524414	3590260.2866912414
1.4154287576675415	3585093.4358421504
1.419689416885376	3382848.2634105016
1.4239463806152344	3199742.497967467
1.4281994104385376	2591392.279486883
1.4324485063552856	1928775.892063364
1.436693549156189	2736500.0387506536
1.440934419631958	4731810.915449233
1.4451709985733032	7914116.450422497
1.449403166770935	11383943.682596546
1.453631043434143	11399655.059861012
1.4578542709350586	10110127.963598836
1.4620729684829712	12678733.679918207
1.4662868976593018	15541058.185238391
1.4704961776733398	11700898.967570636
1.4747005701065063	6467608.5321146995
1.4788999557495117	8379669.882018822
1.4830944538116455	14661683.920571463
1.4872838258743286	16766261.750905767
1.491468071937561	13595211.468789604
1.4956470727920532	13544233.640519418
1.4998208284378052	18751473.876245268
1.5039892196655273	21069867.643185988
1.5081522464752197	17931555.869097922
1.5123097896575928	18871480.95236926
1.5164618492126465	28656646.218368594
1.5206083059310913	39250444.159691215
1.5247491598129272	41861226.00119009
1.5288842916488647	41183786.85314599
1.5330137014389038	44754114.04052849
1.5371372699737549	47813724.83303788
1.541254997253418	47269459.61867291
1.545366883277893	49868756.18168447
1.5494728088378906	53720153.01488959
1.5535727739334106	55323365.224530905
1.5576666593551636	58411398.282190144
1.561754584312439	63851244.518687494
1.5658363103866577	69641584.06524345
1.5699119567871094	72165350.9957861
1.5739814043045044	71563422.60481565
1.5780447721481323	73321397.07799636
1.582101821899414	78603543.36929552
1.5861525535583496	82807208.70359185
1.5901970863342285	81557898.42961681
1.5942351818084717	76797201.89902772
1.5982669591903687	75671117.17280924
1.6022924184799194	75765250.67527452
1.606311559677124	72382916.00916938
1.6103241443634033	71049314.34537734
1.6143304109573364	69248105.8253721
1.6183301210403442	63197654.992364004
1.6223233938217163	58992223.928167924
1.6263102293014526	57406238.83418074
1.6302905082702637	58190199.55686154
1.634264349937439	62881968.44797599
1.638231635093689	68716455.49588369
1.6421923637390137	70122459.6394886
1.646146535873413	62770871.91496099
1.6500942707061768	55488378.7768403
1.6540353298187256	56358379.04006608
1.6579699516296387	57800283.60044738
1.661897897720337	53654882.125150554
1.6658192873001099	40335845.24370392
1.6697341203689575	30213807.98507769
1.6736423969268799	35895613.23231326
1.677544116973877	42652623.58442534
1.6814392805099487	42652911.92046889
1.6853278875350952	39311231.648870476
1.6892099380493164	33987317.85399066
1.6930854320526123	29180907.046706527
1.696954369544983	26353201.34491091
1.7008168697357178	25754022.596963115
1.7046726942062378	26035259.165352177
1.708522081375122	27580002.49813185
1.712364912033081	28188272.19847159
1.7162011861801147	27413274.480640955
1.7200311422348022	28743046.456045
1.723854422569275	29219497.09799957
1.7276713848114014	26193383.998462725
1.731481909751892	22394695.051094815
1.7352858781814575	20934238.439871836
1.7390835285186768	21955524.68645917
1.7428747415542603	21994283.01578854
1.7466596364974976	18271860.54866278
1.7504380941390991	14412007.152877377
1.7542102336883545	15048399.496216064
1.7579760551452637	18878945.703072563
1.7617355585098267	23135514.013349224
1.7654887437820435	23708486.2669483
1.7692357301712036	18289698.382369105
1.7729763984680176	12096053.430462757
1.776710867881775	7932062.787949217
1.7804391384124756	6178946.529722707
1.7841613292694092	6283019.097962553
1.7878772020339966	6418446.3637161795
1.7915871143341064	8792417.65197792
1.7952908277511597	11343097.897963881
1.7989884614944458	10420695.564784152
1.8026801347732544	7639045.466257688
1.806365728378296	5570008.62172101
1.8100452423095703	4915615.00258683
1.8137187957763672	4349435.617833655
1.817386507987976	3355529.356221294
1.8210482597351074	5597322.385584886
1.8247040510177612	9760658.196231386
1.828354001045227	8878550.787970435
1.8319982290267944	5029172.719024273
1.8356364965438843	5036272.025459983
1.8392690420150757	7749617.677835557
1.8428958654403687	8562223.257376922
1.8465168476104736	7418862.1455784
1.8501322269439697	6255191.096271573
1.8537418842315674	5350252.03625182
1.8573459386825562	5164802.553900198
1.860944390296936	4160467.8421972226
1.864537239074707	2100494.8768560244
1.8681244850158691	1369184.4574601355
1.871706247329712	2529020.3918880313
1.8752825260162354	4406297.090681096
1.8788533210754395	5069920.565376793
1.8824186325073242	5421991.90252941
1.8859784603118896	8217554.685261902
1.8895330429077148	11099965.374090083
1.8930821418762207	9345839.202909663
1.8966259956359863	6519649.21846784
1.9001644849777222	5971318.136907421
1.9036977291107178	5104015.836877455
1.9072256088256836	6250962.067361786
1.9107483625411987	7841417.540851579
1.9142658710479736	5735006.496986059
1.9177782535552979	4720623.284745196
1.9212853908538818	4518996.777604885
1.9247875213623047	2310468.08791839
1.9282845258712769	1431099.338353809
1.9317764043807983	3641782.2945464365
1.9352631568908691	7481905.98208442
1.9387450218200684	8015523.586401498
1.942221760749817	4747783.436133537
1.9456936120986938	2598514.885041217
1.9491604566574097	2356376.6605146797
1.952622413635254	3364146.3474242347
1.956079363822937	6520501.689642329
1.959531545639038	9611396.019849792
1.962978720664978	8372755.045022425
1.966421127319336	6012813.659726144
1.9698586463928223	6854872.7324317
1.9732913970947266	7854688.069994199
1.9767193794250488	8100710.309451819
1.9801424741744995	8772082.055653552
1.9835609197616577	9017703.040501805
1.9869745969772339	10410341.93974169
1.990383505821228	11835102.311726402
1.9937876462936401	11469933.833313812
1.9971871376037598	9749694.444496123
2.000581979751587	8043329.562136969
2.003972291946411	9667835.356250018
2.007357597351074	12341009.045547275
2.0107386112213135	13371375.49438636
2.0141148567199707	12835511.310031086
2.017486572265625	11108097.450307528
2.0208535194396973	11534650.726459065
2.0242159366607666	13609313.839000149
2.027573823928833	13901753.010331351
2.0309269428253174	13425136.569988381
2.034275770187378	14954815.903386472
2.0376198291778564	18610861.317522686
2.040959596633911	21853480.17127654
2.044294595718384	22881207.976461455
2.0476250648498535	22734380.87558758
2.0509510040283203	21404534.922568377
2.054272413253784	19484999.82010903
2.057589530944824	20096663.375412047
2.0609018802642822	22912588.62657082
2.0642096996307373	24941668.906990666
2.0675129890441895	25624054.190962214
2.0708119869232178	25603852.857595045
2.074106216430664	25158482.119072277
2.0773961544036865	25443749.895030018
2.080681324005127	26239840.081200466
2.0839622020721436	26236988.20092279
2.087238311767578	25568672.908918347
2.090510129928589	25071812.61014673
2.0937774181365967	25196471.135553066
2.0970399379730225	25196638.45761528
2.1002981662750244	24212303.946935754
2.1035518646240234	23398442.925419144
2.1068007946014404	23599978.52122862
2.1100454330444336	23840729.420755766
2.1132853031158447	23436174.86503663
2.116520881652832	22338621.238817412
2.1197516918182373	21267227.74991619
2.1229779720306396	20807191.272326022
2.12619948387146	20467873.007894814
2.1294167041778564	20295656.684462328
2.132629156112671	20482416.31078148
2.1358368396759033	19907088.91929133
2.139039993286133	18797204.136145353
2.1422386169433594	17955231.280048855
2.145432472229004	17185148.072920848
2.1486217975616455	16583348.90410952
2.151806354522705	15839692.150571851
2.1549863815307617	15714123.78458589
2.1581614017486572	16442002.050971163
2.16133189201355	16812949.800083727
2.1644976139068604	16537879.34010799
2.167658567428589	15449214.786402212
2.1708147525787354	14305851.81855683
2.173966407775879	14264653.28333204
2.1771130561828613	14787994.501371842
2.1802549362182617	14550541.624152541
2.183391809463501	13383392.817160176
2.1865241527557373	12256181.394953001
2.1896514892578125	11444568.301611181
2.1927738189697266	10111319.658613294
2.1958916187286377	7678837.445355115
2.1990041732788086	5078523.618487143
2.2021119594573975	3736948.810908195
2.2052149772644043	3633211.723189075
2.208312749862671	4037963.2302004737
2.2114057540893555	4910793.992255788
2.214493751525879	5722357.280018158
2.217576742172241	5433425.382288973
2.2206547260284424	4670618.825337954
2.2237277030944824	4135739.218244685
2.2267956733703613	3459523.2706270926
2.2298583984375	2889477.648503584
2.2329163551330566	2740685.44927896
2.235969066619873	2903503.202927368
2.2390167713165283	2932420.622413057
2.2420592308044434	2608182.372639123
2.2450966835021973	2282620.638911038
2.248128890991211	2200601.6247224966
2.2511560916900635	2339002.853783551
2.254178285598755	2791556.148567984
2.257194995880127	3567295.097547008
2.260206699371338	3503722.8786712843
2.2632133960723877	2289438.114566563
2.266214609146118	1770544.2954182718
2.2692108154296875	2621343.298844705
2.2722020149230957	3466398.53357593
2.2751877307891846	3355304.77047099
2.278168201446533	2942459.7806823757
2.2811436653137207	2866583.455084567
2.284113883972168	2718902.9496302553
2.287078857421875	2246707.0500640385
2.290038824081421	1911380.7126784746
2.2929933071136475	1935442.0102161118
2.295942783355713	2028707.5306320814
2.298887014389038	2175836.887697396
2.301826238632202	2586888.6686496283
2.304760217666626	3359298.4831049046
2.3076889514923096	4395871.7114998745
2.310612440109253	5429971.126870087
2.3135311603546143	6148975.460542211
2.3164443969726562	5472545.252167608
2.319352865219116	3266966.110296804
2.322256088256836	1711088.8137505164
2.3251543045043945	1445962.4450698697
2.328047275543213	1412427.5781633859
2.330935478210449	1353826.3749268535
2.3338186740875244	1235591.6651349876
2.3366971015930176	1070755.618857119
2.3395702838897705	967202.1591258632
2.3424389362335205	931535.4630560023
2.3453025817871094	901271.1577620828
2.348161458969116	884193.5638304682
2.351015567779541	1167634.1965187243
2.353865146636963	2041416.8822320553
2.3567099571228027	3165704.0935643124
2.3595502376556396	3889332.4631521017
2.3623859882354736	3798850.6842254438
2.3652172088623047	2828480.714871282
2.368043899536133	1618466.6779877015
2.370866537094116	948436.4334906536
2.3736846446990967	893924.876806517
2.3764986991882324	1004493.7599841524
2.3793084621429443	1051862.9802410428
2.3821144104003906	1214273.7444736771
2.384916305541992	1573520.6658427056
2.387714147567749	1845751.6014619505
2.3905084133148193	1788445.7425352256
2.393299102783203	1601954.4140106519
2.3960859775543213	1448556.5514396047
2.398869514465332	1462331.338567459
2.4016497135162354	1842399.3970539982
2.4044265747070312	2517430.334502961
2.407200336456299	3024337.520728886
2.409970998764038	3044613.4447936136
2.4127390384674072	2891236.772829151
2.415503978729248	2904723.822469684
2.418266534805298	3065030.609265608
2.4210267066955566	3142925.514257191
2.4237842559814453	2974449.5970010734
2.426539897918701	2946466.4409978064
2.429293394088745	3496938.968107496
2.4320452213287354	4045926.8987897
2.4347951412200928	3881172.763001977
2.4375438690185547	3450959.3823839934
2.440291166305542	3350916.246126053
2.443037271499634	3384999.2009296953
2.445782423019409	3433719.1220124383
2.4485268592834473	3641416.2563639986
2.451270818710327	3814630.5790188215
2.454014539718628	3854098.7901189243
2.4567582607269287	3861412.025856239
2.4595019817352295	3902994.9249545573
2.4622461795806885	4415868.136817364
2.4649908542633057	5078344.862044717
2.4677364826202393	4819070.172197604
2.4704833030700684	3653175.40598321
2.473231554031372	2431853.335847641
2.4759814739227295	1690643.7940333819
2.4787333011627197	1390768.1741531114
2.481487512588501	1351494.4202443329
