#wavelength	surface flux
0.6450077295303345	11918.366013537465
0.6472567915916443	19171.708204433664
0.6494921445846558	25966.270250586196
0.6517150402069092	31127.654648088566
0.6539263725280762	36804.95503214137
0.6561272740364075	43150.955998721234
0.6583186388015747	50201.899156428655
0.6605015397071838	57984.75978872526
0.6626768708229065	66408.10790316612
0.6648455858230591	75118.63108447807
0.6670085787773132	81016.52743449189
0.6691668033599854	77707.10411558054
0.6713210344314575	78386.86482065626
0.6734722256660461	99992.38477666947
0.6756211519241333	124927.49945226422
0.6777685880661011	140087.27544344796
0.6799154281616211	152042.38503669648
0.6820623278617859	162890.59503412605
0.6842101216316223	172651.8060659442
0.6863595843315125	181057.35262123795
0.688511312007904	187528.7433015615
0.6906660795211792	190846.03770457197
0.6928245425224304	191652.1044560384
0.6949873566627502	193134.70885002916
0.6971551775932312	194548.12171553756
0.6993286609649658	192527.46149731276
0.7015084028244019	187392.8054956527
0.7036949396133423	180820.19173685496
0.7058889269828796	173160.19625688292
0.7080909013748169	164293.1559067741
0.710301399230957	154277.42961450655
0.712520956993103	143201.86709732268
0.7147500514984131	130356.47706812293
0.7169892191886902	116139.07416571863
0.7192389369010925	103782.33414407972
0.7214996814727783	93465.26910117021
0.723771870136261	82785.24978494983
0.7260559797286987	72167.34805967433
0.7283523678779602	62621.566600071215
0.7306615710258484	54027.0433840438
0.7329838871955872	46406.52793312029
0.7353196740150452	39552.84322045234
0.7376693487167358	33106.97042832519
0.7400332689285278	27302.454767073068
0.7424117922782898	22264.708690871
0.7448052167892456	17972.028172721315
0.7472138404846191	14365.952535976765
0.7496379613876343	11375.702548747202
0.7520779371261597	8941.545132814823
0.7545340061187744	6976.948985055528
0.7570064663887024	5375.383142930679
0.7594954967498779	4013.534141798734
0.7620013952255249	2759.5064481921977
0.7645244002342224	1594.7980863936132
0.7670646905899048	859.800637917128
0.7696225643157959	945.2900159405676
0.7721980810165405	1995.2897857109301
0.7747915983200073	3748.7865987615305
0.7774031162261963	5545.723381983926
0.7800329327583313	7645.662026595247
0.7826811671257019	11329.336084289256
0.7853479981422424	16512.910460062558
0.7880334854125977	22671.44808813597
0.7907378077507019	28744.045346930445
0.7934610247612	33409.8603657418
0.7962033748626709	44578.709335685795
0.7989648580551147	66358.07508875665
0.801745593547821	90758.06666039891
0.8045456409454346	116230.8339510059
0.8073651194572449	145119.0756891533
0.8102040886878967	176870.8940912201
0.8130625486373901	213278.60826499603
0.8159406185150146	259516.18655107284
0.8188382983207703	316256.72746140114
0.8217556476593018	379170.96659466624
0.8246926665306091	453008.14829537936
0.8276493549346924	539455.2830775337
0.8306257724761963	632666.7527836782
0.8336219191551208	736260.0862015018
0.8366377949714661	854254.4172417963
0.8396733403205872	987907.94949981
0.8427285552024841	1139528.5175480873
0.8458034992218018	1297324.2660099086
0.8488980531692505	1380633.7007403949
0.8520121574401855	1439366.1899160803
0.8551458716392517	1726987.5975162198
0.8582990765571594	2094126.52609574
0.8614717125892639	2261241.4866109816
0.8646637797355652	2400482.7080969326
0.8678751587867737	2663194.5240126173
0.8711057901382446	2964944.7306808145
0.8743556141853333	3277293.555380217
0.87762451171875	3582167.183726228
0.8809124231338501	3763969.671919693
0.8842192888259888	3862005.5263856985
0.8875449895858765	3966396.0607206267
0.8908893465995789	3842852.2705857623
0.894252359867096	3665917.8040602496
0.8976338505744934	4358821.59896874
0.9010337591171265	5778019.71880462
0.9044519662857056	7062223.491620068
0.9078882932662964	7917090.394881731
0.9113426208496094	8407370.818975037
0.914814829826355	8784411.422202809
0.9183048605918884	9345177.28865997
0.9218124747276306	9778034.67371516
0.925337553024292	8546316.365848064
0.9288799166679382	5921534.725165765
0.9324395060539246	4712380.397514385
0.9360161423683167	5700783.168125518
0.9396095871925354	7377139.661689868
0.943219780921936	8259685.973502245
0.9468464851379395	8260420.3502298845
0.9504896402359009	8266036.964455104
0.9541489481925964	8251623.908691978
0.9578243494033813	8096434.0505215265
0.9615156054496765	8435639.196458543
0.9652225375175476	9756168.715435436
0.9689450263977051	11519022.673508888
0.9726828336715698	12846769.895996826
0.9764357805252075	13978380.68317522
0.9802037477493286	15229945.596675541
0.983986496925354	16433662.86106196
0.9877838492393494	17773031.315608602
0.9915955662727356	19148754.93345363
0.9954215884208679	19748751.77913694
0.9992615580558777	19229345.199688487
1.0031154155731201	19549904.9369679
1.0069829225540161	21654869.283458106
1.0108637809753418	24405878.693594106
1.0147579908370972	27396327.361299615
1.018665075302124	30413668.293436427
1.022585153579712	33152175.545779057
1.0265177488327026	35607131.066243134
1.0304628610610962	38246652.569186516
1.0344202518463135	41296908.85504771
1.0383895635604858	44349149.80609046
1.0423706769943237	46990734.4649522
1.0463634729385376	49162268.84638573
1.0503677129745483	50885248.346949436
1.0543830394744873	52473390.054972425
1.058409333229065	54181159.89722686
1.0624464750289917	56085254.91404552
1.0664942264556885	58030643.51597265
1.0705522298812866	59867422.1930876
1.0746204853057861	61916997.30314794
1.0786986351013184	63744077.57758631
1.0827864408493042	63969019.337800436
1.086883783340454	59588591.522991516
1.0909905433654785	48799812.92370444
1.0951062440872192	35672058.342701554
1.0992310047149658	25223399.602976907
1.10336434841156	17739061.02785221
1.1075061559677124	12288427.581275826
1.1116561889648438	8631260.997836314
1.115814208984375	6891010.208825249
1.1199802160263062	6914434.259695725
1.124153733253479	7963923.5816964805
1.1283347606658936	8515683.565725157
1.1325229406356812	7263221.4826641055
1.1367181539535522	7000514.957378822
1.1409201622009277	8710053.961959513
1.145128846168518	9874218.239498293
1.1493438482284546	10008940.437319238
1.1535650491714478	9169138.677966006
1.1577922105789185	8307966.832621036
1.1620250940322876	8067447.618811844
1.1662636995315552	8078437.192575062
1.170507550239563	9012884.507205855
1.174756646156311	10603916.850500317
1.1790107488632202	13109675.026986355
1.1832695007324219	17327137.102799203
1.1875330209732056	21927739.58519129
1.191800832748413	26794240.65737321
1.1960728168487549	32377626.787543856
1.2003488540649414	37728757.71760042
1.2046287059783936	43054906.19214134
1.2089121341705322	48060562.812620796
1.2131990194320679	52598720.67994233
1.2174891233444214	57351245.3323438
1.2217823266983032	61876718.66518181
1.2260783910751343	66497902.02980684
1.230377197265625	71173371.14426142
1.2346785068511963	74460203.01322223
1.238982081413269	73595575.85862002
1.2432878017425537	70028250.72943777
1.2475954294204712	67611861.21501121
1.2519049644470215	65812856.045599036
1.256216049194336	73395499.29156151
1.2605286836624146	86815119.57754435
1.2648425102233887	91919001.33212827
1.2691574096679688	91289947.1972879
1.2734732627868652	89003699.98626435
1.2777899503707886	86075242.45257159
1.2821072340011597	81478451.47112691
1.2864248752593994	74809657.87100086
1.2907428741455078	69475592.25170146
1.2950609922409058	66969342.966435894
1.2993791103363037	64729207.84038564
1.303696870803833	61938794.27880707
1.3080145120620728	58669306.195538126
1.3123314380645752	53187200.0660424
1.3166478872299194	47534473.99570465
1.3209635019302368	42614421.042175554
1.3252781629562378	33959770.42660895
1.3295916318893433	20986364.037408017
1.3339040279388428	9319328.004166873
1.3382149934768677	3319608.612008412
1.3425244092941284	1494723.356058395
1.3468321561813354	911970.0772895098
1.3511382341384888	617236.4837296965
1.3554422855377197	434212.93517870316
1.3597444295883179	402000.0033177202
1.3640443086624146	527229.8801007499
1.3683418035507202	645433.9707475405
1.3726370334625244	780347.8193358644
1.3769296407699585	1006798.7409871382
1.381219506263733	1018780.0153263953
1.3855066299438477	858210.8991735767
1.3897908926010132	800194.8237901921
1.3940720558166504	767853.9697682634
1.3983501195907593	747867.3126453166
1.4026249647140503	793026.8744712617
1.4068963527679443	801340.5219273004
1.4111642837524414	773485.1265879468
1.4154287576675415	789718.2743293492
1.419689416885376	791775.4210251335
1.4239463806152344	842656.6386721112
1.4281994104385376	1070476.8779168753
1.4324485063552856	1292437.2198945356
1.436693549156189	1387743.0774338099
1.440934419631958	1523455.5076610344
1.4451709985733032	1815637.8346983152
1.449403166770935	2397456.1938889143
1.453631043434143	3058858.4507436412
1.4578542709350586	3516398.458044054
1.4620729684829712	3694536.2088504806
1.4662868976593018	3619653.141478593
1.4704961776733398	3506319.6137563563
1.4747005701065063	3675801.1138323843
1.4788999557495117	4080140.2462026644
1.4830944538116455	4372773.321844803
1.4872838258743286	4636220.379893
1.491468071937561	5052499.872153031
1.4956470727920532	5647836.261586611
1.4998208284378052	6389947.500189428
1.5039892196655273	7089004.479263166
1.5081522464752197	7712351.320046694
1.5123097896575928	8377402.643389298
1.5164618492126465	9162792.246976612
1.5206083059310913	10416528.943163894
1.5247491598129272	11935382.736901514
1.5288842916488647	13342709.46585188
1.5330137014389038	14840029.658805722
1.5371372699737549	16216564.347229512
1.541254997253418	17435718.91365725
1.545366883277893	19075386.326159835
1.5494728088378906	20638340.997012343
1.5535727739334106	21644936.7989666
1.5576666593551636	23082332.880977113
1.561754584312439	25787867.288637478
1.5658363103866577	28819830.98535336
1.5699119567871094	30507169.05125997
1.5739814043045044	31181483.482885115
1.5780447721481323	32098752.433362246
1.582101821899414	33024866.793434452
1.5861525535583496	33166927.22005188
1.5901970863342285	32342746.085499827
1.5942351818084717	31104687.06619135
1.5982669591903687	29602498.513045955
1.6022924184799194	27251000.274447154
1.606311559677124	24468107.67611769
1.6103241443634033	21907670.579402793
1.6143304109573364	19141627.388227314
1.6183301210403442	16585689.481310334
1.6223233938217163	15433155.166972758
1.6263102293014526	15387696.466604766
1.6302905082702637	15792329.593298495
1.634264349937439	17179799.38266555
1.638231635093689	19528208.39427624
1.6421923637390137	20557864.67291027
1.646146535873413	19300614.01308687
1.6500942707061768	18788917.084959965
1.6540353298187256	18332840.272957355
1.6579699516296387	17279089.036830433
1.661897897720337	16608681.47580291
1.6658192873001099	11179373.269251326
1.6697341203689575	5659926.64935567
1.6736423969268799	7583823.359270431
1.677544116973877	10942341.629302394
1.6814392805099487	11161697.638040392
1.6853278875350952	10069278.109081399
1.6892099380493164	8828710.957178803
1.6930854320526123	7457600.719180464
1.696954369544983	6253968.852215227
1.7008168697357178	5529639.867100476
1.7046726942062378	5635512.854792433
1.708522081375122	6673294.834538571
1.712364912033081	7678575.616915982
1.7162011861801147	8355298.425603384
1.7200311422348022	8834234.407576688
1.723854422569275	8427682.294442145
1.7276713848114014	7792581.227597175
1.731481909751892	7450925.780740691
1.7352858781814575	7203932.232893027
1.7390835285186768	7297775.571623502
1.7428747415542603	7534556.574365064
1.7466596364974976	7566920.297846493
1.7504380941390991	7262922.464639049
1.7542102336883545	6407049.087530084
1.7579760551452637	5550160.360018748
1.7617355585098267	5178658.55412923
1.7654887437820435	4785914.939055394
1.7692357301712036	4208457.312939078
1.7729763984680176	3704839.060588444
1.776710867881775	3468073.012691461
1.7804391384124756	3412341.3948101467
1.7841613292694092	3087583.661846813
1.7878772020339966	2713123.807955359
1.7915871143341064	2365690.8493400887
1.7952908277511597	2155027.351693703
1.7989884614944458	2199535.6112813177
1.8026801347732544	1899524.5678102537
1.806365728378296	1665234.113708973
1.8100452423095703	1802420.904542599
1.8137187957763672	1941917.961109438
1.817386507987976	1812147.221951312
1.8210482597351074	1853463.8691428448
1.8247040510177612	2183549.612471405
1.828354001045227	1945542.3511856955
1.8319982290267944	1496016.5536195762
1.8356364965438843	1308706.3109737253
1.8392690420150757	1307499.4182282095
1.8428958654403687	1561420.8658051754
1.8465168476104736	1642471.7250727077
1.8501322269439697	1574303.9011705725
1.8537418842315674	1535513.479684232
1.8573459386825562	1293408.288339859
1.860944390296936	1031536.1954105156
1.864537239074707	909492.4701432692
1.8681244850158691	842669.0725211415
1.871706247329712	937372.406500451
1.8752825260162354	1366172.3526042453
1.8788533210754395	2078607.09183783
1.8824186325073242	2595220.9851074424
1.8859784603118896	2641602.7527339137
1.8895330429077148	2597886.7157870866
1.8930821418762207	2963670.1395239914
1.8966259956359863	3245395.509725343
1.9001644849777222	2778279.294004877
1.9036977291107178	2376368.5897947135
1.9072256088256836	2540076.811496636
1.9107483625411987	2486555.7297800817
1.9142658710479736	2238971.4328607214
1.9177782535552979	2318541.404854895
1.9212853908538818	2244394.2329919944
1.9247875213623047	1926731.234221484
1.9282845258712769	1644867.1823499668
1.9317764043807983	1425637.524204249
1.9352631568908691	1289957.1115270907
1.9387450218200684	1169164.699357491
1.942221760749817	1276611.136477237
1.9456936120986938	1488338.794389185
1.9491604566574097	1575911.605754175
1.952622413635254	1574255.8554288833
1.956079363822937	1536493.581072956
1.959531545639038	1634225.943696045
1.962978720664978	1803157.8864166162
1.966421127319336	2028947.6123326244
1.9698586463928223	2177968.0425970242
1.9732913970947266	2176304.250443098
1.9767193794250488	2343444.4001155556
1.9801424741744995	2529415.8949384126
1.9835609197616577	2747304.8746301867
1.9869745969772339	3021225.441233746
1.990383505821228	3144344.635894849
1.9937876462936401	3570243.09888364
1.9971871376037598	4055418.8220834644
2.000581979751587	4321435.250816775
2.003972291946411	4545969.269692168
2.007357597351074	4572877.691541855
2.0107386112213135	4823780.411250427
2.0141148567199707	5142439.604806697
2.017486572265625	5094417.479229679
2.0208535194396973	5584370.146893465
2.0242159366607666	6374690.654698772
2.027573823928833	6447751.609613264
2.0309269428253174	6625056.053311084
2.034275770187378	7320571.594342534
2.0376198291778564	7715710.909642024
2.040959596633911	7779570.595492016
2.044294595718384	8314369.594623749
2.0476250648498535	9128880.487440784
2.0509510040283203	9294094.065239731
2.054272413253784	9385660.910364628
2.057589530944824	10130946.194318892
2.0609018802642822	10560288.356783157
2.0642096996307373	10604071.551443394
2.0675129890441895	10892847.161438929
2.0708119869232178	11109470.766859692
2.074106216430664	11176444.892997518
2.0773961544036865	11242201.218387656
2.080681324005127	11392300.501604145
2.0839622020721436	11540054.824981755
2.087238311767578	11636179.685371816
2.090510129928589	11752001.499788499
2.0937774181365967	11728341.68521884
2.0970399379730225	11578188.249620324
2.1002981662750244	11330144.323846195
2.1035518646240234	11059156.51621083
2.1068007946014404	10836286.604553524
2.1100454330444336	10632834.143584922
2.1132853031158447	10564160.205672216
2.116520881652832	10328033.182645805
2.1197516918182373	10002016.232360639
2.1229779720306396	9900840.363942146
2.12619948387146	9771200.001241848
2.1294167041778564	9532177.554814145
2.132629156112671	9376837.517802723
2.1358368396759033	9183648.437436637
2.139039993286133	8707226.816070067
2.1422386169433594	7924424.983331358
2.145432472229004	7199205.1148081655
2.1486217975616455	6941916.706794216
2.151806354522705	6879481.100814771
2.1549863815307617	6711862.187521523
2.1581614017486572	6406129.221799838
2.16133189201355	5975099.616991584
2.1644976139068604	5613328.921318617
2.167658567428589	5308630.781277146
2.1708147525787354	5081360.615111163
2.173966407775879	4881274.150854286
2.1771130561828613	4582593.842275721
2.1802549362182617	4308235.83568482
2.183391809463501	3987549.117099754
2.1865241527557373	3600205.483289332
2.1896514892578125	3126464.0622573285
2.1927738189697266	2491273.488855264
2.1958916187286377	1767414.0344225988
2.1990041732788086	1101281.920222836
2.2021119594573975	724958.9058769722
2.2052149772644043	688177.7119493573
2.208312749862671	849917.4218655354
2.2114057540893555	1081027.8377897877
2.214493751525879	1287504.3268931534
2.217576742172241	1418085.9586193985
2.2206547260284424	1443477.8776713624
2.2237277030944824	1369599.2733850223
2.2267956733703613	1229050.6766238476
2.2298583984375	1092548.184596655
2.2329163551330566	1020376.4830309537
2.235969066619873	976253.5607304022
2.2390167713165283	882476.0947843842
2.2420592308044434	777325.8942926681
2.2450966835021973	702087.5322199607
2.248128890991211	640611.1965381377
2.2511560916900635	606001.8542067439
2.254178285598755	588655.459587676
2.257194995880127	581765.2780959755
2.260206699371338	586344.4422601601
2.2632133960723877	602181.864659192
2.266214609146118	619986.6039949196
2.2692108154296875	624030.2111074312
2.2722020149230957	622330.0274340409
2.2751877307891846	606465.6311139722
2.278168201446533	594495.9147103438
2.2811436653137207	568343.5445264598
2.284113883972168	498506.45358308905
2.287078857421875	445879.6637334242
2.290038824081421	410703.5151655928
2.2929933071136475	380732.01434098126
2.295942783355713	389491.03008173645
2.298887014389038	446124.6589879007
2.301826238632202	517297.51588634757
2.304760217666626	628790.7102122041
2.3076889514923096	880409.5428281851
2.310612440109253	1213237.0160910354
2.3135311603546143	1276706.8220298947
2.3164443969726562	842356.2791901836
2.319352865219116	392145.4549739022
2.322256088256836	298387.8009818554
2.3251543045043945	317201.4519336686
2.328047275543213	324838.6343570748
2.330935478210449	352452.68085728795
2.3338186740875244	384826.29809793393
2.3366971015930176	409643.9034681047
2.3395702838897705	428394.9381418509
2.3424389362335205	431897.99821808236
2.3453025817871094	408872.57664968324
2.348161458969116	401665.65787986247
2.351015567779541	435570.69091801316
2.353865146636963	480595.6088231465
2.3567099571228027	535453.8169432824
2.3595502376556396	632519.273198496
2.3623859882354736	741839.6991932006
2.3652172088623047	786738.6267640564
2.368043899536133	686586.3387453038
2.370866537094116	455650.6302435052
2.3736846446990967	339966.61591389705
2.3764986991882324	385185.43999741913
2.3793084621429443	409676.73339653393
2.3821144104003906	399059.0776728146
2.384916305541992	460610.72516418714
2.387714147567749	595648.8526122193
2.3905084133148193	659667.3246543052
2.393299102783203	649443.923930626
2.3960859775543213	678130.7230164838
2.398869514465332	775614.6104713618
2.4016497135162354	886825.8475491164
2.4044265747070312	960931.0633610354
2.407200336456299	976506.732383377
2.409970998764038	1040742.9330688078
2.4127390384674072	1162467.3571301654
2.415503978729248	1124877.96601887
2.418266534805298	1023644.7558604638
2.4210267066955566	1023742.9051859892
2.4237842559814453	970188.8914290997
2.426539897918701	919451.691089998
2.429293394088745	1052714.3474172098
2.4320452213287354	1198937.5413374484
2.4347951412200928	1167618.5707914175
2.4375438690185547	1226818.462667253
2.440291166305542	1409538.3778264103
2.443037271499634	1410228.420901989
2.445782423019409	1321685.1421195066
2.4485268592834473	1310798.34193301
2.451270818710327	1312274.735401664
2.454014539718628	1357531.349498471
2.4567582607269287	1520062.7496344992
2.4595019817352295	1603304.3214368185
2.4622461795806885	1697610.8845692757
2.4649908542633057	1847556.2414763619
2.4677364826202393	1702910.5881299574
2.4704833030700684	1468791.1817695964
2.473231554031372	1397076.5765637795
2.4759814739227295	1452780.5813204658
2.4787333011627197	1529429.680542387
2.481487512588501	1565695.28508591
