#wavelength	surface flux
0.6450077295303345	1642.9388433580384
0.6472567915916443	2674.3756610285736
0.6494921445846558	3708.576704047959
0.6517150402069092	4567.916982227258
0.6539263725280762	5541.623368635154
0.6561272740364075	6650.821886221301
0.6583186388015747	7918.615852410159
0.6605015397071838	9368.494919255625
0.6626768708229065	10984.36914412124
0.6648455858230591	12735.543162770226
0.6670085787773132	14155.91408742278
0.6691668033599854	14166.971352324379
0.6713210344314575	14818.965616491201
0.6734722256660461	18801.84523796734
0.6756211519241333	23236.250279596923
0.6777685880661011	26083.00760594017
0.6799154281616211	28466.6978205129
0.6820623278617859	30676.40300514269
0.6842101216316223	32675.095821625404
0.6863595843315125	34372.31574037659
0.688511312007904	35520.66600304293
0.6906660795211792	35491.17390348338
0.6928245425224304	34703.701335938116
0.6949873566627502	34937.02510190605
0.6971551775932312	35796.0963939081
0.6993286609649658	35443.21726682722
0.7015084028244019	34057.93909285144
0.7036949396133423	32596.6674716955
0.7058889269828796	31165.402233231525
0.7080909013748169	29542.904408930484
0.710301399230957	27635.657701072676
0.712520956993103	25425.908748531263
0.7147500514984131	22541.301973230453
0.7169892191886902	19084.22583310741
0.7192389369010925	16452.827099762406
0.7214996814727783	14774.054986611742
0.723771870136261	12975.093561236774
0.7260559797286987	11164.4605030496
0.7283523678779602	9787.432891754215
0.7306615710258484	8719.206978579994
0.7329838871955872	7898.008873696363
0.7353196740150452	7208.419070651441
0.7376693487167358	6437.722839163505
0.7400332689285278	5687.4446726837905
0.7424117922782898	5034.237185252221
0.7448052167892456	4479.762428588312
0.7472138404846191	3989.6804496899254
0.7496379613876343	3526.207236922348
0.7520779371261597	3081.2877765981284
0.7545340061187744	2637.379666847947
0.7570064663887024	2174.5735773845186
0.7594954967498779	1679.9996982003654
0.7620013952255249	1143.6953216766922
0.7645244002342224	618.0825578121286
0.7670646905899048	292.5253973730485
0.7696225643157959	327.82854984563494
0.7721980810165405	792.8715451753939
0.7747915983200073	1587.4623063235101
0.7774031162261963	2374.9575383801384
0.7800329327583313	3162.092962073883
0.7826811671257019	4364.940102355892
0.7853479981422424	5855.401103278723
0.7880334854125977	7370.787792286188
0.7907378077507019	8724.35998167305
0.7934610247612	9630.915033652507
0.7962033748626709	11796.298188072213
0.7989648580551147	16096.95454426443
0.801745593547821	20810.895559386234
0.8045456409454346	25610.472993667812
0.8073651194572449	30662.43469960134
0.8102040886878967	35478.5474998718
0.8130625486373901	41146.36450989161
0.8159406185150146	50207.50252890909
0.8188382983207703	62469.54872369407
0.8217556476593018	75097.63848968627
0.8246926665306091	90349.8773216867
0.8276493549346924	109531.51018773382
0.8306257724761963	129921.73430020997
0.8336219191551208	152455.00231635658
0.8366377949714661	178413.7922629423
0.8396733403205872	208915.33821070398
0.8427285552024841	245800.37591480414
0.8458034992218018	287461.578748543
0.8488980531692505	314934.46291159495
0.8520121574401855	336824.4665953178
0.8551458716392517	408819.28653499705
0.8582990765571594	499755.6107088259
0.8614717125892639	554914.4674637029
0.8646637797355652	609528.0149359227
0.8678751587867737	691925.3892554234
0.8711057901382446	787588.8317205169
0.8743556141853333	875540.6988690303
0.87762451171875	916821.8370812347
0.8809124231338501	843554.6830416879
0.8842192888259888	703793.509693719
0.8875449895858765	611792.2351534882
0.8908893465995789	548251.2893577935
0.894252359867096	521847.37789413927
0.8976338505744934	696370.7496484332
0.9010337591171265	1103909.0898239813
0.9044519662857056	1565845.3384773028
0.9078882932662964	1860195.0870791397
0.9113426208496094	1928190.861191006
0.914814829826355	1899404.024854127
0.9183048605918884	1970280.289607058
0.9218124747276306	2051875.1357818623
0.925337553024292	1656966.1919862274
0.9288799166679382	929476.2728455268
0.9324395060539246	563609.0518277999
0.9360161423683167	639438.2948193166
0.9396095871925354	854714.7534099258
0.943219780921936	998228.2826642982
0.9468464851379395	1027518.0077188967
0.9504896402359009	1029925.9522475174
0.9541489481925964	1010862.6170280138
0.9578243494033813	959874.8002406132
0.9615156054496765	995375.9391439781
0.9652225375175476	1206738.0790320027
0.9689450263977051	1472750.2435515255
0.9726828336715698	1629952.8936338942
0.9764357805252075	1744214.783276691
0.9802037477493286	1864144.3814783741
0.983986496925354	1922883.4488183043
0.9877838492393494	2040900.589725546
0.9915955662727356	2350775.7780697546
0.9954215884208679	2818762.5708918697
0.9992615580558777	3428975.4907279094
1.0031154155731201	4243370.427219037
1.0069829225540161	5103501.705144923
1.0108637809753418	5860378.942271421
1.0147579908370972	6628838.578888464
1.018665075302124	7424143.448282579
1.022585153579712	8246264.024810395
1.0265177488327026	9167554.20538882
1.0304628610610962	10108934.484425677
1.0344202518463135	11103171.631544303
1.0383895635604858	12275899.177507844
1.0423706769943237	13415883.90146992
1.0463634729385376	14282486.961487118
1.0503677129745483	15035797.847765036
1.0543830394744873	15880891.737443643
1.058409333229065	16572312.073209845
1.0624464750289917	17063599.06632018
1.0664942264556885	17337135.27680822
1.0705522298812866	17386013.074528135
1.0746204853057861	17631297.953814544
1.0786986351013184	17803995.042202808
1.0827864408493042	17127488.78919342
1.086883783340454	14511066.428825174
1.0909905433654785	10024865.832640989
1.0951062440872192	5984137.148065706
1.0992310047149658	3729805.2401844203
1.10336434841156	2484997.7020082474
1.1075061559677124	1613423.384799211
1.1116561889648438	1031256.0989573234
1.115814208984375	709590.4660852709
1.1199802160263062	599344.8276126946
1.124153733253479	602334.602890717
1.1283347606658936	632584.020026053
1.1325229406356812	555720.6062804591
1.1367181539535522	585660.8010635488
1.1409201622009277	794730.9040567399
1.145128846168518	845313.7565922457
1.1493438482284546	712842.5963675015
1.1535650491714478	560147.9187549083
1.1577922105789185	493000.5737613443
1.1620250940322876	479871.3293270681
1.1662636995315552	523916.0941000457
1.170507550239563	743068.5230042783
1.174756646156311	1072927.644123852
1.1790107488632202	1528826.7063282467
1.1832695007324219	2135791.4322116002
1.1875330209732056	2758054.8315501874
1.191800832748413	3620819.321740933
1.1960728168487549	4779824.375070798
1.2003488540649414	5924293.682312224
1.2046287059783936	7170357.920635758
1.2089121341705322	8358890.66114291
1.2131990194320679	9389910.388661422
1.2174891233444214	10565586.161690323
1.2217823266983032	11906752.7396955
1.2260783910751343	13554471.00888707
1.230377197265625	15395895.641339669
1.2346785068511963	17104716.2907137
1.238982081413269	18424689.322465405
1.2432878017425537	19472169.872474674
1.2475954294204712	20417080.21945279
1.2519049644470215	20855373.18401566
1.256216049194336	22442711.3286742
1.2605286836624146	24411545.234755863
1.2648425102233887	24036648.014856413
1.2691574096679688	22353094.73826716
1.2734732627868652	20587249.904331442
1.2777899503707886	18980510.8183708
1.2821072340011597	17071114.44812397
1.2864248752593994	14616551.908009646
1.2907428741455078	12817005.504741648
1.2950609922409058	12142615.306760991
1.2993791103363037	11451462.885680808
1.303696870803833	10310873.076272571
1.3080145120620728	9118968.489081303
1.3123314380645752	7770126.673226764
1.3166478872299194	6738656.313803109
1.3209635019302368	6277666.474104143
1.3252781629562378	5273998.557753018
1.3295916318893433	3221491.047756298
1.3339040279388428	1273057.4653654338
1.3382149934768677	399155.26441475574
1.3425244092941284	172259.89243502356
1.3468321561813354	83456.08084832186
1.3511382341384888	45040.39954555673
1.3554422855377197	26947.746191911403
1.3597444295883179	22505.791161968587
1.3640443086624146	30382.481418598054
1.3683418035507202	38027.27880627547
1.3726370334625244	47496.599438223406
1.3769296407699585	63065.59131737983
1.381219506263733	61842.58015483348
1.3855066299438477	51380.92594847515
1.3897908926010132	51933.58523839186
1.3940720558166504	53137.743384136345
1.3983501195907593	52114.67787035168
1.4026249647140503	53275.61756243541
1.4068963527679443	52900.796607118544
1.4111642837524414	56650.09870685355
1.4154287576675415	65790.99862576049
1.419689416885376	66940.74524083755
1.4239463806152344	71925.45970187314
1.4281994104385376	101715.5508676713
1.4324485063552856	132751.23153640682
1.436693549156189	147744.79763188204
1.440934419631958	168764.15090996277
1.4451709985733032	215105.02575031534
1.449403166770935	311057.40515468514
1.453631043434143	420284.3473975543
1.4578542709350586	477877.107875926
1.4620729684829712	474417.1949032127
1.4662868976593018	427580.80548153404
1.4704961776733398	356787.5542658112
1.4747005701065063	331627.1215146567
1.4788999557495117	379832.98710620654
1.4830944538116455	429900.1235777239
1.4872838258743286	463593.9593940967
1.491468071937561	496191.63714489207
1.4956470727920532	559835.6260217337
1.4998208284378052	668263.1536268793
1.5039892196655273	731002.3237632475
1.5081522464752197	732498.617956758
1.5123097896575928	740731.207486339
1.5164618492126465	823014.9287601662
1.5206083059310913	1037806.0736793849
1.5247491598129272	1291681.7745115482
1.5288842916488647	1532269.3828965595
1.5330137014389038	1790306.679354087
1.5371372699737549	2003546.5293127608
1.541254997253418	2189751.8652912118
1.545366883277893	2466429.7283357973
1.5494728088378906	2747651.7518945453
1.5535727739334106	2959339.2833706723
1.5576666593551636	3386163.8494759435
1.561754584312439	4259234.979779513
1.5658363103866577	5240869.866981934
1.5699119567871094	5721336.5097561935
1.5739814043045044	5838689.748810819
1.5780447721481323	6123424.654756881
1.582101821899414	6406585.304536233
1.5861525535583496	6347349.964679726
1.5901970863342285	5956145.217121373
1.5942351818084717	5431413.66033694
1.5982669591903687	4837867.284705152
1.6022924184799194	4057158.8449282167
1.606311559677124	3272099.7438417505
1.6103241443634033	2701098.960809849
1.6143304109573364	2115625.7856174908
1.6183301210403442	1562925.172271979
1.6223233938217163	1401468.0512671003
1.6263102293014526	1526311.229767356
1.6302905082702637	1693605.0982398055
1.634264349937439	1972148.2229688545
1.638231635093689	2386249.0098165334
1.6421923637390137	2442739.4672110137
1.646146535873413	1959150.3914857944
1.6500942707061768	1843420.2739025755
1.6540353298187256	1951053.9371663777
1.6579699516296387	1731448.8473921218
1.661897897720337	1631184.7405254012
1.6658192873001099	1111828.7987900302
1.6697341203689575	422580.82877457264
1.6736423969268799	443892.58560841327
1.677544116973877	643544.543008926
1.6814392805099487	612972.3225614178
1.6853278875350952	528309.2560684219
1.6892099380493164	436013.80552975816
1.6930854320526123	315299.86138261727
1.696954369544983	227530.36460341027
1.7008168697357178	185892.2208143743
1.7046726942062378	208226.8657262055
1.708522081375122	310128.4516826086
1.712364912033081	421372.04669016536
1.7162011861801147	538837.8003367519
1.7200311422348022	633222.2485464136
1.723854422569275	595815.806449473
1.7276713848114014	530602.1142247872
1.731481909751892	508317.3521838795
1.7352858781814575	523142.9467395024
1.7390835285186768	623546.3338083134
1.7428747415542603	754935.3681535219
1.7466596364974976	851248.8259773816
1.7504380941390991	862590.2520559812
1.7542102336883545	746689.616562515
1.7579760551452637	610764.3463949059
1.7617355585098267	554607.2173898382
1.7654887437820435	524338.1043925039
1.7692357301712036	460514.24210108205
1.7729763984680176	399629.72750223405
1.776710867881775	426844.6663521328
1.7804391384124756	490330.4969991455
1.7841613292694092	455324.44103631756
1.7878772020339966	377427.6358358025
1.7915871143341064	299169.5011609114
1.7952908277511597	267620.80411105935
1.7989884614944458	299929.31762135815
1.8026801347732544	264897.5531371814
1.806365728378296	228928.07053242967
1.8100452423095703	249077.27923307367
1.8137187957763672	261435.42079674563
1.817386507987976	238522.97968174037
1.8210482597351074	264465.3458407655
1.8247040510177612	329996.1473507011
1.828354001045227	274047.5914192383
1.8319982290267944	180574.16429966633
1.8356364965438843	141840.6055049429
1.8392690420150757	144756.4864371843
1.8428958654403687	207575.7157481185
1.8465168476104736	236515.89940137867
1.8501322269439697	221673.9653857187
1.8537418842315674	217268.22833764052
1.8573459386825562	185342.33379243832
1.860944390296936	143494.46203000264
1.864537239074707	117188.73896176097
1.8681244850158691	94443.36535243648
1.871706247329712	98161.10905905622
1.8752825260162354	167800.8446268242
1.8788533210754395	304066.78885159804
1.8824186325073242	401539.7168435014
1.8859784603118896	399592.55132138234
1.8895330429077148	379260.19594590383
1.8930821418762207	431658.79993037926
1.8966259956359863	465977.92303058563
1.9001644849777222	358129.64098669257
1.9036977291107178	268444.6651322057
1.9072256088256836	288287.5374087398
1.9107483625411987	274807.65851435176
1.9142658710479736	230581.59149763527
1.9177782535552979	237965.40034043512
1.9212853908538818	235604.2346666996
1.9247875213623047	199832.86929205916
1.9282845258712769	161614.57014651594
1.9317764043807983	134802.18285919467
1.9352631568908691	121515.7533137445
1.9387450218200684	111492.83556683046
1.942221760749817	129338.17065882687
1.9456936120986938	154546.54200281244
1.9491604566574097	156257.04018354346
1.952622413635254	149884.76583587783
1.956079363822937	156900.22745103305
1.959531545639038	184753.82881355454
1.962978720664978	205356.0409151108
1.966421127319336	220445.26214838063
1.9698586463928223	232064.2898265024
1.9732913970947266	245183.21955207022
1.9767193794250488	286326.2072225259
1.9801424741744995	305499.82609086286
1.9835609197616577	318879.4529611837
1.9869745969772339	368203.64552804537
1.990383505821228	423750.1794855634
1.9937876462936401	519206.39062460186
1.9971871376037598	623462.9680650078
2.000581979751587	686226.3469484926
2.003972291946411	698398.9787105938
2.007357597351074	697499.2992553103
2.0107386112213135	727726.2117974907
2.0141148567199707	718232.8580591645
2.017486572265625	666734.5819631222
2.0208535194396973	739896.9248846548
2.0242159366607666	912965.2915472888
2.027573823928833	989368.4628463329
2.0309269428253174	1061571.1895507255
2.034275770187378	1206692.358441769
2.0376198291778564	1280516.7897839332
2.040959596633911	1295293.6331194972
2.044294595718384	1452475.2316942026
2.0476250648498535	1687318.9655022232
2.0509510040283203	1751649.2262936772
2.054272413253784	1789913.0991055684
2.057589530944824	1979350.418691623
2.0609018802642822	2102550.176584626
2.0642096996307373	2158451.0859084777
2.0675129890441895	2275525.3659867714
2.0708119869232178	2371321.446217725
2.074106216430664	2441343.3520305036
2.0773961544036865	2480892.5122585227
2.080681324005127	2514478.301840391
2.0839622020721436	2560372.675298144
2.087238311767578	2602414.1978818746
2.090510129928589	2663496.996775719
2.0937774181365967	2661295.883384149
2.0970399379730225	2581031.7693589223
2.1002981662750244	2471734.333959142
2.1035518646240234	2387270.2366982
2.1068007946014404	2312124.839917678
2.1100454330444336	2207431.3259789357
2.1132853031158447	2150562.1494039213
2.116520881652832	2063148.51323222
2.1197516918182373	1950140.6887292736
2.1229779720306396	1898955.1845705726
2.12619948387146	1846808.1751753213
2.1294167041778564	1784100.9698688753
2.132629156112671	1744536.3950546707
2.1358368396759033	1682609.2071002892
2.139039993286133	1535389.9612548468
2.1422386169433594	1292418.3258273562
2.145432472229004	1065561.5005952173
2.1486217975616455	990626.6706134
2.151806354522705	974938.4501397304
2.1549863815307617	915996.4063639843
2.1581614017486572	833587.044066994
2.16133189201355	735875.1163753695
2.1644976139068604	653318.8262543496
2.167658567428589	581916.7800026578
2.1708147525787354	543686.1089704742
2.173966407775879	538659.5897363506
2.1771130561828613	510817.3941131961
2.1802549362182617	473401.29542521574
2.183391809463501	425800.57985210576
2.1865241527557373	373247.7594043499
2.1896514892578125	307696.47316846205
2.1927738189697266	212449.5162392889
2.1958916187286377	123578.22458779986
2.1990041732788086	62828.69300615323
2.2021119594573975	33876.13799678188
2.2052149772644043	33885.998515118525
2.208312749862671	49294.084725095214
2.2114057540893555	69803.19381844482
2.214493751525879	88184.70978999673
2.217576742172241	100179.01607017653
2.2206547260284424	100104.96115682696
2.2237277030944824	90274.51116037485
2.2267956733703613	78510.72679945885
2.2298583984375	66541.82328150871
2.2329163551330566	60246.424986126236
2.235969066619873	57571.969778590006
2.2390167713165283	48828.13900832008
2.2420592308044434	40712.20284047885
2.2450966835021973	35633.779175289994
2.248128890991211	29742.924782857954
2.2511560916900635	26060.113445422085
2.254178285598755	24398.25958725537
2.257194995880127	24365.613569505873
2.260206699371338	25833.179483124804
2.2632133960723877	27079.401107486934
2.266214609146118	28337.33211229669
2.2692108154296875	29407.654075013208
2.2722020149230957	30061.971602480124
2.2751877307891846	29151.598773622765
2.278168201446533	28489.20767200777
2.2811436653137207	27289.531121256037
2.284113883972168	22067.277246152276
2.287078857421875	17875.830663935252
2.290038824081421	16265.970780569827
2.2929933071136475	15096.927001722226
2.295942783355713	15796.727567960228
2.298887014389038	18828.710387018502
2.301826238632202	22416.767926984157
2.304760217666626	29144.70346909363
2.3076889514923096	46771.604942522936
2.310612440109253	74035.01651123243
2.3135311603546143	82414.2552526242
2.3164443969726562	51028.06240637095
2.319352865219116	18010.85283805147
2.322256088256836	11338.990732183802
2.3251543045043945	12795.3118648489
2.328047275543213	13610.020989132605
2.330935478210449	15847.276787360175
2.3338186740875244	18919.16243904373
2.3366971015930176	21448.257314317016
2.3395702838897705	22860.299885065815
2.3424389362335205	22887.144981527217
2.3453025817871094	20508.77379890839
2.348161458969116	19159.753091259794
2.351015567779541	21429.06260022798
2.353865146636963	24674.488204250873
2.3567099571228027	28780.33473404874
2.3595502376556396	35648.3585085097
2.3623859882354736	43275.94252530903
2.3652172088623047	46530.3163340755
2.368043899536133	40265.5674175061
2.370866537094116	25241.184991494665
2.3736846446990967	17046.298560368556
2.3764986991882324	20405.34076845354
2.3793084621429443	22752.081233569214
2.3821144104003906	21724.95478929033
2.384916305541992	26503.658125314254
2.387714147567749	37569.39939833035
2.3905084133148193	42423.23501227513
2.393299102783203	40289.187464743685
2.3960859775543213	41061.12182301245
2.398869514465332	48891.52750929289
2.4016497135162354	60813.596356382484
2.4044265747070312	72532.8562462451
2.407200336456299	78907.48728682568
2.409970998764038	88996.4522127258
2.4127390384674072	101960.841910646
2.415503978729248	96466.59407755957
2.418266534805298	82849.0363317718
2.4210267066955566	76552.59342596802
2.4237842559814453	67480.1737209275
2.426539897918701	64405.12088387875
2.429293394088745	80406.74728309465
2.4320452213287354	93963.03732344758
2.4347951412200928	93981.61663368958
2.4375438690185547	109705.2725282961
2.440291166305542	137656.2508980799
2.443037271499634	143859.8622689239
2.445782423019409	135822.52923209665
2.4485268592834473	135126.13467477096
2.451270818710327	141532.57779498858
2.454014539718628	153710.83387215043
2.4567582607269287	173912.92967423252
2.4595019817352295	192012.99905468526
2.4622461795806885	214550.1164091467
2.4649908542633057	241349.5104858854
2.4677364826202393	231958.5017200537
2.4704833030700684	204640.24741054163
2.473231554031372	196093.27623206697
2.4759814739227295	207429.88604414175
2.4787333011627197	218738.80344253543
2.481487512588501	222253.86483563614
