#wavelength	surface flux
0.6450077295303345	38056.81229569106
0.6472567915916443	61144.95289035131
0.6494921445846558	82621.9854538651
0.6517150402069092	98783.035141346
0.6539263725280762	116495.70351613182
0.6561272740364075	136219.15333980435
0.6583186388015747	157980.95557537564
0.6605015397071838	181692.0192175239
0.6626768708229065	206774.36070325723
0.6648455858230591	231025.75131930542
0.6670085787773132	241470.64734923508
0.6691668033599854	217359.9323400953
0.6713210344314575	209866.14143636974
0.6734722256660461	281248.7585681014
0.6756211519241333	369413.69340944197
0.6777685880661011	422762.386903774
0.6799154281616211	461629.0691549802
0.6820623278617859	495691.1835836915
0.6842101216316223	526057.5268161834
0.6863595843315125	552265.3211490079
0.688511312007904	572734.4009376288
0.6906660795211792	584266.0752937527
0.6928245425224304	588650.6186988961
0.6949873566627502	594992.2419054934
0.6971551775932312	601676.660875085
0.6993286609649658	598736.5998868012
0.7015084028244019	586606.6921894674
0.7036949396133423	569722.4717051118
0.7058889269828796	548893.8817116776
0.7080909013748169	524191.6944270305
0.710301399230957	495983.1873211025
0.712520956993103	464491.8021435679
0.7147500514984131	428065.99319606443
0.7169892191886902	387930.44362390117
0.7192389369010925	351891.82024215534
0.7214996814727783	320069.2181010548
0.723771870136261	286827.8312591465
0.7260559797286987	253480.46028332994
0.7283523678779602	222625.31831227895
0.7306615710258484	194052.84400886545
0.7329838871955872	167847.20982249992
0.7353196740150452	143656.32802097284
0.7376693487167358	120690.54965427885
0.7400332689285278	99552.29723202057
0.7424117922782898	80623.66278531341
0.7448052167892456	63968.781120959145
0.7472138404846191	49561.45674657154
0.7496379613876343	37350.43191674384
0.7520779371261597	27329.941958119827
0.7545340061187744	19407.512983895464
0.7570064663887024	13382.588961685442
0.7594954967498779	8933.943997253964
0.7620013952255249	5588.745616846837
0.7645244002342224	2988.0360711278845
0.7670646905899048	1482.19076825738
0.7696225643157959	1635.1174366594555
0.7721980810165405	3752.325797935466
0.7747915983200073	7579.071493764831
0.7774031162261963	12072.655729052034
0.7800329327583313	18474.254280758152
0.7826811671257019	30660.17259515551
0.7853479981422424	48566.06745007625
0.7880334854125977	70563.39694099827
0.7907378077507019	92215.54445063142
0.7934610247612	108276.03281180559
0.7962033748626709	145993.1364985857
0.7989648580551147	218892.39363881896
0.801745593547821	298011.22786406934
0.8045456409454346	377355.4887626965
0.8073651194572449	465550.04138687457
0.8102040886878967	562074.841089849
0.8130625486373901	671135.3866575684
0.8159406185150146	799911.2599057825
0.8188382983207703	950001.1551480979
0.8217556476593018	1126317.8725081454
0.8246926665306091	1335459.4571868998
0.8276493549346924	1567813.4048746033
0.8306257724761963	1814165.1972736325
0.8336219191551208	2084480.3686023406
0.8366377949714661	2386071.4939988907
0.8396733403205872	2721066.8581510875
0.8427285552024841	3093356.0455373405
0.8458034992218018	3467896.062695817
0.8488980531692505	3626696.1676936396
0.8520121574401855	3710900.2631416353
0.8551458716392517	4405452.476287794
0.8582990765571594	5229804.262151785
0.8614717125892639	5295635.861621526
0.8646637797355652	5244723.930696541
0.8678751587867737	5688116.836984412
0.8711057901382446	6249988.787728304
0.8743556141853333	6850379.612787222
0.87762451171875	7556572.694239369
0.8809124231338501	8140684.463312343
0.8842192888259888	8673886.351172063
0.8875449895858765	9196000.488679258
0.8908893465995789	9078008.434070686
0.894252359867096	8755001.990598246
0.8976338505744934	10291524.9377208
0.9010337591171265	13207362.476487765
0.9044519662857056	15665547.509152997
0.9078882932662964	17406916.16420874
0.9113426208496094	18672567.782883655
0.914814829826355	19803227.89730553
0.9183048605918884	21173119.670448005
0.9218124747276306	22159720.51381685
0.925337553024292	20044151.170458276
0.9288799166679382	15404137.369586648
0.9324395060539246	13554730.039091313
0.9360161423683167	15893110.90613513
0.9396095871925354	19439946.17554143
0.943219780921936	21510891.334183626
0.9468464851379395	21918252.538468737
0.9504896402359009	22181243.119197108
0.9541489481925964	22281309.763628647
0.9578243494033813	22037411.85454236
0.9615156054496765	22673052.047007553
0.9652225375175476	25122610.821918614
0.9689450263977051	28437485.365780246
0.9726828336715698	31137294.25567147
0.9764357805252075	33645651.77583272
0.9802037477493286	36436867.36359761
0.983986496925354	39083493.54822347
0.9877838492393494	40916621.36337998
0.9915955662727356	41071755.93643022
0.9954215884208679	39209589.66286998
0.9992615580558777	34969227.82572447
1.0031154155731201	32661909.59592379
1.0069829225540161	35173496.31064994
1.0108637809753418	39744777.50011121
1.0147579908370972	45026364.344184674
1.018665075302124	50503336.20260959
1.022585153579712	55257732.18962302
1.0265177488327026	58948651.989403404
1.0304628610610962	63142432.29060503
1.0344202518463135	68644211.9450831
1.0383895635604858	74025929.07810234
1.0423706769943237	78233821.06997716
1.0463634729385376	81298706.61107431
1.0503677129745483	83110018.25223461
1.0543830394744873	84577207.41258056
1.058409333229065	86949524.70893575
1.0624464750289917	90453383.9764468
1.0664942264556885	94696501.85206947
1.0705522298812866	99305125.22915132
1.0746204853057861	104436730.08494425
1.0786986351013184	109293150.14703457
1.0827864408493042	111949842.23967128
1.086883783340454	107957237.81807126
1.0909905433654785	93814223.17288356
1.0951062440872192	74484113.58062775
1.0992310047149658	57559354.51974625
1.10336434841156	44130419.02997305
1.1075061559677124	33284824.967991237
1.1116561889648438	25477848.788687073
1.115814208984375	21904608.634750977
1.1199802160263062	22334835.94618298
1.124153733253479	25275107.465994474
1.1283347606658936	26629151.96382717
1.1325229406356812	22462572.730032213
1.1367181539535522	19865770.77689499
1.1409201622009277	23132405.956486754
1.145128846168518	27536578.848243475
1.1493438482284546	29958321.156238265
1.1535650491714478	28874069.18635725
1.1577922105789185	27018730.56018181
1.1620250940322876	25956662.991476674
1.1662636995315552	24284960.490940433
1.170507550239563	23983187.863280825
1.174756646156311	25140495.951661207
1.1790107488632202	28715971.27724979
1.1832695007324219	37298816.33439286
1.1875330209732056	47309708.717380576
1.191800832748413	56617350.29462244
1.1960728168487549	65940844.57800228
1.2003488540649414	74470021.49204722
1.2046287059783936	83155729.41858454
1.2089121341705322	91616524.78056976
1.2131990194320679	99481228.33831996
1.2174891233444214	107526968.50108168
1.2217823266983032	114946270.47200862
1.2260783910751343	122527884.68616411
1.230377197265625	129690084.02302529
1.2346785068511963	133440968.87464008
1.238982081413269	128327967.19102904
1.2432878017425537	118109031.2776585
1.2475954294204712	111869137.85613875
1.2519049644470215	107872465.13356887
1.256216049194336	121876864.95544639
1.2605286836624146	147783096.01084974
1.2648425102233887	159349396.86181825
1.2691574096679688	161361930.51528314
1.2734732627868652	160499185.06483912
1.2777899503707886	158361178.97036147
1.2821072340011597	153622942.06860322
1.2864248752593994	145044609.3462705
1.2907428741455078	138007803.50111818
1.2950609922409058	135191129.0253831
1.2993791103363037	132581167.68329976
1.303696870803833	128855324.0816124
1.3080145120620728	123661828.3320494
1.3123314380645752	114658344.69964065
1.3166478872299194	104845945.23477441
1.3209635019302368	94655501.8935054
1.3252781629562378	76684066.53005613
1.3295916318893433	49397741.792972416
1.3339040279388428	23336727.892418224
1.3382149934768677	9080051.134088634
1.3425244092941284	4649003.381128431
1.3468321561813354	3222911.3640461937
1.3511382341384888	2384021.6854050034
1.3554422855377197	1844462.7665961355
1.3597444295883179	1798604.3427023245
1.3640443086624146	2263776.9476074795
1.3683418035507202	2654698.3612321634
1.3726370334625244	2993537.438845041
1.3769296407699585	3623258.686326069
1.381219506263733	3729098.4078209936
1.3855066299438477	3340441.8856291194
1.3897908926010132	3153020.9414734915
1.3940720558166504	2970167.649112826
1.3983501195907593	2850716.133806734
1.4026249647140503	2963577.8320309487
1.4068963527679443	2930802.120532129
1.4111642837524414	2765501.116467947
1.4154287576675415	2781385.9917065264
1.419689416885376	2774101.5194497053
1.4239463806152344	2831845.58605287
1.4281994104385376	3312029.999605302
1.4324485063552856	3855265.314014285
1.436693549156189	4150515.647956901
1.440934419631958	4467910.800338888
1.4451709985733032	5070800.021656131
1.449403166770935	6355606.288879844
1.453631043434143	7859120.55775641
1.4578542709350586	8880536.136167508
1.4620729684829712	9321231.10726566
1.4662868976593018	9329922.198372344
1.4704961776733398	9374022.770144073
1.4747005701065063	9993825.142365037
1.4788999557495117	10953325.073888503
1.4830944538116455	11625005.860650938
1.4872838258743286	12277647.552615726
1.491468071937561	13212832.468714673
1.4956470727920532	14358193.839488516
1.4998208284378052	15703430.198623117
1.5039892196655273	17229744.623477653
1.5081522464752197	18996965.295011662
1.5123097896575928	20984255.437084552
1.5164618492126465	22701751.629008006
1.5206083059310913	24666231.2124512
1.5247491598129272	27103624.29840766
1.5288842916488647	29496512.358464807
1.5330137014389038	32177765.28709732
1.5371372699737549	34676102.08050222
1.541254997253418	36792976.0687851
1.545366883277893	39623184.423853196
1.5494728088378906	42280054.7493292
1.5535727739334106	43704549.41529751
1.5576666593551636	45472077.88732068
1.561754584312439	49332746.908467
1.5658363103866577	54021765.9546999
1.5699119567871094	56816196.862153426
1.5739814043045044	58093731.14298181
1.5780447721481323	59510894.82771407
1.582101821899414	60986214.148461
1.5861525535583496	61652271.86965748
1.5901970863342285	61030669.28009056
1.5942351818084717	59856223.381385334
1.5982669591903687	58289876.879495904
1.6022924184799194	55274855.585939415
1.606311559677124	51468265.5488138
1.6103241443634033	48030855.07907311
1.6143304109573364	44277863.911430225
1.6183301210403442	40647364.47739578
1.6223233938217163	39114048.87900118
1.6263102293014526	39314416.074336395
1.6302905082702637	40089694.286930695
1.634264349937439	42384550.11693148
1.638231635093689	46334681.42330378
1.6421923637390137	48183740.27856339
1.646146535873413	46397889.254587
1.6500942707061768	45546583.500826284
1.6540353298187256	44117006.030340664
1.6579699516296387	41849036.371626265
1.661897897720337	39724435.71708506
1.6658192873001099	27323874.365337584
1.6697341203689575	16023059.88450981
1.6736423969268799	21766552.400492232
1.677544116973877	30358174.21071172
1.6814392805099487	31346129.53190397
1.6853278875350952	28883525.76829244
1.6892099380493164	25897751.458942473
1.6930854320526123	22756201.988000322
1.696954369544983	19905156.543385677
1.7008168697357178	18163577.181323647
1.7046726942062378	18248110.06139104
1.708522081375122	20031296.19417745
1.712364912033081	21446885.84285034
1.7162011861801147	22042742.180477377
1.7200311422348022	22519132.877636325
1.723854422569275	21611450.37985687
1.7276713848114014	20123697.839630168
1.731481909751892	19028347.027377535
1.7352858781814575	18135967.76709061
1.7390835285186768	17910220.759315245
1.7428747415542603	17986870.270211797
1.7466596364974976	17709118.851865437
1.7504380941390991	16928212.985044856
1.7542102336883545	15241030.887336047
1.7579760551452637	13614287.874758318
1.7617355585098267	12923298.764373204
1.7654887437820435	12043665.718821077
1.7692357301712036	10686859.538647575
1.7729763984680176	9536118.439096062
1.776710867881775	8935990.252226062
1.7804391384124756	8693287.565390352
1.7841613292694092	7932793.768593913
1.7878772020339966	7145384.849244836
1.7915871143341064	6434883.406854429
1.7952908277511597	5980115.279294966
1.7989884614944458	6004682.568623488
1.8026801347732544	5317515.617974508
1.806365728378296	4851024.672569874
1.8100452423095703	5204241.368225955
1.8137187957763672	5613783.288871053
1.817386507987976	5288772.175047255
1.8210482597351074	5208110.4867545245
1.8247040510177612	5945381.494612582
1.828354001045227	5582429.016659827
1.8319982290267944	4660308.025260073
1.8356364965438843	4222557.831810173
1.8392690420150757	4196886.6096005235
1.8428958654403687	4602037.400448235
1.8465168476104736	4596638.737355629
1.8501322269439697	4422788.650887625
1.8537418842315674	4308232.737186498
1.8573459386825562	3641061.553733136
1.860944390296936	2989148.654212641
1.864537239074707	2795531.609873206
1.8681244850158691	2787025.6264785044
1.871706247329712	3111701.7855692143
1.8752825260162354	4058098.5064749513
1.8788533210754395	5531073.233510715
1.8824186325073242	6710021.9240025515
1.8859784603118896	6994339.69540371
1.8895330429077148	6983490.239806858
1.8930821418762207	7724418.389437819
1.8966259956359863	8411271.243023645
1.9001644849777222	7737321.324219451
1.9036977291107178	7096929.962108245
1.9072256088256836	7559184.913056353
1.9107483625411987	7553408.686894578
1.9142658710479736	7076881.264102227
1.9177782535552979	7269132.8368161945
1.9212853908538818	7013134.25428915
1.9247875213623047	6246832.2115043225
1.9282845258712769	5569299.798442399
1.9317764043807983	4922462.65654723
1.9352631568908691	4434514.791486142
1.9387450218200684	3960783.8734842995
1.942221760749817	4157971.433692043
1.9456936120986938	4780977.686221365
1.9491604566574097	5120448.825357058
1.952622413635254	5128625.468558434
1.956079363822937	4886240.116720927
1.959531545639038	5008630.848798412
1.962978720664978	5407212.2436628705
1.966421127319336	6012434.001985057
1.9698586463928223	6494580.5116557935
1.9732913970947266	6436362.132943741
1.9767193794250488	6630827.347339444
1.9801424741744995	7001889.924646238
1.9835609197616577	7512118.093640384
1.9869745969772339	8059107.413491317
1.990383505821228	8172690.371461336
1.9937876462936401	8975884.96848441
1.9971871376037598	9883141.579584345
2.000581979751587	10389141.98630166
2.003972291946411	11010831.50959856
2.007357597351074	11053812.60786135
2.0107386112213135	11515807.932175638
2.0141148567199707	12440999.96920513
2.017486572265625	12628961.583271224
2.0208535194396973	13770285.347499678
2.0242159366607666	15311453.331075903
2.027573823928833	15194234.379334578
2.0309269428253174	15444554.378399678
2.034275770187378	16941360.053877633
2.0376198291778564	17819819.13207966
2.040959596633911	17932358.018230848
2.044294595718384	18808615.811235078
2.0476250648498535	20228281.83386407
2.0509510040283203	20488750.249799754
2.054272413253784	20613017.152764246
2.057589530944824	22110112.577469427
2.0609018802642822	22865997.60207712
2.0642096996307373	22760002.68420701
2.0675129890441895	23329342.82420694
2.0708119869232178	23691815.379318107
2.074106216430664	23660282.952566292
2.0773961544036865	23771393.039255083
2.080681324005127	24073735.469990876
2.0839622020721436	24301465.386916548
2.087238311767578	24476738.995669503
2.090510129928589	24748156.93048111
2.0937774181365967	24755541.7564361
2.0970399379730225	24531631.381965395
2.1002981662750244	24137963.494024277
2.1035518646240234	23663214.739648495
2.1068007946014404	23256215.2251501
2.1100454330444336	22941556.316528562
2.1132853031158447	22926390.483344715
2.116520881652832	22547381.42399067
2.1197516918182373	21989906.69989035
2.1229779720306396	21923296.677057315
2.12619948387146	21751738.9224517
2.1294167041778564	21275955.09896524
2.132629156112671	21004411.48123464
2.1358368396759033	20670841.240887664
2.139039993286133	19712267.0044691
2.1422386169433594	18227965.974602178
2.145432472229004	16911495.506382465
2.1486217975616455	16439818.717209749
2.151806354522705	16350799.715151018
2.1549863815307617	16110725.109885953
2.1581614017486572	15576900.848803807
2.16133189201355	14796149.45507962
2.1644976139068604	14130145.316313216
2.167658567428589	13487618.053969566
2.1708147525787354	12960898.724093335
2.173966407775879	12428603.659675332
2.1771130561828613	11686470.10626869
2.1802549362182617	11039809.00277946
2.183391809463501	10276791.657341817
2.1865241527557373	9325609.458942266
2.1896514892578125	8237819.882022329
2.1927738189697266	6879806.945958932
2.1958916187286377	5201742.454498044
2.1990041732788086	3495012.826010305
2.2021119594573975	2430919.8114802535
2.2052149772644043	2161585.069792504
2.208312749862671	2433680.2999035935
2.2114057540893555	3026786.7983622868
2.214493751525879	3663208.941368306
2.217576742172241	4077311.807951648
2.2206547260284424	4204618.47760738
2.2237277030944824	4079643.93791821
2.2267956733703613	3733125.1997903404
2.2298583984375	3395844.1497665625
2.2329163551330566	3200537.5916762417
2.235969066619873	3051216.174998566
2.2390167713165283	2827351.0305179455
2.2420592308044434	2546980.603999084
2.2450966835021973	2310099.7967129503
2.248128890991211	2165000.1025170754
2.2511560916900635	2094075.21623796
2.254178285598755	2058607.8129266065
2.257194995880127	2044797.1426987632
2.260206699371338	2034340.8483497151
2.2632133960723877	2059386.986533556
2.266214609146118	2079910.0261647473
2.2692108154296875	2052844.467240259
2.2722020149230957	2029937.47006292
2.2751877307891846	1993610.9891695778
2.278168201446533	1942926.7060469864
2.2811436653137207	1827368.8268530834
2.284113883972168	1627705.5762430567
2.287078857421875	1476870.3715296432
2.290038824081421	1350315.7667642094
2.2929933071136475	1251671.3675954523
2.295942783355713	1288281.7906917296
2.298887014389038	1473444.049709398
2.301826238632202	1696085.1170457925
2.304760217666626	2019968.8081019628
2.3076889514923096	2685367.9176202295
2.310612440109253	3477880.0176286506
2.3135311603546143	3588078.614878914
2.3164443969726562	2496054.2105681524
2.319352865219116	1336046.3339884519
2.322256088256836	1041906.6676564687
2.3251543045043945	1036156.918682899
2.328047275543213	1038686.2875402997
2.330935478210449	1121963.9809407627
2.3338186740875244	1216834.326131757
2.3366971015930176	1291343.1790721372
2.3395702838897705	1350474.7259911876
2.3424389362335205	1362378.2636071406
2.3453025817871094	1309201.9385457525
2.348161458969116	1296627.1279791659
2.351015567779541	1385482.9499546706
2.353865146636963	1511562.7646594935
2.3567099571228027	1652768.3191938389
2.3595502376556396	1884177.1916435487
2.3623859882354736	2161654.726963317
2.3652172088623047	2319127.1060269047
2.368043899536133	2103510.808514547
2.370866537094116	1477491.1825163353
2.3736846446990967	1132000.1538321592
2.3764986991882324	1210785.4338116974
2.3793084621429443	1216052.2723141916
2.3821144104003906	1156859.6335264535
2.384916305541992	1318867.5290631035
2.387714147567749	1681453.3058040694
2.3905084133148193	1860388.2282818952
2.393299102783203	1856635.505247081
2.3960859775543213	1960172.2954976673
2.398869514465332	2196992.7423245013
2.4016497135162354	2436289.9949464533
2.4044265747070312	2617842.1460718215
2.407200336456299	2665984.914326639
2.409970998764038	2766906.895316764
2.4127390384674072	2997796.1986491904
2.415503978729248	2946654.021371162
2.418266534805298	2781773.4485541363
2.4210267066955566	2797942.057272687
2.4237842559814453	2655480.9064199775
2.426539897918701	2503048.097357518
2.429293394088745	2746513.5636190325
2.4320452213287354	3045406.5946496115
2.4347951412200928	2962364.982348716
2.4375438690185547	3053686.574105685
2.440291166305542	3410408.367746007
2.443037271499634	3379651.9913656237
2.445782423019409	3194154.5365795847
2.4485268592834473	3192911.460945837
2.451270818710327	3179255.6805655207
2.454014539718628	3235728.6959208646
2.4567582607269287	3587246.68790031
2.4595019817352295	3746088.519085319
2.4622461795806885	3908763.3073853967
2.4649908542633057	4196809.894321956
2.4677364826202393	3839394.3530267766
2.4704833030700684	3333723.2587014013
2.473231554031372	3191573.948006666
2.4759814739227295	3326133.4653402246
2.4787333011627197	3507490.782786523
