#wavelength	surface flux
0.6450077295303345	12459.489477696297
0.6472567915916443	20120.399560539918
0.6494921445846558	27461.937469323726
0.6517150402069092	33193.751475335914
0.6539263725280762	39546.85693703842
0.6561272740364075	46696.59817937685
0.6583186388015747	54724.63816598004
0.6605015397071838	63610.45088977041
0.6626768708229065	73141.88615142218
0.6648455858230591	82723.7054062797
0.6670085787773132	87805.18141423329
0.6691668033599854	80503.85125626158
0.6713210344314575	79056.36657068535
0.6734722256660461	106155.84799289853
0.6756211519241333	139103.5475677667
0.6777685880661011	159393.53838727024
0.6799154281616211	174808.00738020142
0.6820623278617859	188767.89177864793
0.6842101216316223	201434.66891099734
0.6863595843315125	212308.43555124625
0.688511312007904	220006.63292070577
0.6906660795211792	221617.15589386877
0.6928245425224304	219570.55272340393
0.6949873566627502	222439.7107272048
0.6971551775932312	228271.67692831013
0.6993286609649658	228043.82356768465
0.7015084028244019	222364.52435035878
0.7036949396133423	215502.32817598
0.7058889269828796	207825.9122873053
0.7080909013748169	198710.31999595408
0.710301399230957	187934.64113235773
0.712520956993103	175464.35860973562
0.7147500514984131	159404.87370143304
0.7169892191886902	140497.6811156159
0.7192389369010925	125740.49772260855
0.7214996814727783	115063.62534809923
0.723771870136261	102953.088469853
0.7260559797286987	90295.99797267088
0.7283523678779602	79788.31434237535
0.7306615710258484	70770.8626567734
0.7329838871955872	62647.37807692586
0.7353196740150452	55162.05193224183
0.7376693487167358	47446.02445547356
0.7400332689285278	39980.756094865734
0.7424117922782898	33247.32229459373
0.7448052167892456	27369.58130773012
0.7472138404846191	22204.65470373392
0.7496379613876343	17577.292032494868
0.7520779371261597	13531.732835161518
0.7545340061187744	10098.726812811745
0.7570064663887024	7244.322953690168
0.7594954967498779	4913.453637326196
0.7620013952255249	3021.1803780765017
0.7645244002342224	1537.3420563621655
0.7670646905899048	699.8047043138233
0.7696225643157959	781.4206413458527
0.7721980810165405	1965.0606321718938
0.7747915983200073	4165.619885760446
0.7774031162261963	6748.865645523661
0.7800329327583313	10153.591008532438
0.7826811671257019	16202.24537790982
0.7853479981422424	24629.635428570782
0.7880334854125977	34446.84921875232
0.7907378077507019	43804.844248310124
0.7934610247612	50428.857117473206
0.7962033748626709	65934.647607385
0.7989648580551147	96156.81253929983
0.801745593547821	128842.6526334834
0.8045456409454346	161115.24149956668
0.8073651194572449	194994.9313519938
0.8102040886878967	229309.36873469394
0.8130625486373901	269251.1415442697
0.8159406185150146	323308.2859681848
0.8188382983207703	389629.612584912
0.8217556476593018	461340.4826576373
0.8246926665306091	546602.2941133148
0.8276493549346924	646357.5619807818
0.8306257724761963	751388.3368581957
0.8336219191551208	865730.5727671444
0.8366377949714661	992644.9540329083
0.8396733403205872	1136047.7387201425
0.8427285552024841	1302058.214773254
0.8458034992218018	1478973.2188055404
0.8488980531692505	1569710.9901818244
0.8520121574401855	1627118.3358502986
0.8551458716392517	1946683.4455307608
0.8582990765571594	2334350.4034078633
0.8614717125892639	2431590.1339034755
0.8646637797355652	2481708.0986375026
0.8678751587867737	2709236.398254564
0.8711057901382446	2980416.0108703533
0.8743556141853333	3248501.2819133983
0.87762451171875	3472473.68222507
0.8809124231338501	3480113.0071266335
0.8842192888259888	3369955.311581239
0.8875449895858765	3309248.3317323984
0.8908893465995789	3111436.168165325
0.894252359867096	2971852.050122457
0.8976338505744934	3692242.8572918866
0.9010337591171265	5163385.201477267
0.9044519662857056	6627367.933517506
0.9078882932662964	7630510.870267444
0.9113426208496094	8055839.941173255
0.914814829826355	8200296.50282166
0.9183048605918884	8585197.668146832
0.9218124747276306	8907576.106141152
0.925337553024292	7621241.733566622
0.9288799166679382	5197395.9189026505
0.9324395060539246	4044547.118853459
0.9360161423683167	4433105.83173847
0.9396095871925354	5304405.614065517
0.943219780921936	6013462.667464398
0.9468464851379395	6363859.245807315
0.9504896402359009	6578026.557088161
0.9541489481925964	6625447.9439729825
0.9578243494033813	6421742.487459344
0.9615156054496765	6490965.947762911
0.9652225375175476	7167388.322928505
0.9689450263977051	7982607.3251184095
0.9726828336715698	8515479.53547575
0.9764357805252075	9020472.615662305
0.9802037477493286	9601653.645049203
0.983986496925354	10103046.515860064
0.9877838492393494	10766536.031516068
0.9915955662727356	11604862.955745863
0.9954215884208679	12167920.420414872
0.9992615580558777	12032792.206429234
1.0031154155731201	12275333.08594489
1.0069829225540161	13641736.80250738
1.0108637809753418	15549097.226495987
1.0147579908370972	18027312.278598636
1.018665075302124	20957487.674787696
1.022585153579712	23688705.403041583
1.0265177488327026	26063059.992495414
1.0304628610610962	28817419.73200584
1.0344202518463135	32268772.7457907
1.0383895635604858	35582392.62021807
1.0423706769943237	38028514.015580356
1.0463634729385376	39517860.4949923
1.0503677129745483	40276254.82855105
1.0543830394744873	41103600.717576906
1.058409333229065	42352733.344843045
1.0624464750289917	44148866.249958575
1.0664942264556885	46234257.10734797
1.0705522298812866	48242700.814272106
1.0746204853057861	50611163.7629655
1.0786986351013184	52546969.205166236
1.0827864408493042	52188272.32907809
1.086883783340454	46343522.85909825
1.0909905433654785	34653729.550110474
1.0951062440872192	23349301.472958352
1.0992310047149658	16729018.760693606
1.10336434841156	12758998.414315138
1.1075061559677124	9482664.862774016
1.1116561889648438	6999168.164871747
1.115814208984375	5583020.83372423
1.1199802160263062	5062058.8805549685
1.124153733253479	5185162.431655017
1.1283347606658936	5379818.0872916635
1.1325229406356812	4649127.2932661
1.1367181539535522	4342322.507273866
1.1409201622009277	5267177.397654996
1.145128846168518	5903494.694080298
1.1493438482284546	5753790.08764336
1.1535650491714478	5213841.807430117
1.1577922105789185	4984040.361467075
1.1620250940322876	4952622.757902131
1.1662636995315552	4994250.088037159
1.170507550239563	5725947.820015584
1.174756646156311	6735795.63875977
1.1790107488632202	8134394.661460809
1.1832695007324219	10414226.701096632
1.1875330209732056	12930673.08209371
1.191800832748413	16003981.448328461
1.1960728168487549	19613330.60739808
1.2003488540649414	22973189.369008515
1.2046287059783936	26675170.501846116
1.2089121341705322	30255708.883498736
1.2131990194320679	33386780.284090716
1.2174891233444214	36820327.68361786
1.2217823266983032	40452456.650329
1.2260783910751343	44637095.586205095
1.230377197265625	49038696.44668599
1.2346785068511963	52628756.65450337
1.238982081413269	54042412.41287119
1.2432878017425537	54004235.91346547
1.2475954294204712	54547063.08097898
1.2519049644470215	54614787.662445866
1.256216049194336	59406567.37201445
1.2605286836624146	66100611.858481996
1.2648425102233887	66195085.644462414
1.2691574096679688	63627457.61741466
1.2734732627868652	61565589.96292191
1.2777899503707886	60032079.80840058
1.2821072340011597	57430238.25570526
1.2864248752593994	52743540.78693118
1.2907428741455078	49134454.138974525
1.2950609922409058	47828780.61448703
1.2993791103363037	45856737.86464587
1.303696870803833	42589073.31133398
1.3080145120620728	38815735.957787625
1.3123314380645752	34437767.40626613
1.3166478872299194	30856168.832607523
1.3209635019302368	28359475.04114248
1.3252781629562378	24051651.941245437
1.3295916318893433	15751571.793633506
1.3339040279388428	7242341.241916976
1.3382149934768677	2994954.142284929
1.3425244092941284	1684891.1536286655
1.3468321561813354	1078118.116553959
1.3511382341384888	729090.6654143925
1.3554422855377197	546310.902748543
1.3597444295883179	520503.6977803261
1.3640443086624146	647906.8700823339
1.3683418035507202	744993.0210637571
1.3726370334625244	783369.7814011376
1.3769296407699585	891218.0578722458
1.381219506263733	910633.0796181123
1.3855066299438477	857484.4029926215
1.3897908926010132	869381.5336948729
1.3940720558166504	858584.3885177788
1.3983501195907593	821636.1075221905
1.4026249647140503	812046.0978618442
1.4068963527679443	774351.0638618844
1.4111642837524414	772705.76404551
1.4154287576675415	858007.3088048353
1.419689416885376	865183.7505738975
1.4239463806152344	850322.4316005899
1.4281994104385376	996929.8364888926
1.4324485063552856	1205762.0620933776
1.436693549156189	1360204.8090776321
1.440934419631958	1488422.6400348912
1.4451709985733032	1687393.5973965449
1.449403166770935	2174118.7977165976
1.453631043434143	2808097.7591857854
1.4578542709350586	3209028.7940857476
1.4620729684829712	3316606.163094537
1.4662868976593018	3261169.412415074
1.4704961776733398	3149841.9010822023
1.4747005701065063	3255674.0054165507
1.4788999557495117	3577087.6444076584
1.4830944538116455	3826105.0897574243
1.4872838258743286	4098294.4128911453
1.491468071937561	4427831.365988367
1.4956470727920532	4819605.033680633
1.4998208284378052	5312042.537134539
1.5039892196655273	5738217.2506242115
1.5081522464752197	6254334.27686799
1.5123097896575928	6932404.86095299
1.5164618492126465	7450262.2845095275
1.5206083059310913	8014874.450340421
1.5247491598129272	8731728.544339936
1.5288842916488647	9462649.939308198
1.5330137014389038	10274514.139368286
1.5371372699737549	10927191.951447278
1.541254997253418	11519594.557213118
1.545366883277893	12480032.158373827
1.5494728088378906	13270514.87906878
1.5535727739334106	13397037.680672592
1.5576666593551636	13855885.49616756
1.561754584312439	15669891.200939072
1.5658363103866577	17938474.847312108
1.5699119567871094	19090397.71982014
1.5739814043045044	19441631.1298695
1.5780447721481323	19900815.163088158
1.582101821899414	20331174.79493163
1.5861525535583496	20374114.289270572
1.5901970863342285	19829832.555140264
1.5942351818084717	19026773.200818144
1.5982669591903687	18000791.20986029
1.6022924184799194	16218394.011272954
1.606311559677124	14265778.298444083
1.6103241443634033	12890945.177991113
1.6143304109573364	11414883.521969926
1.6183301210403442	9987022.254340215
1.6223233938217163	9946370.052244032
1.6263102293014526	10914019.429254727
1.6302905082702637	11733348.351304315
1.634264349937439	12887406.501662616
1.638231635093689	14691269.422556888
1.6421923637390137	15013013.516623966
1.646146535873413	13100795.28278634
1.6500942707061768	12642509.84526903
1.6540353298187256	12663910.935944643
1.6579699516296387	11321181.42477162
1.661897897720337	10757851.946223423
1.6658192873001099	7480638.955708058
1.6697341203689575	3433231.407203834
1.6736423969268799	4214578.454234673
1.677544116973877	6241385.937763444
1.6814392805099487	6273335.075905165
1.6853278875350952	5511616.458061156
1.6892099380493164	4631760.673508177
1.6930854320526123	3625138.6671345993
1.696954369544983	2865304.700290373
1.7008168697357178	2533699.2022005096
1.7046726942062378	2724492.1969684856
1.708522081375122	3409413.7396226972
1.712364912033081	3995323.7609602213
1.7162011861801147	4432973.30216397
1.7200311422348022	4807484.042560671
1.723854422569275	4593172.133097683
1.7276713848114014	4150627.6926951963
1.731481909751892	3810158.2136493246
1.7352858781814575	3701095.9936455456
1.7390835285186768	4106818.922075635
1.7428747415542603	4692198.62324535
1.7466596364974976	5063418.802013104
1.7504380941390991	5058725.7139893435
1.7542102336883545	4612698.939669661
1.7579760551452637	4099896.4550691675
1.7617355585098267	3843666.808490352
1.7654887437820435	3570921.1452850793
1.7692357301712036	3108198.8427695283
1.7729763984680176	2782778.4585788674
1.776710867881775	2930544.6836638716
1.7804391384124756	3210364.061263072
1.7841613292694092	3013872.639774145
1.7878772020339966	2630714.7500400865
1.7915871143341064	2226978.261797107
1.7952908277511597	2072140.8822759155
1.7989884614944458	2230176.0120313377
1.8026801347732544	2070645.706476481
1.806365728378296	1950487.7225160107
1.8100452423095703	2121840.817723256
1.8137187957763672	2292725.359180093
1.817386507987976	2142231.738068788
1.8210482597351074	2113538.306587639
1.8247040510177612	2466446.771519769
1.828354001045227	2366535.1167394766
1.8319982290267944	1955900.8415518284
1.8356364965438843	1689199.5204225564
1.8392690420150757	1673138.721875777
1.8428958654403687	1908929.9754537109
1.8465168476104736	1933908.9738245937
1.8501322269439697	1836740.4792469135
1.8537418842315674	1796095.5143852797
1.8573459386825562	1534542.6100815744
1.860944390296936	1257219.0114715805
1.864537239074707	1160824.3958468232
1.8681244850158691	1126213.2492180958
1.871706247329712	1260217.399190696
1.8752825260162354	1696353.5252927467
1.8788533210754395	2386642.7482666075
1.8824186325073242	2969298.0040858514
1.8859784603118896	3141633.205707311
1.8895330429077148	3130501.5293859085
1.8930821418762207	3381202.8885601647
1.8966259956359863	3613307.0430110428
1.9001644849777222	3293863.8181680683
1.9036977291107178	3000680.2191921608
1.9072256088256836	3234806.9128289483
1.9107483625411987	3264435.8517419137
1.9142658710479736	3040752.271567504
1.9177782535552979	3120626.472257236
1.9212853908538818	3074008.3999152365
1.9247875213623047	2796561.7905805283
1.9282845258712769	2461504.5637204605
1.9317764043807983	2130393.5773338284
1.9352631568908691	1889789.3660838737
1.9387450218200684	1696128.1060062633
1.942221760749817	1852386.513659045
1.9456936120986938	2154385.3557890807
1.9491604566574097	2272106.8397795483
1.952622413635254	2238481.7554107504
1.956079363822937	2127562.7609939547
1.959531545639038	2224387.5063633705
1.962978720664978	2410633.7768299864
1.966421127319336	2622007.0054855924
1.9698586463928223	2840159.647865524
1.9732913970947266	2877177.380063234
1.9767193794250488	2999798.5710484507
1.9801424741744995	3152148.8958586915
1.9835609197616577	3314428.246337713
1.9869745969772339	3566473.431258132
1.990383505821228	3799296.901716635
1.9937876462936401	4339329.615354927
1.9971871376037598	4770518.728541116
2.000581979751587	4983305.101459169
2.003972291946411	5183284.122052899
2.007357597351074	5187002.289793394
2.0107386112213135	5483511.719347775
2.0141148567199707	5875988.974087881
2.017486572265625	5920185.2780679455
2.0208535194396973	6527437.387993436
2.0242159366607666	7419297.481385551
2.027573823928833	7465863.346777749
2.0309269428253174	7592034.536930078
2.034275770187378	8393263.27335704
2.0376198291778564	8847586.817553267
2.040959596633911	8797462.297650311
2.044294595718384	9332982.222799024
2.0476250648498535	10321603.143204132
2.0509510040283203	10503210.937216664
2.054272413253784	10465867.956542809
2.057589530944824	11283705.165419033
2.0609018802642822	11710494.07485175
2.0642096996307373	11646476.660106942
2.0675129890441895	12002895.038821923
2.0708119869232178	12211955.416356375
2.074106216430664	12201057.709230956
2.0773961544036865	12190487.346654437
2.080681324005127	12221462.983167963
2.0839622020721436	12201202.390726006
2.087238311767578	12172724.689092267
2.090510129928589	12315494.227972724
2.0937774181365967	12280687.581251672
2.0970399379730225	11981149.108578218
2.1002981662750244	11542743.894181667
2.1035518646240234	11139352.09639772
2.1068007946014404	10728179.926216396
2.1100454330444336	10266086.487623673
2.1132853031158447	10083658.711219078
2.116520881652832	9780316.92109731
2.1197516918182373	9383630.92666657
2.1229779720306396	9283934.522278283
2.12619948387146	9131485.972576775
2.1294167041778564	8827213.075637687
2.132629156112671	8625923.116383854
2.1358368396759033	8328269.786615295
2.139039993286133	7570497.663235767
2.1422386169433594	6465689.607881341
2.145432472229004	5521211.313253471
2.1486217975616455	5223987.21778081
2.151806354522705	5210141.570523199
2.1549863815307617	5047147.190653936
2.1581614017486572	4751738.464104792
2.16133189201355	4338400.428403376
2.1644976139068604	3924987.5013553053
2.167658567428589	3530378.6540734847
2.1708147525787354	3304103.657349005
2.173966407775879	3154326.2587336595
2.1771130561828613	2887704.5678032627
2.1802549362182617	2647044.479484196
2.183391809463501	2378042.9528755196
2.1865241527557373	2062742.3228699004
2.1896514892578125	1722842.411992801
2.1927738189697266	1322299.06363097
2.1958916187286377	892248.2181977293
2.1990041732788086	512944.1983456036
2.2021119594573975	301033.23099528626
2.2052149772644043	244612.40541432909
2.208312749862671	281659.53174152493
2.2114057540893555	390904.3177376898
2.214493751525879	530311.5762803868
2.217576742172241	639642.1072273643
2.2206547260284424	678715.2845439122
2.2237277030944824	647782.1364563083
2.2267956733703613	584850.8510731212
2.2298583984375	522488.2071831154
2.2329163551330566	480568.4546544385
2.235969066619873	448552.42710312654
2.2390167713165283	394141.7995747075
2.2420592308044434	338354.8894353186
2.2450966835021973	295175.5360988703
2.248128890991211	266655.087180049
2.2511560916900635	254651.35317444653
2.254178285598755	246615.25198420943
2.257194995880127	247815.70906190135
2.260206699371338	256690.70986855667
2.2632133960723877	264034.2361163729
2.266214609146118	265536.4730328014
2.2692108154296875	266978.05349037953
2.2722020149230957	266518.08146395156
2.2751877307891846	253451.88305482085
2.278168201446533	240608.16842951026
2.2811436653137207	224386.5237838696
2.284113883972168	191967.93897304346
2.287078857421875	161513.53852490894
2.290038824081421	141150.9206230986
2.2929933071136475	129729.13808960351
2.295942783355713	134109.5458975118
2.298887014389038	159070.7941213636
2.301826238632202	191794.169331299
2.304760217666626	241123.26412255
2.3076889514923096	347158.3195049502
2.310612440109253	487030.1582546411
2.3135311603546143	528125.8233034236
2.3164443969726562	366254.87336698023
2.319352865219116	176916.41706891934
2.322256088256836	119922.55391441508
2.3251543045043945	111134.2311795812
2.328047275543213	110435.16303820707
2.330935478210449	128510.86547241041
2.3338186740875244	151325.02692079544
2.3366971015930176	171219.01431283818
2.3395702838897705	183680.73089954682
2.3424389362335205	180371.0304554811
2.3453025817871094	162879.09816199951
2.348161458969116	156040.7651708341
2.351015567779541	171483.83233807597
2.353865146636963	193972.582888181
2.3567099571228027	219102.28463228082
2.3595502376556396	251339.28585467165
2.3623859882354736	289968.7780929029
2.3652172088623047	329195.8118005649
2.368043899536133	320937.782653018
2.370866537094116	227924.71088479005
2.3736846446990967	159546.2341635478
2.3764986991882324	163528.03058461496
2.3793084621429443	160350.7292675862
2.3821144104003906	148958.08237643182
2.384916305541992	180717.37506469
2.387714147567749	249654.32181451513
2.3905084133148193	281787.2952758634
2.393299102783203	277667.97514957737
2.3960859775543213	296345.74093038926
2.398869514465332	339917.64943457127
2.4016497135162354	393572.8956529795
2.4044265747070312	460740.9294549746
2.407200336456299	501396.94324928493
2.409970998764038	517994.4216799049
2.4127390384674072	548326.1926841186
2.415503978729248	551253.2533896302
2.418266534805298	523413.0407325332
2.4210267066955566	492419.266026994
2.4237842559814453	437442.25407439255
2.426539897918701	411820.4634890223
2.429293394088745	466220.3851054421
2.4320452213287354	517274.2245330924
2.4347951412200928	512719.7433618505
2.4375438690185547	560305.2839854603
2.440291166305542	656938.5269560125
2.443037271499634	685149.3196813232
2.445782423019409	678823.9051378694
2.4485268592834473	690314.5780830152
2.451270818710327	712437.5898266779
2.454014539718628	757105.1986046325
2.4567582607269287	840420.2135823698
2.4595019817352295	908682.5086787082
2.4622461795806885	984307.7012254574
2.4649908542633057	1077644.6881018865
2.4677364826202393	1035531.2326212274
2.4704833030700684	937926.236291314
2.473231554031372	918879.8058851677
2.4759814739227295	979714.0550397158
2.4787333011627197	1044416.1095590073
2.481487512588501	1058169.7631093536
