#wavelength	surface flux
0.6450077295303345	867342.6016446016
0.6472567915916443	1368382.1509896473
0.6494921445846558	1792614.404549159
0.6517150402069092	2076655.1587982157
0.6539263725280762	2368683.2828004723
0.6561272740364075	2660995.156332782
0.6583186388015747	2962492.3236288773
0.6605015397071838	3264489.4907724354
0.6626768708229065	3519473.4160859613
0.6648455858230591	3636515.501260064
0.6670085787773132	3395782.8021687823
0.6691668033599854	2593857.4384838394
0.6713210344314575	2172363.4270841186
0.6734722256660461	3123631.0888904785
0.6756211519241333	4442181.897962554
0.6777685880661011	5192795.194731257
0.6799154281616211	5652202.360275711
0.6820623278617859	6099598.144474612
0.6842101216316223	6539716.073743149
0.6863595843315125	6924962.006386211
0.688511312007904	7314534.442976769
0.6906660795211792	7629688.669693087
0.6928245425224304	7796033.545339262
0.6949873566627502	8032388.443991359
0.6971551775932312	8360195.98872771
0.6993286609649658	8504478.437313525
0.7015084028244019	8461587.179215625
0.7036949396133423	8184771.816238169
0.7058889269828796	7472896.677897366
0.7080909013748169	6705629.05068243
0.710301399230957	6259743.359825512
0.712520956993103	5959298.348874966
0.7147500514984131	5675517.06981772
0.7169892191886902	5439324.945955517
0.7192389369010925	5226431.979729566
0.7214996814727783	4970461.703226013
0.723771870136261	4674307.275692548
0.7260559797286987	4346330.102081346
0.7283523678779602	3980056.538764431
0.7306615710258484	3588308.4325739145
0.7329838871955872	3185775.1501864824
0.7353196740150452	2780977.828329522
0.7376693487167358	2388721.6809973563
0.7400332689285278	2023458.344841017
0.7424117922782898	1689014.8668324363
0.7448052167892456	1385909.3637461523
0.7472138404846191	1113572.130903255
0.7496379613876343	870712.7990313107
0.7520779371261597	656888.7094429929
0.7545340061187744	472431.70760820067
0.7570064663887024	317898.4630639257
0.7594954967498779	193935.0774926526
0.7620013952255249	101371.53863926756
0.7645244002342224	41554.49190269686
0.7670646905899048	14581.384486000608
0.7696225643157959	16471.024316304705
0.7721980810165405	52788.53863508781
0.7747915983200073	133417.80058179217
0.7774031162261963	240790.82423911442
0.7800329327583313	390256.65972110955
0.7826811671257019	654650.5934720063
0.7853479981422424	1010638.9827248312
0.7880334854125977	1400857.2449005155
0.7907378077507019	1749170.4053757426
0.7934610247612	1966606.885419879
0.7962033748626709	2487918.9324770584
0.7989648580551147	3516380.891014728
0.801745593547821	4581108.9950396
0.8045456409454346	5596164.703910407
0.8073651194572449	6721405.071818197
0.8102040886878967	7985085.248191045
0.8130625486373901	9381429.615807917
0.8159406185150146	10602544.22214664
0.8188382983207703	11713131.30737731
0.8217556476593018	13826483.930409873
0.8246926665306091	16717023.390311945
0.8276493549346924	19293258.00903076
0.8306257724761963	21780597.8753478
0.8336219191551208	24542887.591649357
0.8366377949714661	27541002.094940223
0.8396733403205872	30543482.484164763
0.8427285552024841	32639459.831591465
0.8458034992218018	33402475.079698537
0.8488980531692505	32865390.419259768
0.8520121574401855	32785205.808361053
0.8551458716392517	38004010.97668045
0.8582990765571594	42837575.55440675
0.8614717125892639	37969387.34483637
0.8646637797355652	31859445.808161203
0.8678751587867737	32443319.543560494
0.8711057901382446	34402995.345890135
0.8743556141853333	37049785.51142028
0.87762451171875	42137367.46233529
0.8809124231338501	47855422.67386346
0.8842192888259888	53511163.07289692
0.8875449895858765	57751524.83057205
0.8908893465995789	58711043.6617143
0.894252359867096	59636574.916608006
0.8976338505744934	69868123.81927285
0.9010337591171265	84986881.13903062
0.9044519662857056	95799121.25935489
0.9078882932662964	105668926.69521391
0.9113426208496094	117728676.71201576
0.914814829826355	130304331.73747766
0.9183048605918884	139637722.164416
0.9218124747276306	140490793.6047339
0.925337553024292	130567427.59168951
0.9288799166679382	117204990.01733814
0.9324395060539246	114875184.28111075
0.9360161423683167	125753038.13071151
0.9396095871925354	139239195.92253566
0.943219780921936	148881970.3227905
0.9468464851379395	154103739.22564232
0.9504896402359009	156223167.44639078
0.9541489481925964	154662896.16918722
0.9578243494033813	150883970.28056672
0.9615156054496765	150349635.96407187
0.9652225375175476	157515937.6899932
0.9689450263977051	169657319.51534256
0.9726828336715698	180757606.68752596
0.9764357805252075	192558204.93672514
0.9802037477493286	206998080.53308904
0.983986496925354	219295356.56368026
0.9877838492393494	212298945.93257952
0.9915955662727356	177811226.5002324
0.9954215884208679	145259886.48963672
0.9992615580558777	122084963.06397921
1.0031154155731201	107143955.99281967
1.0069829225540161	111592845.79248509
1.0108637809753418	125557331.22477913
1.0147579908370972	140696340.00109243
1.018665075302124	156428482.33485723
1.022585153579712	169441619.02707773
1.0265177488327026	175286424.6504269
1.0304628610610962	184332849.4011971
1.0344202518463135	203362169.40979925
1.0383895635604858	222275322.75138566
1.0423706769943237	232806041.89972806
1.0463634729385376	234133497.5068836
1.0503677129745483	227719098.4593374
1.0543830394744873	221120689.03919074
1.058409333229065	222517936.4681872
1.0624464750289917	233050032.49749494
1.0664942264556885	250188785.8536238
1.0705522298812866	271894053.675233
1.0746204853057861	297186579.9627598
1.0786986351013184	322529006.17393416
1.0827864408493042	343640040.34759605
1.086883783340454	354228713.1989598
1.0909905433654785	347129465.3696454
1.0951062440872192	323336970.836772
1.0992310047149658	290972879.6922956
1.10336434841156	255989891.1565214
1.1075061559677124	225210103.4536743
1.1116561889648438	206033425.967583
1.115814208984375	201894886.7102901
1.1199802160263062	209943915.92686433
1.124153733253479	228280505.69341993
1.1283347606658936	235810601.41393173
1.1325229406356812	205593173.4797626
1.1367181539535522	166504924.97198787
1.1409201622009277	166389789.89947033
1.145128846168518	208922445.803497
1.1493438482284546	250087864.45231712
1.1535650491714478	259134712.20203954
1.1577922105789185	253685040.09478357
1.1620250940322876	239647270.80848756
1.1662636995315552	203368878.23979104
1.170507550239563	165877662.37345004
1.174756646156311	143046384.52160957
1.1790107488632202	140806376.69213668
1.1832695007324219	175711758.3079037
1.1875330209732056	223063966.85899425
1.191800832748413	254876777.02637538
1.1960728168487549	273433816.4157804
1.2003488540649414	289369516.6854722
1.2046287059783936	312481996.8297032
1.2089121341705322	337558333.70641834
1.2131990194320679	361334350.41015846
1.2174891233444214	384502080.80639654
1.2217823266983032	403226975.1025963
1.2260783910751343	423546226.09123147
1.230377197265625	439416915.7946109
1.2346785068511963	437560876.42685497
1.238982081413269	401572578.53273416
1.2432878017425537	350825060.4752004
1.2475954294204712	324108847.46802235
1.2519049644470215	310026807.2561042
1.256216049194336	352894538.73632824
1.2605286836624146	435924761.22619605
1.2648425102233887	479007401.9366192
1.2691574096679688	498070274.72745943
1.2734732627868652	508705341.58845174
1.2777899503707886	514580241.9858119
1.2821072340011597	515755789.59478766
1.2864248752593994	504939267.37239003
1.2907428741455078	494863402.59206325
1.2950609922409058	496303933.10498834
1.2993791103363037	501141503.990877
1.303696870803833	502259733.2139094
1.3080145120620728	495749556.6213128
1.3123314380645752	482894153.45561177
1.3166478872299194	465453168.7878179
1.3209635019302368	434586434.60529894
1.3252781629562378	376578766.12006557
1.3295916318893433	279750255.8887959
1.3339040279388428	162765174.17411703
1.3382149934768677	82062836.24118286
1.3425244092941284	54013636.07141213
1.3468321561813354	45713386.4125002
1.3511382341384888	39259526.54260948
1.3554422855377197	34905789.482544094
1.3597444295883179	36144143.45515835
1.3640443086624146	42210417.594970554
1.3683418035507202	46525215.278614
1.3726370334625244	49402497.597045735
1.3769296407699585	55186849.17228885
1.381219506263733	57161691.83205566
1.3855066299438477	53985436.99189476
1.3897908926010132	50479310.51142377
1.3940720558166504	46374131.80740775
1.3983501195907593	44250807.633341365
1.4026249647140503	45341218.007504724
1.4068963527679443	44336781.83034444
1.4111642837524414	40768845.38703651
1.4154287576675415	39367267.91631338
1.419689416885376	38855774.49224249
1.4239463806152344	38123714.59362173
1.4281994104385376	39946747.92744214
1.4324485063552856	43263767.65667353
1.436693549156189	45702662.97093122
1.440934419631958	47697250.54185244
1.4451709985733032	50591863.34761023
1.449403166770935	56905576.99029627
1.453631043434143	64443884.61412207
1.4578542709350586	69644771.01594406
1.4620729684829712	71871569.67565845
1.4662868976593018	71995623.90702596
1.4704961776733398	73049851.15700299
1.4747005701065063	76817678.21639298
1.4788999557495117	81414575.11269577
1.4830944538116455	84873366.15846206
1.4872838258743286	88048587.96491082
1.491468071937561	91363636.1572023
1.4956470727920532	95128296.49664938
1.4998208284378052	100158649.60873854
1.5039892196655273	106584340.6391578
1.5081522464752197	113672546.44540669
1.5123097896575928	121030933.32077894
1.5164618492126465	127015994.25590867
1.5206083059310913	133682985.89859793
1.5247491598129272	140972666.45364165
1.5288842916488647	147216867.2880313
1.5330137014389038	155436190.1271675
1.5371372699737549	163624448.18060836
1.541254997253418	170020828.37225047
1.545366883277893	178113131.4056086
1.5494728088378906	186090453.2054519
1.5535727739334106	190334857.23796284
1.5576666593551636	193355617.05726287
1.561754584312439	201668309.5172343
1.5658363103866577	214587617.66205314
1.5699119567871094	224387620.0649162
1.5739814043045044	230266033.99504417
1.5780447721481323	234672198.32315075
1.582101821899414	239745896.26884925
1.5861525535583496	245736387.77984527
1.5901970863342285	250086473.05989295
1.5942351818084717	253466385.46436834
1.5982669591903687	255947208.07699874
1.6022924184799194	255962771.18780884
1.606311559677124	255221742.01921228
1.6103241443634033	255209149.98484644
1.6143304109573364	254890038.77315536
1.6183301210403442	253887511.804227
1.6223233938217163	254516387.58826426
1.6263102293014526	256477785.84292525
1.6302905082702637	258085917.31898364
1.634264349937439	261150094.1259378
1.638231635093689	265899828.73900616
1.6421923637390137	268414179.62824067
1.646146535873413	268852156.16055536
1.6500942707061768	269297367.56792754
1.6540353298187256	267061205.8301229
1.6579699516296387	264013578.1230667
1.661897897720337	253902724.4662863
1.6658192873001099	220162008.5036952
1.6697341203689575	200041159.32486108
1.6736423969268799	222724853.98543134
1.677544116973877	245924960.70802602
1.6814392805099487	248461409.6021329
1.6853278875350952	240481172.8341242
1.6892099380493164	228871570.4727326
1.6930854320526123	217440339.3397919
1.696954369544983	206783405.6968672
1.7008168697357178	199837059.6089145
1.7046726942062378	195983153.70496672
1.708522081375122	190652907.83590844
1.712364912033081	181451210.5286208
1.7162011861801147	170903644.7303897
1.7200311422348022	164092048.21298826
1.723854422569275	157996954.13576677
1.7276713848114014	148987769.3591824
1.731481909751892	139316833.4622333
1.7352858781814575	130500520.27362889
1.7390835285186768	123356246.92314558
1.7428747415542603	117250037.41536811
1.7466596364974976	110891466.84989925
1.7504380941390991	104687763.01830156
1.7542102336883545	96920375.0936492
1.7579760551452637	90225829.66317217
1.7617355585098267	87430498.65207246
1.7654887437820435	82842969.42451125
1.7692357301712036	75364336.66018793
1.7729763984680176	69060423.03276122
1.776710867881775	64568153.35064344
1.7804391384124756	61399602.23062527
1.7841613292694092	57143577.0417854
1.7878772020339966	54081185.89031653
1.7915871143341064	52350368.7153902
1.7952908277511597	50662671.31023726
1.7989884614944458	48991693.93920154
1.8026801347732544	44878035.87095669
1.806365728378296	42977146.1075956
1.8100452423095703	44515204.01674471
1.8137187957763672	46624561.35154433
1.817386507987976	44767809.93127945
1.8210482597351074	43080352.2532072
1.8247040510177612	46449025.210056975
1.828354001045227	46492240.75050643
1.8319982290267944	43475226.03294585
1.8356364965438843	41844023.17189628
1.8392690420150757	41356026.833624326
1.8428958654403687	40692623.10507139
1.8465168476104736	38341506.390744284
1.8501322269439697	37229351.416929886
1.8537418842315674	36091680.491993144
1.8573459386825562	31672719.902198844
1.860944390296936	28437955.191771023
1.864537239074707	29087552.246151697
1.8681244850158691	31152467.936437905
1.871706247329712	33368190.182168644
1.8752825260162354	36298032.15593504
1.8788533210754395	40923530.342393056
1.8824186325073242	45953249.0273707
1.8859784603118896	48315833.11129624
1.8895330429077148	48315674.93477624
1.8930821418762207	50116719.52119945
1.8966259956359863	53306378.02119282
1.9001644849777222	53708041.55097126
1.9036977291107178	52695480.84011468
1.9072256088256836	53989651.05446289
1.9107483625411987	54562470.64296007
1.9142658710479736	53683146.20319404
1.9177782535552979	53691452.07790421
1.9212853908538818	51701457.839312516
1.9247875213623047	49198383.698165484
1.9282845258712769	47445631.892962046
1.9317764043807983	44736863.759870216
1.9352631568908691	41548588.63241531
1.9387450218200684	37660057.629789785
1.942221760749817	37483322.56703754
1.9456936120986938	40812674.30492572
1.9491604566574097	42612069.85819489
1.952622413635254	41947038.21320506
1.956079363822937	39945129.453555405
1.959531545639038	39717738.60972998
1.962978720664978	40711973.64791187
1.966421127319336	42777417.94177871
1.9698586463928223	44582033.652778484
1.9732913970947266	43464715.150526874
1.9767193794250488	42902616.93401058
1.9801424741744995	43787836.678009085
1.9835609197616577	45538359.99325666
1.9869745969772339	47273995.075646795
1.990383505821228	46664443.1060445
1.9937876462936401	48210478.20132404
1.9971871376037598	50587977.46679437
2.000581979751587	52046102.92464606
2.003972291946411	54562050.92567219
2.007357597351074	54405379.0311651
2.0107386112213135	54729130.672095135
2.0141148567199707	57967033.77359553
2.017486572265625	59520944.428856894
2.0208535194396973	62712586.759778306
2.0242159366607666	66332148.060481206
2.027573823928833	65256088.72811486
2.0309269428253174	66115867.79306024
2.034275770187378	70428209.26952015
2.0376198291778564	72823052.70398763
2.040959596633911	73546862.71586494
2.044294595718384	75224286.82184368
2.0476250648498535	78011187.15036719
2.0509510040283203	79108269.38842526
2.054272413253784	80010077.1945034
2.057589530944824	84222020.71306053
2.0609018802642822	85965143.54390967
2.0642096996307373	85386868.10909979
2.0675129890441895	87816567.38304153
2.0708119869232178	89294540.38687259
2.074106216430664	88916574.1949455
2.0773961544036865	89816414.4132746
2.080681324005127	91253761.50921297
2.0839622020721436	92078707.77574535
2.087238311767578	93064617.18071169
2.090510129928589	94557123.64213693
2.0937774181365967	95384413.14898008
2.0970399379730225	95597080.66366442
2.1002981662750244	95720716.85775694
2.1035518646240234	95601788.72933526
2.1068007946014404	95384812.53978641
2.1100454330444336	95598229.69786786
2.1132853031158447	96688446.68144976
2.116520881652832	96603464.14647333
2.1197516918182373	96059982.54141611
2.1229779720306396	96885309.64354198
2.12619948387146	96918566.76482792
2.1294167041778564	95798392.94494577
2.132629156112671	95787055.54336342
2.1358368396759033	95850276.64323035
2.139039993286133	94157562.59637849
2.1422386169433594	92385917.67840001
2.145432472229004	91604086.11667536
2.1486217975616455	90734465.4187109
2.151806354522705	89801888.99344032
2.1549863815307617	89534516.62668906
2.1581614017486572	89024287.63171223
2.16133189201355	87873081.92012778
2.1644976139068604	86811479.50540377
2.167658567428589	85668540.99564315
2.1708147525787354	84094395.27392742
2.173966407775879	81966433.79357822
2.1771130561828613	79674664.8486959
2.1802549362182617	78160612.68777658
2.183391809463501	76359908.08448094
2.1865241527557373	73490085.18233863
2.1896514892578125	70592324.61377145
2.1927738189697266	67119761.97189711
2.1958916187286377	61452114.45240363
2.1990041732788086	54125568.22039925
2.2021119594573975	47248854.090369925
2.2052149772644043	43056417.049105704
2.208312749862671	43289664.64599252
2.2114057540893555	46813460.65614465
2.214493751525879	50909206.57195249
2.217576742172241	53154656.51773776
2.2206547260284424	53634474.88223261
2.2237277030944824	53653311.08948399
2.2267956733703613	52174798.21696893
2.2298583984375	50294667.1928117
2.2329163551330566	49176668.85904414
2.235969066619873	48025862.35163896
2.2390167713165283	46670276.85665742
2.2420592308044434	44645036.57927267
2.2450966835021973	42768218.06646999
2.248128890991211	42007062.75407208
2.2511560916900635	41669430.03470832
2.254178285598755	41356105.23331338
2.257194995880127	41268060.96776603
2.260206699371338	41083960.14975144
2.2632133960723877	40577534.222519144
2.266214609146118	39900807.40514589
2.2692108154296875	39191165.02378095
2.2722020149230957	38773984.91267124
2.2751877307891846	38560711.92722336
2.278168201446533	37661647.13317052
2.2811436653137207	35851269.33715622
2.284113883972168	34131219.49461941
2.287078857421875	32970308.727877032
2.290038824081421	30889492.567828998
2.2929933071136475	27941861.215151675
2.295942783355713	26529391.37787994
2.298887014389038	27559113.124890737
2.301826238632202	29707223.76133
2.304760217666626	32238049.295524586
2.3076889514923096	35530720.493331395
2.310612440109253	38181445.46616492
2.3135311603546143	37245013.97309374
2.3164443969726562	31153433.38579707
2.319352865219116	24870342.930006266
2.322256088256836	22206431.210099887
2.3251543045043945	20858280.931118555
2.328047275543213	20400709.505415093
2.330935478210449	20928715.21360773
2.3338186740875244	21675014.271662686
2.3366971015930176	22512019.528810494
2.3395702838897705	23282915.359455213
2.3424389362335205	23763959.149935197
2.3453025817871094	24140016.421539176
2.348161458969116	24649100.760054763
2.351015567779541	25017594.29692036
2.353865146636963	25976672.475448754
2.3567099571228027	27310458.301737227
2.3595502376556396	28355069.680119134
2.3623859882354736	29801875.524437852
2.3652172088623047	30949582.190468483
2.368043899536133	29106910.33737288
2.370866537094116	24104208.626935534
2.3736846446990967	21917566.662906818
2.3764986991882324	22743461.78745926
2.3793084621429443	21950604.21373757
2.3821144104003906	20390757.258241422
2.384916305541992	21071671.15376688
2.387714147567749	24102865.259571232
2.3905084133148193	26062649.9138479
2.393299102783203	26445998.20488394
2.3960859775543213	27419886.672344424
2.398869514465332	28926465.644076817
2.4016497135162354	29670786.805322662
2.4044265747070312	30132873.04803528
2.407200336456299	30003154.591892626
2.409970998764038	29723907.758588955
2.4127390384674072	30381604.301854193
2.415503978729248	30258783.251899842
2.418266534805298	29568000.229786836
2.4210267066955566	29618654.555308837
2.4237842559814453	29080987.02597426
2.426539897918701	28006749.190517403
2.429293394088745	28455500.381948106
2.4320452213287354	29296927.8131464
2.4347951412200928	28132454.13025737
2.4375438690185547	28153964.465411242
2.440291166305542	29629599.48216762
2.443037271499634	28533263.33593838
2.445782423019409	26947035.428666975
2.4485268592834473	26928342.16431771
2.451270818710327	26183487.64330202
2.454014539718628	25526617.490591194
2.4567582607269287	27689826.973765682
2.4595019817352295	28225862.16569956
2.4622461795806885	28021784.83768268
2.4649908542633057	28860346.49237636
2.4677364826202393	26393958.592039168
2.4704833030700684	23791267.973966487
2.473231554031372	22919435.29728968
2.4759814739227295	23382720.064713266
2.4787333011627197	24287668.862170234
2.481487512588501	24355596.741896894
