#wavelength	surface flux
0.6450077295303345	732.7460536351861
0.6472567915916443	1181.0675546173763
0.6494921445846558	1612.4100713093512
0.6517150402069092	1952.7265531426613
0.6539263725280762	2331.835515192441
0.6561272740364075	2757.695127649016
0.6583186388015747	3239.821540475634
0.6605015397071838	3790.513804067383
0.6626768708229065	4400.711451090633
0.6648455858230591	5059.484880788527
0.6670085787773132	5632.816050645631
0.6691668033599854	5777.224510627108
0.6713210344314575	6098.076841882271
0.6734722256660461	7401.033158338321
0.6756211519241333	8788.385158721912
0.6777685880661011	9662.713094833356
0.6799154281616211	10383.17298614366
0.6820623278617859	11021.972099762213
0.6842101216316223	11564.850038920938
0.6863595843315125	11983.750427521334
0.688511312007904	12195.385568106994
0.6906660795211792	11966.445598856208
0.6928245425224304	11452.928298049752
0.6949873566627502	11349.21561384189
0.6971551775932312	11523.780167728894
0.6993286609649658	11281.512284941444
0.7015084028244019	10701.423702491355
0.7036949396133423	10146.676321176004
0.7058889269828796	9647.551182415942
0.7080909013748169	9121.619977736715
0.710301399230957	8538.12394541873
0.712520956993103	7878.665214134768
0.7147500514984131	6994.9416477733475
0.7169892191886902	5901.971298350356
0.7192389369010925	5108.914917184195
0.7214996814727783	4684.9055897779945
0.723771870136261	4219.032111344375
0.7260559797286987	3738.323232204499
0.7283523678779602	3403.7970255355945
0.7306615710258484	3178.967182678909
0.7329838871955872	3066.3514801777806
0.7353196740150452	2991.4146980984697
0.7376693487167358	2848.2927331217543
0.7400332689285278	2691.225631935224
0.7424117922782898	2550.316916280967
0.7448052167892456	2416.608777659275
0.7472138404846191	2270.6276023342234
0.7496379613876343	2096.0884619383696
0.7520779371261597	1892.4360931635445
0.7545340061187744	1660.2660736232858
0.7570064663887024	1403.0478578227958
0.7594954967498779	1117.0862172328948
0.7620013952255249	786.3467167369475
0.7645244002342224	438.8100124280966
0.7670646905899048	213.4617452692538
0.7696225643157959	238.55045855102358
0.7721980810165405	561.2022790406717
0.7747915983200073	1088.720548071524
0.7774031162261963	1570.8355621344263
0.7800329327583313	2018.8967790737352
0.7826811671257019	2730.6332030353146
0.7853479981422424	3602.0096348365537
0.7880334854125977	4414.357006701241
0.7907378077507019	5069.554979256326
0.7934610247612	5417.136877857168
0.7962033748626709	6284.4514206381655
0.7989648580551147	8064.8337831826975
0.801745593547821	9873.991119233313
0.8045456409454346	11553.235687125582
0.8073651194572449	13175.216352823038
0.8102040886878967	14441.207088509178
0.8130625486373901	15799.659049216085
0.8159406185150146	18532.64341612045
0.8188382983207703	22672.73320153609
0.8217556476593018	26728.54143767391
0.8246926665306091	31580.12048934514
0.8276493549346924	37949.11847450784
0.8306257724761963	44611.374011973574
0.8336219191551208	52033.27335460351
0.8366377949714661	60954.28330130545
0.8396733403205872	71756.5821971212
0.8427285552024841	85070.21262893066
0.8458034992218018	100539.23772837404
0.8488980531692505	112226.64164748114
0.8520121574401855	122438.54606307474
0.8551458716392517	148327.89231160012
0.8582990765571594	180468.73158971075
0.8614717125892639	202737.19580093928
0.8646637797355652	226251.99222599974
0.8678751587867737	259766.4477256433
0.8711057901382446	299023.2551688251
0.8743556141853333	334997.1879833387
0.87762451171875	350244.49047719274
0.8809124231338501	317482.8676309644
0.8842192888259888	257774.85674428218
0.8875449895858765	219171.68839607484
0.8908893465995789	194287.0700960778
0.894252359867096	181785.2326908724
0.8976338505744934	243827.33655402402
0.9010337591171265	406147.01699975156
0.9044519662857056	599406.1815601443
0.9078882932662964	715615.249743326
0.9113426208496094	732799.9972923773
0.914814829826355	713543.8591697491
0.9183048605918884	741388.2903838184
0.9218124747276306	776027.2549110801
0.925337553024292	608275.1079317558
0.9288799166679382	302447.0717590544
0.9324395060539246	147076.2069887165
0.9360161423683167	174240.65159904276
0.9396095871925354	258107.16732735856
0.943219780921936	304850.08034271206
0.9468464851379395	300189.3849034584
0.9504896402359009	288618.1765054682
0.9541489481925964	275336.71306678624
0.9578243494033813	259406.0867924503
0.9615156054496765	280162.4246645106
0.9652225375175476	377418.6288833783
0.9689450263977051	506740.25721678213
0.9726828336715698	579715.9675018655
0.9764357805252075	624723.0581626396
0.9802037477493286	677250.9017992913
0.983986496925354	707502.0369074659
0.9877838492393494	763668.0127330777
0.9915955662727356	914121.7255622798
0.9954215884208679	1175359.8073053202
0.9992615580558777	1570111.6982231713
1.0031154155731201	2082583.4632827237
1.0069829225540161	2561134.2473924626
1.0108637809753418	2908864.3496128786
1.0147579908370972	3175915.9712738977
1.018665075302124	3399098.6016851705
1.022585153579712	3690962.1987969275
1.0265177488327026	4128424.612446783
1.0304628610610962	4513533.485810533
1.0344202518463135	4831041.33919467
1.0383895635604858	5343276.773501344
1.0423706769943237	5952525.9207779085
1.0463634729385376	6409718.883357008
1.0503677129745483	6810247.699760327
1.0543830394744873	7273349.166539746
1.058409333229065	7619786.557966439
1.0624464750289917	7790118.809095859
1.0664942264556885	7793565.913292376
1.0705522298812866	7657649.21959118
1.0746204853057861	7625013.135050074
1.0786986351013184	7599743.773481042
1.0827864408493042	7237590.332055375
1.086883783340454	6096864.797529148
1.0909905433654785	4192528.6562281847
1.0951062440872192	2444307.918407353
1.0992310047149658	1417626.8286961536
1.10336434841156	847924.8310996388
1.1075061559677124	491375.5664941181
1.1116561889648438	279226.25206559413
1.115814208984375	168498.27893244423
1.1199802160263062	136023.76876257773
1.124153733253479	139326.78363059595
1.1283347606658936	150328.2993818488
1.1325229406356812	136710.3760876849
1.1367181539535522	161706.15728127296
1.1409201622009277	232808.94591575032
1.145128846168518	237940.7790245364
1.1493438482284546	184313.27068445284
1.1535650491714478	132696.64697422335
1.1577922105789185	109215.2097995911
1.1620250940322876	106163.26058484154
1.1662636995315552	125908.66368048273
1.170507550239563	206448.5247591542
1.174756646156311	336018.893637249
1.1790107488632202	518312.1518418907
1.1832695007324219	753273.4301888079
1.1875330209732056	991509.0531631163
1.191800832748413	1318192.5566454884
1.1960728168487549	1769569.8952124137
1.2003488540649414	2235187.049689139
1.2046287059783936	2745875.868480218
1.2089121341705322	3218203.232195792
1.2131990194320679	3613395.364707965
1.2174891233444214	4075489.488079459
1.2217823266983032	4640260.633606874
1.2260783910751343	5392222.69466964
1.230377197265625	6288080.447362789
1.2346785068511963	7172696.047049912
1.238982081413269	8004688.747923467
1.2432878017425537	8814233.183392007
1.2475954294204712	9512793.615975576
1.2519049644470215	9907802.62201101
1.256216049194336	10626903.38115753
1.2605286836624146	11470733.516291803
1.2648425102233887	11375300.68766015
1.2691574096679688	10527757.816395354
1.2734732627868652	9396024.216674937
1.2777899503707886	8240160.692655566
1.2821072340011597	7014303.127111274
1.2864248752593994	5694224.163027859
1.2907428741455078	4776742.112467971
1.2950609922409058	4434840.951963249
1.2993791103363037	4162938.5442283982
1.303696870803833	3686436.012189208
1.3080145120620728	3189658.370775013
1.3123314380645752	2643620.828136707
1.3166478872299194	2248410.0414749715
1.3209635019302368	2133241.8060751497
1.3252781629562378	1799394.8419142826
1.3295916318893433	1072827.9623612268
1.3339040279388428	405270.82059688115
1.3382149934768677	115555.53373171983
1.3425244092941284	43402.88308407436
1.3468321561813354	17290.543408206897
1.3511382341384888	8139.011483431717
1.3554422855377197	4062.965066068092
1.3597444295883179	2859.870134022762
1.3640443086624146	3936.8857926410615
1.3683418035507202	5239.838074915279
1.3726370334625244	7796.608027600948
1.3769296407699585	11525.314688468628
1.381219506263733	10807.399182089379
1.3855066299438477	7990.470253061392
1.3897908926010132	8072.557794033525
1.3940720558166504	8643.391213377412
1.3983501195907593	8759.552962145413
1.4026249647140503	9290.06177042899
1.4068963527679443	9652.402022641338
1.4111642837524414	10794.092453490206
1.4154287576675415	12698.488884525133
1.419689416885376	13097.702086168696
1.4239463806152344	15789.953373817045
1.4281994104385376	26062.69648671365
1.4324485063552856	34796.064861314146
1.436693549156189	36986.93851600505
1.440934419631958	43192.19478527301
1.4451709985733032	59765.46956607224
1.449403166770935	90578.1629222606
1.453631043434143	122612.70768211456
1.4578542709350586	138472.22366222306
1.4620729684829712	131648.30719236156
1.4662868976593018	106703.01585966603
1.4704961776733398	76163.43532390974
1.4747005701065063	59774.6957933365
1.4788999557495117	66840.57975969487
1.4830944538116455	78510.94724715811
1.4872838258743286	83681.28956005236
1.491468071937561	85699.42869365838
1.4956470727920532	99190.97982854611
1.4998208284378052	128549.76214762911
1.5039892196655273	142645.6852622325
1.5081522464752197	129002.86019497365
1.5123097896575928	108815.00717189246
1.5164618492126465	119633.68896070686
1.5206083059310913	181899.04894097496
1.5247491598129272	254549.85484779
1.5288842916488647	322633.81396473036
1.5330137014389038	397967.12137734384
1.5371372699737549	459924.0854464533
1.541254997253418	520368.7176375285
1.545366883277893	603141.1601366635
1.5494728088378906	694483.7802065097
1.5535727739334106	816919.9224346915
1.5576666593551636	1038409.9989956211
1.561754584312439	1419502.308808498
1.5658363103866577	1880003.065631019
1.5699119567871094	2156872.1511142845
1.5739814043045044	2262163.304407339
1.5780447721481323	2444904.1081321994
1.582101821899414	2647877.6937497663
1.5861525535583496	2692108.3342911527
1.5901970863342285	2558953.9721394177
1.5942351818084717	2335506.980228849
1.5982669591903687	2061099.0859308564
1.6022924184799194	1701742.0278679382
1.606311559677124	1340018.3602385516
1.6103241443634033	1063028.7031618564
1.6143304109573364	780570.0475509492
1.6183301210403442	520186.06374048174
1.6223233938217163	417910.3813773039
1.6263102293014526	426716.163589111
1.6302905082702637	468144.5443490853
1.634264349937439	558949.1891220629
1.638231635093689	691467.3370390399
1.6421923637390137	715127.3893619541
1.646146535873413	569193.9153778756
1.6500942707061768	531020.3659311219
1.6540353298187256	576158.8247018466
1.6579699516296387	543184.0540918367
1.661897897720337	531242.3771592602
1.6658192873001099	353703.2310915573
1.6697341203689575	127182.10815529876
1.6736423969268799	129392.4232642558
1.677544116973877	179651.58699650347
1.6814392805099487	164870.83577005565
1.6853278875350952	142745.1918850441
1.6892099380493164	118462.54256798772
1.6930854320526123	83064.53405868092
1.696954369544983	57142.728792070644
1.7008168697357178	43771.491612471524
1.7046726942062378	47735.56029118654
1.708522081375122	76997.61670560723
1.712364912033081	115771.49542875464
1.7162011861801147	164001.94627538256
1.7200311422348022	201346.13532069823
1.723854422569275	185836.45212010227
1.7276713848114014	162625.7989861414
1.731481909751892	161829.75938617266
1.7352858781814575	176069.84954573444
1.7390835285186768	220157.83955550136
1.7428747415542603	274340.5300988305
1.7466596364974976	312405.22499074764
1.7504380941390991	315732.5193482181
1.7542102336883545	265399.15929216385
1.7579760551452637	204690.47416080756
1.7617355585098267	179186.6732758718
1.7654887437820435	170805.84133343512
1.7692357301712036	153112.42203605917
1.7729763984680176	131299.4358202285
1.776710867881775	138524.3636996961
1.7804391384124756	160740.79498107365
1.7841613292694092	147316.77321876882
1.7878772020339966	117743.576901623
1.7915871143341064	89781.75059049691
1.7952908277511597	78312.34752687861
1.7989884614944458	88987.0489175087
1.8026801347732544	74768.27914285372
1.806365728378296	59071.42333022106
1.8100452423095703	62478.41018375492
1.8137187957763672	62233.705484651306
1.817386507987976	55366.12841374843
1.8210482597351074	66690.56041381073
1.8247040510177612	86277.33841578664
1.828354001045227	65473.25017866778
1.8319982290267944	35803.019903405635
1.8356364965438843	26230.30697106333
1.8392690420150757	28093.42387300056
1.8428958654403687	48539.05141074743
1.8465168476104736	60016.78010351724
1.8501322269439697	56392.64003710845
1.8537418842315674	54710.939348064036
1.8573459386825562	45996.236986702046
1.860944390296936	34648.24532966696
1.864537239074707	26406.973418967376
1.8681244850158691	18331.35742314402
1.871706247329712	16865.707892614537
1.8752825260162354	35056.10804871501
1.8788533210754395	75090.27954769187
1.8824186325073242	102219.5213948997
1.8859784603118896	97498.09185438881
1.8895330429077148	88036.3472766602
1.8930821418762207	101435.85568173567
1.8966259956359863	110404.43867361471
1.9001644849777222	77307.7504167079
1.9036977291107178	48314.54996786396
1.9072256088256836	49431.30138795007
1.9107483625411987	45584.64814431285
1.9142658710479736	35493.361756490405
1.9177782535552979	35351.28201497266
1.9212853908538818	35412.64959064892
1.9247875213623047	29855.247528831205
1.9282845258712769	23570.71125544205
1.9317764043807983	19456.994709768533
1.9352631568908691	17506.559156232743
1.9387450218200684	16073.825954647378
1.942221760749817	19153.83904104793
1.9456936120986938	23735.761938355674
1.9491604566574097	23533.415500390965
1.952622413635254	22047.76088593267
1.956079363822937	26579.253591725075
1.959531545639038	35871.311096688274
1.962978720664978	40265.8689938158
1.966421127319336	41303.707048025295
1.9698586463928223	41345.1248621186
1.9732913970947266	44172.527214382826
1.9767193794250488	55205.95754789059
1.9801424741744995	57261.84600061578
1.9835609197616577	56037.329820986
1.9869745969772339	67919.21701547453
1.990383505821228	82092.17396187206
1.9937876462936401	105480.9075919204
1.9971871376037598	138089.9057518322
2.000581979751587	155955.8830805677
2.003972291946411	153483.64332021054
2.007357597351074	155657.4593069636
2.0107386112213135	161630.02319412446
2.0141148567199707	147398.34842808914
2.017486572265625	122367.0276825807
2.0208535194396973	125842.24247796986
2.0242159366607666	161377.00362578747
2.027573823928833	186930.00454246864
2.0309269428253174	208888.14290485313
2.034275770187378	237782.02862544305
2.0376198291778564	250206.13230888054
2.040959596633911	258438.2661650741
2.044294595718384	301209.1388699928
2.0476250648498535	356183.7884170893
2.0509510040283203	382367.0346706348
2.054272413253784	409464.7108299285
2.057589530944824	459381.4116442106
2.0609018802642822	500740.50645475765
2.0642096996307373	535527.6583890805
2.0675129890441895	577175.0151053044
2.0708119869232178	614716.655742261
2.074106216430664	651340.6490991728
2.0773961544036865	678858.9848817486
2.080681324005127	700547.6612319793
2.0839622020721436	729054.3549773543
2.087238311767578	756096.1459006548
2.090510129928589	783213.6630416409
2.0937774181365967	791024.4523364862
2.0970399379730225	775598.8255602287
2.1002981662750244	754260.0719173535
2.1035518646240234	743043.3685893005
2.1068007946014404	732410.526154545
2.1100454330444336	706267.1936702407
2.1132853031158447	690680.8376210053
2.116520881652832	664755.0528624782
2.1197516918182373	629315.2706677259
2.1229779720306396	609167.6462894721
2.12619948387146	589580.2172598547
2.1294167041778564	571425.3503199941
2.132629156112671	560969.2114043584
2.1358368396759033	545191.3171505503
2.139039993286133	505621.35655324283
2.1422386169433594	431304.15279410983
2.145432472229004	358906.37833455816
2.1486217975616455	331983.92736740183
2.151806354522705	319648.426505394
2.1549863815307617	294066.52736092464
2.1581614017486572	264585.5926595849
2.16133189201355	229606.34316557122
2.1644976139068604	200069.68883611023
2.167658567428589	177714.796263704
2.1708147525787354	164921.57810229826
2.173966407775879	164638.63820181653
2.1771130561828613	156305.84998396906
2.1802549362182617	141745.46779550923
2.183391809463501	127253.6746320348
2.1865241527557373	114705.98579165587
2.1896514892578125	94874.05789739708
2.1927738189697266	61709.4454871801
2.1958916187286377	32530.62567718177
2.1990041732788086	15016.964462839323
2.2021119594573975	7396.4083889378935
2.2052149772644043	8810.306038043085
2.208312749862671	15096.125556383051
2.2114057540893555	21275.033422444103
2.214493751525879	24972.092001706005
2.217576742172241	26880.518936862532
2.2206547260284424	25552.009556327408
2.2237277030944824	22217.00709265897
2.2267956733703613	18879.80926131313
2.2298583984375	15013.908122788347
2.2329163551330566	13539.555898142684
2.235969066619873	13439.208815684598
2.2390167713165283	11049.75757350612
2.2420592308044434	8945.442677474977
2.2450966835021973	7758.613544089083
2.248128890991211	6049.052372408829
2.2511560916900635	5012.495997943841
2.254178285598755	4569.811135192782
2.257194995880127	4352.091555703725
2.260206699371338	4582.399386922022
2.2632133960723877	4819.365865807166
2.266214609146118	5183.479899409029
2.2692108154296875	5752.236365628977
2.2722020149230957	6321.2201300778615
2.2751877307891846	6228.171722221862
2.278168201446533	6030.467887043701
2.2811436653137207	5836.433533112893
2.284113883972168	4612.505362435544
2.287078857421875	3703.325780445711
2.290038824081421	3425.254399979708
2.2929933071136475	3117.550243515026
2.295942783355713	3229.5802595712094
2.298887014389038	3850.910628999214
2.301826238632202	4631.254153282636
2.304760217666626	6374.700556060933
2.3076889514923096	11843.673814871798
2.310612440109253	21069.174794717583
2.3135311603546143	23593.054312665987
2.3164443969726562	13370.699824429252
2.319352865219116	3722.379360874127
2.322256088256836	2237.6142224296655
2.3251543045043945	2919.8420609271234
2.328047275543213	3137.9054644877288
2.330935478210449	3512.15006652473
2.3338186740875244	4150.416166933255
2.3366971015930176	4592.515456072086
2.3395702838897705	4775.529107558649
2.3424389362335205	4905.940757346058
2.3453025817871094	4445.00896339871
2.348161458969116	4085.8499340587014
2.351015567779541	4714.072037591136
2.353865146636963	5646.091192220514
2.3567099571228027	6986.531268660211
2.3595502376556396	9543.628826822593
2.3623859882354736	12101.099006375978
2.3652172088623047	12335.312027409676
2.368043899536133	9579.780725318753
2.370866537094116	5354.924636649941
2.3736846446990967	3507.2016176734405
2.3764986991882324	4968.925400226383
2.3793084621429443	6291.215948929164
2.3821144104003906	6067.051710452381
2.384916305541992	7112.277869861093
2.387714147567749	10124.80256247769
2.3905084133148193	11450.214552457819
2.393299102783203	10673.395766997537
2.3960859775543213	10645.364547765495
2.398869514465332	13120.508978354263
2.4016497135162354	17126.945585704034
2.4044265747070312	20422.14134335992
2.407200336456299	22092.09299218512
2.409970998764038	27395.06228690578
2.4127390384674072	34035.89766416572
2.415503978729248	30920.22213408077
2.418266534805298	24158.300345820633
2.4210267066955566	21994.89698850637
2.4237842559814453	19225.35944480945
2.426539897918701	18427.77168241961
2.429293394088745	25263.792046032504
2.4320452213287354	31042.230296991445
2.4347951412200928	31165.80406065114
2.4375438690185547	38208.915670003145
2.440291166305542	50320.5696149128
2.443037271499634	52479.94247322759
2.445782423019409	47647.01385986067
2.4485268592834473	45961.709653263075
2.451270818710327	48180.96153706613
2.454014539718628	53693.619062105514
2.4567582607269287	62611.733022818364
2.4595019817352295	70636.97050049418
2.4622461795806885	80644.3239088447
2.4649908542633057	92713.22293308972
2.4677364826202393	89236.602724503
2.4704833030700684	76898.46250358812
2.473231554031372	72577.54314775595
2.4759814739227295	77156.31028321179
2.4787333011627197	80827.19522084919
2.481487512588501	81832.1358205937
