#wavelength	surface flux
0.6450077295303345	510.9472096334231
0.6472567915916443	821.363200213436
0.6494921445846558	1117.071959646356
0.6517150402069092	1345.7479391872266
0.6539263725280762	1596.9209370316341
0.6561272740364075	1875.3059447602693
0.6583186388015747	2188.235881395465
0.6605015397071838	2546.6438985540226
0.6626768708229065	2942.8320418975036
0.6648455858230591	3368.949396478964
0.6670085787773132	3747.1493976882675
0.6691668033599854	3871.295078850016
0.6713210344314575	4093.734218299454
0.6734722256660461	4886.442280618255
0.6756211519241333	5716.439253708371
0.6777685880661011	6236.102300376147
0.6799154281616211	6660.7964731309885
0.6820623278617859	7030.470358699853
0.6842101216316223	7336.588687729521
0.6863595843315125	7561.848201093957
0.688511312007904	7648.021005172834
0.6906660795211792	7424.310258777638
0.6928245425224304	7006.645841118793
0.6949873566627502	6911.70519468449
0.6971551775932312	7045.427728692762
0.6993286609649658	6892.478366289971
0.7015084028244019	6509.8600107767725
0.7036949396133423	6164.286791839876
0.7058889269828796	5873.579111566672
0.7080909013748169	5573.868464195328
0.710301399230957	5238.854637804796
0.712520956993103	4848.6217808522615
0.7147500514984131	4291.774309377418
0.7169892191886902	3572.9452360560026
0.7192389369010925	3059.2379541130435
0.7214996814727783	2811.493469315608
0.723771870136261	2535.2302763768184
0.7260559797286987	2243.772385039035
0.7283523678779602	2050.06227870192
0.7306615710258484	1931.7880800474654
0.7329838871955872	1894.9052075191312
0.7353196740150452	1883.4979100760409
0.7376693487167358	1823.4904003415115
0.7400332689285278	1759.6156319629688
0.7424117922782898	1714.1394415460443
0.7448052167892456	1678.1109321057586
0.7472138404846191	1635.2498759046643
0.7496379613876343	1568.8736891710548
0.7520779371261597	1469.2909761685514
0.7545340061187744	1326.4900765093632
0.7570064663887024	1138.3599845026126
0.7594954967498779	911.8822444879461
0.7620013952255249	650.586616371222
0.7645244002342224	375.020108308554
0.7670646905899048	191.91626631153133
0.7696225643157959	213.58733185023908
0.7721980810165405	477.39319836674815
0.7747915983200073	898.8522809376069
0.7774031162261963	1277.6220520205
0.7800329327583313	1625.342336941027
0.7826811671257019	2170.4773924261585
0.7853479981422424	2802.132150808537
0.7880334854125977	3333.8506692819037
0.7907378077507019	3729.95832161303
0.7934610247612	3908.586281250215
0.7962033748626709	4407.727116247671
0.7989648580551147	5490.066626305964
0.801745593547821	6596.827834730452
0.8045456409454346	7627.6369680524285
0.8073651194572449	8593.938230662132
0.8102040886878967	9254.59595360877
0.8130625486373901	9930.824488761718
0.8159406185150146	11581.204302153728
0.8188382983207703	14242.121745670864
0.8217556476593018	16772.6929779294
0.8246926665306091	19779.13822814461
0.8276493549346924	23790.709018211608
0.8306257724761963	27896.39930071881
0.8336219191551208	32435.52080550198
0.8366377949714661	37962.0219758116
0.8396733403205872	44731.024582184604
0.8427285552024841	53168.21216523559
0.8458034992218018	63142.938772499074
0.8488980531692505	71094.45152743178
0.8520121574401855	78149.13022267529
0.8551458716392517	94301.70832283578
0.8582990765571594	113785.76742231715
0.8614717125892639	127031.94198106317
0.8646637797355652	141434.71248649812
0.8678751587867737	162891.75090672288
0.8711057901382446	188299.82560924784
0.8743556141853333	211042.15378070407
0.87762451171875	218794.43785592177
0.8809124231338501	193317.0219836161
0.8842192888259888	150336.20025161505
0.8875449895858765	123308.56206444562
0.8908893465995789	107660.5117236472
0.894252359867096	100104.71381595779
0.8976338505744934	137435.36638354193
0.9010337591171265	241055.86595196102
0.9044519662857056	369303.9135852475
0.9078882932662964	445057.5128314468
0.9113426208496094	452489.0003851972
0.914814829826355	435608.1383417688
0.9183048605918884	451756.97202662134
0.9218124747276306	474479.24656606617
0.925337553024292	366133.81532810174
0.9288799166679382	170950.31178235423
0.9324395060539246	71954.04377978979
0.9360161423683167	85551.93522819187
0.9396095871925354	133270.29252006573
0.943219780921936	158488.10112512513
0.9468464851379395	153301.62270766226
0.9504896402359009	144762.6360460992
0.9541489481925964	136294.67257237964
0.9578243494033813	128031.88058114698
0.9615156054496765	141617.04425851285
0.9652225375175476	202241.35529519216
0.9689450263977051	283777.0367581703
0.9726828336715698	327534.0318051845
0.9764357805252075	351998.677290103
0.9802037477493286	382365.6203935726
0.983986496925354	399013.59581310686
0.9877838492393494	431236.36580858176
0.9915955662727356	525716.770797816
0.9954215884208679	699496.2988345682
0.9992615580558777	973090.1437186993
1.0031154155731201	1330706.9642219376
1.0069829225540161	1652668.2816873523
1.0108637809753418	1859143.7299228015
1.0147579908370972	1982367.7357780589
1.018665075302124	2064327.9625430093
1.022585153579712	2219889.876835702
1.0265177488327026	2508779.7246090197
1.0304628610610962	2738261.766945365
1.0344202518463135	2888309.036609539
1.0383895635604858	3212223.5535908956
1.0423706769943237	3650214.6934909937
1.0463634729385376	3983367.467761628
1.0503677129745483	4273158.51230093
1.0543830394744873	4612033.673837494
1.058409333229065	4864609.894583915
1.0624464750289917	4974076.989055335
1.0664942264556885	4950119.270429282
1.0705522298812866	4823042.400430276
1.0746204853057861	4771489.3949127095
1.0786986351013184	4735224.126334888
1.0827864408493042	4489239.185247726
1.086883783340454	3765962.3606819925
1.0909905433654785	2573791.493354424
1.0951062440872192	1477269.9485372873
1.0992310047149658	828257.7167873272
1.10336434841156	470830.28847736126
1.1075061559677124	256271.9209364703
1.1116561889648438	135516.28306707274
1.115814208984375	74316.87639104307
1.1199802160263062	56580.12782679168
1.124153733253479	57105.553966903855
1.1283347606658936	62400.34671203883
1.1325229406356812	58207.185463385315
1.1367181539535522	73455.3413263389
1.1409201622009277	108866.46765578457
1.145128846168518	108353.71245430937
1.1493438482284546	78743.71827265878
1.1535650491714478	53115.024386774574
1.1577922105789185	42185.742905183295
1.1620250940322876	41125.92210799605
1.1662636995315552	51293.22468043101
1.170507550239563	91937.80900569417
1.174756646156311	160249.8413618425
1.1790107488632202	259228.60422222654
1.1832695007324219	386257.5050806177
1.1875330209732056	513546.62520948856
1.191800832748413	688141.0123682296
1.1960728168487549	932918.118056439
1.2003488540649414	1189309.219130996
1.2046287059783936	1474010.0858975903
1.2089121341705322	1733805.5249728812
1.2131990194320679	1944954.439756851
1.2174891233444214	2196933.0330248927
1.2217823266983032	2526242.431744788
1.2260783910751343	2997086.1500532255
1.230377197265625	3579621.690514301
1.2346785068511963	4170199.8163770814
1.238982081413269	4767534.200423801
1.2432878017425537	5391791.945020768
1.2475954294204712	5942735.588079921
1.2519049644470215	6284272.359220394
1.256216049194336	6773619.02487101
1.2605286836624146	7339896.779877216
1.2648425102233887	7342990.386797538
1.2691574096679688	6792721.388325238
1.2734732627868652	5958226.533663993
1.2777899503707886	5071472.322027109
1.2821072340011597	4174868.872201494
1.2864248752593994	3281879.6268743165
1.2907428741455078	2685928.7584659667
1.2950609922409058	2466182.119695188
1.2993791103363037	2301419.133148614
1.303696870803833	2002889.9273526303
1.3080145120620728	1691776.8180825822
1.3123314380645752	1368763.9795576432
1.3166478872299194	1147172.9425679054
1.3209635019302368	1103165.0321139318
1.3252781629562378	940704.7311290825
1.3295916318893433	557204.060237307
1.3339040279388428	204597.08404294073
1.3382149934768677	55152.622041730516
1.3425244092941284	19819.508076725982
1.3468321561813354	7117.577267136522
1.3511382341384888	3088.261577730441
1.3554422855377197	1403.3809592073746
1.3597444295883179	889.0612199129689
1.3640443086624146	1224.3443056848673
1.3683418035507202	1673.8310397792798
1.3726370334625244	2702.2565092732484
1.3769296407699585	4145.525919659423
1.381219506263733	3784.4609146588505
1.3855066299438477	2658.457230333423
1.3897908926010132	2732.976506859877
1.3940720558166504	3018.855013588966
1.3983501195907593	3123.243016703697
1.4026249647140503	3355.2174216784883
1.4068963527679443	3539.4604044366856
1.4111642837524414	4089.6184632273366
1.4154287576675415	4927.408663627514
1.419689416885376	5147.1459106475695
1.4239463806152344	6573.841324636594
1.4281994104385376	11627.552299022838
1.4324485063552856	15707.163893203284
1.436693549156189	16461.749075297503
1.440934419631958	19463.407098617878
1.4451709985733032	27928.00681455373
1.449403166770935	43154.59395387699
1.453631043434143	58377.26351636414
1.4578542709350586	65318.820472439584
1.4620729684829712	60107.307039326115
1.4662868976593018	45551.91300139481
1.4704961776733398	29548.768403407954
1.4747005701065063	20580.68182165784
1.4788999557495117	22384.5854681536
1.4830944538116455	26928.927759122238
1.4872838258743286	28540.85647882039
1.491468071937561	28318.02428812173
1.4956470727920532	33034.9969022891
1.4998208284378052	44561.3741794732
1.5039892196655273	49692.90226153699
1.5081522464752197	42554.81718350092
1.5123097896575928	32111.579866295786
1.5164618492126465	34879.89419164783
1.5206083059310913	58857.651172839796
1.5247491598129272	86625.1951328497
1.5288842916488647	113080.07132648774
1.5330137014389038	143672.7215715682
1.5371372699737549	168918.00968363855
1.541254997253418	195326.01917682367
1.545366883277893	230313.4344349464
1.5494728088378906	270347.48203673394
1.5535727739334106	337583.7493524736
1.5576666593551636	460313.9381733055
1.561754584312439	665986.8245716835
1.5658363103866577	926417.7530596943
1.5699119567871094	1099354.062472189
1.5739814043045044	1178053.0399278535
1.5780447721481323	1301606.7903789184
1.582101821899414	1442511.2143521588
1.5861525535583496	1493789.3317232546
1.5901970863342285	1436361.6432691708
1.5942351818084717	1315619.9826066995
1.5982669591903687	1156149.2214738755
1.6022924184799194	943886.8234065039
1.606311559677124	730373.6905363839
1.6103241443634033	567544.6688476283
1.6143304109573364	403755.3475982891
1.6183301210403442	253755.9674358002
1.6223233938217163	192352.73640274035
1.6263102293014526	191815.14169892608
1.6302905082702637	209414.30939199543
1.634264349937439	251424.0685590874
1.638231635093689	312926.0937355454
1.6421923637390137	322944.5028425391
1.646146535873413	253112.96000573263
1.6500942707061768	236174.19509275974
1.6540353298187256	261883.96372378478
1.6579699516296387	252654.10579775527
1.661897897720337	249622.73846144383
1.6658192873001099	164230.04123641844
1.6697341203689575	56925.79964277845
1.6736423969268799	56163.008546620695
1.677544116973877	76172.96084512003
1.6814392805099487	68357.29223353694
1.6853278875350952	59239.52110624576
1.6892099380493164	49141.44517433017
1.6930854320526123	33665.4571387066
1.696954369544983	22504.431349830902
1.7008168697357178	16713.809734295995
1.7046726942062378	18074.125830885925
1.708522081375122	30562.07915314324
1.712364912033081	48579.24163269958
1.7162011861801147	73029.12995968937
1.7200311422348022	92093.72138257424
1.723854422569275	84217.84257687988
1.7276713848114014	72807.19265254842
1.731481909751892	73784.93522585611
1.7352858781814575	83158.6613517555
1.7390835285186768	108146.6034983673
1.7428747415542603	138641.52612281623
1.7466596364974976	160203.5609360449
1.7504380941390991	162604.31743821135
1.7542102336883545	135405.9126783078
1.7579760551452637	101757.43866760092
1.7617355585098267	87490.16196370863
1.7654887437820435	84033.95970269911
1.7692357301712036	76152.99029097949
1.7729763984680176	65097.835281931024
1.776710867881775	69893.90247420548
1.7804391384124756	83089.79155134453
1.7841613292694092	75925.85880014111
1.7878772020339966	59369.308782148124
1.7915871143341064	44198.53360094048
1.7952908277511597	38096.688233975976
1.7989884614944458	43828.280579034334
1.8026801347732544	36176.97218942003
1.806365728378296	27436.341164772934
1.8100452423095703	28535.838779057514
1.8137187957763672	27483.397034706544
1.817386507987976	24027.40301991172
1.8210482597351074	30273.42212363292
1.8247040510177612	39886.55687602946
1.828354001045227	29077.64267965452
1.8319982290267944	14338.042501026042
1.8356364965438843	10048.49101124737
1.8392690420150757	11185.797934108114
1.8428958654403687	21416.161372455583
1.8465168476104736	27525.288713383783
1.8501322269439697	25886.912203742908
1.8537418842315674	24876.186592668306
1.8573459386825562	20701.699000524204
1.860944390296936	15449.308293498441
1.864537239074707	11504.675468464
1.8681244850158691	7447.582783829903
1.871706247329712	6300.757295604307
1.8752825260162354	14538.836307918356
1.8788533210754395	33804.9180683966
1.8824186325073242	46836.34745368082
1.8859784603118896	44022.471173790276
1.8895330429077148	38793.35516044127
1.8930821418762207	44563.55579639311
1.8966259956359863	48546.125869870884
1.9001644849777222	32675.134064878894
1.9036977291107178	18601.68448966582
1.9072256088256836	18687.350346156905
1.9107483625411987	17140.106371087342
1.9142658710479736	12953.201194215755
1.9177782535552979	12710.42031762361
1.9212853908538818	12920.464417182011
1.9247875213623047	11005.547459448742
1.9282845258712769	8628.121315532893
1.9317764043807983	7068.666319065079
1.9352631568908691	6374.609640885701
1.9387450218200684	5878.738565023421
1.942221760749817	7088.572962833484
1.9456936120986938	8976.314254783449
1.9491604566574097	8906.867728711393
1.952622413635254	8304.763972538845
1.956079363822937	10634.48636201825
1.959531545639038	15168.575629179206
1.962978720664978	17166.02755122082
1.966421127319336	17322.25785857171
1.9698586463928223	16965.361684736872
1.9732913970947266	18041.97974059172
1.9767193794250488	23017.941243211368
1.9801424741744995	23472.21427846963
1.9835609197616577	22093.115882930266
1.9869745969772339	27221.57581184725
1.990383505821228	33693.84129415189
1.9937876462936401	44511.57668120211
1.9971871376037598	60314.79458726206
2.000581979751587	68147.69962111519
2.003972291946411	65568.12029291874
2.007357597351074	66905.38079265869
2.0107386112213135	69185.32296723964
2.0141148567199707	61142.332777464704
2.017486572265625	49123.103570783445
2.0208535194396973	48880.844655268935
2.0242159366607666	63109.86290627755
2.027573823928833	74904.69932602296
2.0309269428253174	85276.56232897921
2.034275770187378	97955.3351331136
2.0376198291778564	103168.35852645953
2.040959596633911	107223.92816324854
2.044294595718384	126324.15839589872
2.0476250648498535	149914.2920013869
2.0509510040283203	163828.3805262298
2.054272413253784	179593.1135991415
2.057589530944824	203037.79914146697
2.0609018802642822	224142.3596300542
2.0642096996307373	243826.54056743806
2.0675129890441895	265338.74142910074
2.0708119869232178	285470.0652959597
2.074106216430664	306778.59904006287
2.0773961544036865	323627.9183062913
2.080681324005127	336250.4469747843
2.0839622020721436	352929.97303122404
2.087238311767578	369150.2657260292
2.090510129928589	384989.33212213044
2.0937774181365967	391045.2205724567
2.0970399379730225	384852.14275639056
2.1002981662750244	376545.6680410265
2.1035518646240234	374431.0264625302
2.1068007946014404	371735.7964174698
2.1100454330444336	359311.3404051107
2.1132853031158447	351675.08901631605
2.116520881652832	338845.8423845771
2.1197516918182373	320778.1333145713
2.1229779720306396	309603.843653897
2.12619948387146	298913.39907151175
2.1294167041778564	289947.74326424825
2.132629156112671	284849.80768649484
2.1358368396759033	277301.30594287737
2.139039993286133	258236.39599712408
2.1422386169433594	220529.65113874225
2.145432472229004	183248.39135359842
2.1486217975616455	168742.66511611443
2.151806354522705	160836.5893724013
2.1549863815307617	146338.417581707
2.1581614017486572	130839.94799540022
2.16133189201355	112533.95088753421
2.1644976139068604	96845.03840160742
2.167658567428589	85379.81157089534
2.1708147525787354	78809.42943438233
2.173966407775879	79098.85794786361
2.1771130561828613	75044.0402377478
2.1802549362182617	67262.4642934044
2.183391809463501	60381.64567887585
2.1865241527557373	55130.67582468644
2.1896514892578125	45643.9161826611
2.1927738189697266	29024.30370963393
2.1958916187286377	14690.450109955027
2.1990041732788086	6481.428484767844
2.2021119594573975	3050.1934832587604
2.2052149772644043	3893.6702135753153
2.208312749862671	7080.810653228733
2.2114057540893555	9958.703751055038
2.214493751525879	11342.650483654083
2.217576742172241	11913.455980478366
2.2206547260284424	11111.616984947426
2.2237277030944824	9549.34741285928
2.2267956733703613	8059.885465868214
2.2298583984375	6281.234604104665
2.2329163551330566	5662.679181233629
2.235969066619873	5663.330797313124
2.2390167713165283	4589.11640504975
2.2420592308044434	3685.1625864436905
2.2450966835021973	3189.6037853698076
2.248128890991211	2428.729692882626
2.2511560916900635	1980.3851197046959
2.254178285598755	1793.8746750776074
2.257194995880127	1673.1870127284967
2.260206699371338	1754.0816962235365
2.2632133960723877	1847.1535534993882
2.266214609146118	2006.4410486049712
2.2692108154296875	2304.5949309532416
2.2722020149230957	2637.2316455243063
2.2751877307891846	2622.6992855040144
2.278168201446533	2518.2446169438394
2.2811436653137207	2441.3856153444713
2.284113883972168	1919.6979794827398
2.287078857421875	1531.5696713423288
2.290038824081421	1414.0018173268559
2.2929933071136475	1274.7342088601831
2.295942783355713	1306.7762817118096
2.298887014389038	1545.624429270091
2.301826238632202	1861.1358284469104
2.304760217666626	2622.1973196062913
2.3076889514923096	5210.784323802472
2.310612440109253	9728.349335301878
2.3135311603546143	10947.431737252655
2.3164443969726562	6045.835379972227
2.319352865219116	1566.3070967337753
2.322256088256836	940.3593245490214
2.3251543045043945	1283.9311079029917
2.328047275543213	1378.096968138539
2.330935478210449	1509.1529957958298
2.3338186740875244	1771.2269083497722
2.3366971015930176	1938.455845957084
2.3395702838897705	1989.1114318624645
2.3424389362335205	2059.024467006452
2.3453025817871094	1870.7862910524457
2.348161458969116	1706.7604474383645
2.351015567779541	1998.6690671158212
2.353865146636963	2437.97101930262
2.3567099571228027	3097.720124482401
2.3595502376556396	4395.998155054519
2.3623859882354736	5644.33792597051
2.3652172088623047	5634.392096359167
2.368043899536133	4215.951858868059
2.370866537094116	2276.702570217907
2.3736846446990967	1499.735250083939
2.3764986991882324	2283.3067351786663
2.3793084621429443	3019.0503624145476
2.3821144104003906	2910.504672494037
2.384916305541992	3323.3400120599
2.387714147567749	4692.846809382396
2.3905084133148193	5295.980309555214
2.393299102783203	4902.415294296559
2.3960859775543213	4856.138401343394
2.398869514465332	6040.145088747892
2.4016497135162354	7978.056281064552
2.4044265747070312	9540.352715311465
2.407200336456299	10412.32150432149
2.409970998764038	13471.360801586581
2.4127390384674072	17189.811977711357
2.415503978729248	15421.828903506415
2.418266534805298	11629.956186601254
2.4210267066955566	10428.15822905775
2.4237842559814453	9036.48745399151
2.426539897918701	8704.057535573485
2.429293394088745	12353.648931748674
2.4320452213287354	15379.468294763632
2.4347951412200928	15490.661743627947
2.4375438690185547	19490.992524773425
2.440291166305542	26214.835715351597
2.443037271499634	27417.35480347637
2.445782423019409	24651.552689508015
2.4485268592834473	23573.555647535
2.451270818710327	24817.958571745658
2.454014539718628	27994.709667356517
2.4567582607269287	32952.718768826635
2.4595019817352295	37559.9396219125
2.4622461795806885	43279.02963444319
2.4649908542633057	50258.32555343748
2.4677364826202393	48829.17038050451
2.4704833030700684	42096.89907973646
2.473231554031372	39676.97603983306
2.4759814739227295	42367.09236154919
2.4787333011627197	44225.63155931967
2.481487512588501	44530.07271538915
