#wavelength	surface flux
0.6450077295303345	103258.92713121408
0.6472567915916443	165181.7602659091
0.6494921445846558	221446.60933549798
0.6517150402069092	262367.3036136767
0.6539263725280762	306686.5101242252
0.6561272740364075	355544.71423647535
0.6583186388015747	408806.1264158571
0.6605015397071838	465862.44722957304
0.6626768708229065	524547.8564210958
0.6648455858230591	577026.3460004136
0.6670085787773132	585957.946809401
0.6691668033599854	501509.4057962886
0.6713210344314575	465802.75941001857
0.6734722256660461	644287.2336750014
0.6756211519241333	874383.0054560835
0.6777685880661011	1012590.0430811782
0.6799154281616211	1107097.9251163614
0.6820623278617859	1187707.9911577522
0.6842101216316223	1258960.4935207772
0.6863595843315125	1320101.9539128367
0.688511312007904	1368616.4427387896
0.6906660795211792	1398026.58656192
0.6928245425224304	1410835.5901614544
0.6949873566627502	1426401.1519923913
0.6971551775932312	1442733.904338612
0.6993286609649658	1438101.7150174857
0.7015084028244019	1412821.4988824874
0.7036949396133423	1375019.4217585172
0.7058889269828796	1325359.142154496
0.7080909013748169	1267067.519338788
0.710301399230957	1203100.4292810962
0.712520956993103	1132826.138015695
0.7147500514984131	1053384.9255395273
0.7169892191886902	967291.2478211855
0.7192389369010925	886517.8088345939
0.7214996814727783	811027.0491893392
0.723771870136261	732776.2378322212
0.7260559797286987	654303.1304783529
0.7283523678779602	579838.0747001041
0.7306615710258484	509462.912295288
0.7329838871955872	443629.73536609154
0.7353196740150452	382019.043983054
0.7376693487167358	323642.12794234365
0.7400332689285278	269547.10946684424
0.7424117922782898	220360.20387803545
0.7448052167892456	176246.81622180768
0.7472138404846191	137246.3951040291
0.7496379613876343	103365.45308468139
0.7520779371261597	74736.72830537675
0.7545340061187744	51428.36614745909
0.7570064663887024	33352.75755297014
0.7594954967498779	20175.129511512663
0.7620013952255249	11157.954847290772
0.7645244002342224	5374.652471445534
0.7670646905899048	2556.722953306526
0.7696225643157959	2832.824813691717
0.7721980810165405	6828.50680898501
0.7747915983200073	15171.305184463581
0.7774031162261963	26537.540063560045
0.7800329327583313	44305.45318527028
0.7826811671257019	78254.18279829244
0.7853479981422424	127212.6832268973
0.7880334854125977	185623.37126766465
0.7907378077507019	241391.0104216349
0.7934610247612	280514.5591287349
0.7962033748626709	371965.64011440735
0.7989648580551147	549000.0681957661
0.801745593547821	736742.1363414875
0.8045456409454346	919940.4531600918
0.8073651194572449	1122180.609618498
0.8102040886878967	1344732.0236645758
0.8130625486373901	1593349.4438666299
0.8159406185150146	1865497.5116537074
0.8188382983207703	2167234.9440937215
0.8217556476593018	2552263.9691967643
0.8246926665306091	3018530.385512697
0.8276493549346924	3511202.8454146017
0.8306257724761963	4027949.8355700234
0.8336219191551208	4592915.506003604
0.8366377949714661	5216775.58040806
0.8396733403205872	5901104.137928243
0.8427285552024841	6642665.576450332
0.8458034992218018	7360029.68689685
0.8488980531692505	7604208.685246488
0.8520121574401855	7689634.423853278
0.8551458716392517	9062715.969650058
0.8582990765571594	10599472.806363212
0.8614717125892639	10258721.62388489
0.8646637797355652	9643230.490515059
0.8678751587867737	10303877.472735053
0.8711057901382446	11257207.017348627
0.8743556141853333	12303872.302986536
0.87762451171875	13713137.883374698
0.8809124231338501	15087920.789209353
0.8842192888259888	16512832.16622518
0.8875449895858765	17875949.540014766
0.8908893465995789	17935195.588851463
0.894252359867096	17536582.0064404
0.8976338505744934	20482512.27016529
0.9010337591171265	25635036.82627367
0.9044519662857056	29665786.361562062
0.9078882932662964	32730296.69212975
0.9113426208496094	35493762.781589225
0.914814829826355	38222584.89631875
0.9183048605918884	41072599.07206031
0.9218124747276306	42948515.75888849
0.925337553024292	40080878.08247833
0.9288799166679382	33487472.154841762
0.9324395060539246	31426709.057483237
0.9360161423683167	36135657.93022783
0.9396095871925354	42548078.44249449
0.943219780921936	46390217.275772914
0.9468464851379395	47562905.002784126
0.9504896402359009	48365773.835943885
0.9541489481925964	48683978.45229671
0.9578243494033813	48345299.884916216
0.9615156054496765	49378130.222773105
0.9652225375175476	53406725.42182207
0.9689450263977051	59090393.837469764
0.9726828336715698	64125399.50567608
0.9764357805252075	69102754.04899466
0.9802037477493286	74671017.26036987
0.983986496925354	79698007.74183927
0.9877838492393494	80653698.36361839
0.9915955662727356	75341676.90215534
0.9954215884208679	67573311.04009303
0.9992615580558777	57995815.00029949
1.0031154155731201	52279208.02936577
1.0069829225540161	55567458.21933643
1.0108637809753418	62671373.89083228
1.0147579908370972	70628597.85658684
1.018665075302124	78740015.63166967
1.022585153579712	85635244.48063411
1.0265177488327026	90467132.88786723
1.0304628610610962	96284508.33965662
1.0344202518463135	104764890.5089418
1.0383895635604858	113059788.57293324
1.0423706769943237	119146167.20515805
1.0463634729385376	122983942.67091157
1.0503677129745483	124249606.2342651
1.0543830394744873	124864775.46801792
1.058409333229065	127676614.93460087
1.0624464750289917	133198290.93993922
1.0664942264556885	140687178.55304876
1.0705522298812866	149433902.01291987
1.0746204853057861	159155937.0327846
1.0786986351013184	168532825.69853744
1.0827864408493042	175368010.99702075
1.086883783340454	174503967.0006104
1.0909905433654785	160687497.82433012
1.0951062440872192	137739572.08931115
1.0992310047149658	114282709.0754757
1.10336434841156	93110894.41274406
1.1075061559677124	74620830.65220621
1.1116561889648438	60889316.412633374
1.115814208984375	55145926.16054297
1.1199802160263062	57128691.79135468
1.124153733253479	64262896.02662407
1.1283347606658936	67333501.63970064
1.1325229406356812	56914591.99135106
1.1367181539535522	47676057.30775232
1.1409201622009277	52321915.14985987
1.145128846168518	64426791.023503184
1.1493438482284546	73634559.72334304
1.1535650491714478	73254539.29212973
1.1577922105789185	69537886.0222131
1.1620250940322876	65917003.83070719
1.1662636995315552	58566396.85347883
1.170507550239563	52668620.28676327
1.174756646156311	50597891.10008525
1.1790107488632202	54725672.37489118
1.1832695007324219	70917357.33949503
1.1875330209732056	90810596.43832265
1.191800832748413	106936905.10153702
1.1960728168487549	120513265.18286766
1.2003488540649414	132429820.78137974
1.2046287059783936	145073537.94569674
1.2089121341705322	157670049.96545488
1.2131990194320679	169547082.11740404
1.2174891233444214	181450682.84039652
1.2217823266983032	191925351.3332821
1.2260783910751343	202605001.3547826
1.230377197265625	211931926.53122717
1.2346785068511963	214431800.13476512
1.238982081413269	201111395.70334503
1.2432878017425537	179591778.81320825
1.2475954294204712	166698225.93897367
1.2519049644470215	159248315.2726557
1.256216049194336	182083992.32334274
1.2605286836624146	226164181.74517334
1.2648425102233887	248956672.40902415
1.2691574096679688	256708514.26978204
1.2734732627868652	259195465.1676676
1.2777899503707886	259161010.73722684
1.2821072340011597	255643567.7606733
1.2864248752593994	246548819.55289942
1.2907428741455078	238847318.57615444
1.2950609922409058	236359983.2796979
1.2993791103363037	234355816.43088648
1.303696870803833	230863977.3164738
1.3080145120620728	224556000.30486113
1.3123314380645752	212903348.10029092
1.3166478872299194	199077397.45781705
1.3209635019302368	181546845.01260567
1.3252781629562378	149631459.8576131
1.3295916318893433	100578354.29943034
1.3339040279388428	50524715.614084475
1.3382149934768677	20793802.303272795
1.3425244092941284	11240951.515664319
1.3468321561813354	8404857.41917067
1.3511382341384888	6603309.677460681
1.3554422855377197	5402057.903585781
1.3597444295883179	5439974.445281549
1.3640443086624146	6719634.900589569
1.3683418035507202	7751541.683726835
1.3726370334625244	8602425.237560755
1.3769296407699585	10173214.72084185
1.381219506263733	10488396.663948435
1.3855066299438477	9491674.204966312
1.3897908926010132	8831365.50271248
1.3940720558166504	8187704.360384403
1.3983501195907593	7851264.193632967
1.4026249647140503	8184592.328972003
1.4068963527679443	8095983.223748124
1.4111642837524414	7523862.804179081
1.4154287576675415	7404085.165224312
1.419689416885376	7363590.367051505
1.4239463806152344	7426490.214418257
1.4281994104385376	8342722.416757847
1.4324485063552856	9451567.73644089
1.436693549156189	10101817.103401363
1.440934419631958	10761536.427284282
1.4451709985733032	11923724.551078739
1.449403166770935	14372648.451670319
1.453631043434143	17221915.754557725
1.4578542709350586	19201848.918624718
1.4620729684829712	20130319.84718868
1.4662868976593018	20251226.637917295
1.4704961776733398	20578301.41673678
1.4747005701065063	21978381.470195748
1.4788999557495117	23837599.762948375
1.4830944538116455	25161377.03206787
1.4872838258743286	26421103.675097007
1.491468071937561	28100831.053598437
1.4956470727920532	30116080.701358885
1.4998208284378052	32491153.12423517
1.5039892196655273	35323495.30344438
1.5081522464752197	38578938.4492684
1.5123097896575928	42236534.93556586
1.5164618492126465	45419018.73392177
1.5206083059310913	48794389.21328372
1.5247491598129272	52734321.790106736
1.5288842916488647	56486644.692780755
1.5330137014389038	60851096.56858779
1.5371372699737549	65063883.27437413
1.541254997253418	68564001.50918698
1.545366883277893	73010358.79592171
1.5494728088378906	77182289.69014269
1.5535727739334106	79440044.14549538
1.5576666593551636	81812157.28015569
1.561754584312439	87007786.96553804
1.5658363103866577	93665855.54655738
1.5699119567871094	98007242.12858427
1.5739814043045044	100243886.65008879
1.5780447721481323	102274955.47250988
1.582101821899414	104430400.91051018
1.5861525535583496	105957446.45489381
1.5901970863342285	105987298.33205897
1.5942351818084717	105309023.63621703
1.5982669591903687	104078172.45615827
1.6022924184799194	100935618.06050415
1.606311559677124	96690526.37114222
1.6103241443634033	92769248.3450398
1.6143304109573364	88448808.81049015
1.6183301210403442	84061706.85747685
1.6223233938217163	81889433.99414542
1.6263102293014526	81696997.38174081
1.6302905082702637	82302727.09786887
1.634264349937439	84886817.46052629
1.638231635093689	89543598.32175319
1.6421923637390137	91963769.0124394
1.646146535873413	90562504.85920481
1.6500942707061768	89782342.28142597
1.6540353298187256	87450892.75440474
1.6579699516296387	84403093.80172855
1.661897897720337	79418578.13718008
1.6658192873001099	57071712.56874566
1.6697341203689575	39803957.041918926
1.6736423969268799	52349336.44705735
1.677544116973877	68148629.25792862
1.6814392805099487	70242592.86549328
1.6853278875350952	66127461.79359836
1.6892099380493164	60816189.98200203
1.6930854320526123	55435253.14370677
1.696954369544983	50475642.09228955
1.7008168697357178	47337477.05204536
1.7046726942062378	46981879.38861142
1.708522081375122	48664746.734292276
1.712364912033081	49387967.02777868
1.7162011861801147	48916053.00431871
1.7200311422348022	48751761.72125759
1.723854422569275	46958098.537584975
1.7276713848114014	44084068.628296174
1.731481909751892	41557981.54138387
1.7352858781814575	39216977.45789328
1.7390835285186768	37688733.397026375
1.7428747415542603	36688251.53029297
1.7466596364974976	35351614.72458724
1.7504380941390991	33511157.664848816
1.7542102336883545	30466048.176841743
1.7579760551452637	27684074.50654861
1.7617355585098267	26511284.784177102
1.7654887437820435	24804071.989639767
1.7692357301712036	22169869.61096338
1.7729763984680176	19960199.367149293
1.776710867881775	18557486.780661505
1.7804391384124756	17732839.191511102
1.7841613292694092	16238443.369980706
1.7878772020339966	14945569.452355938
1.7915871143341064	13898169.801048897
1.7952908277511597	13096063.357322576
1.7989884614944458	12871577.943887709
1.8026801347732544	11505365.39788712
1.806365728378296	10715634.718541581
1.8100452423095703	11388713.387404142
1.8137187957763672	12203486.841763053
1.817386507987976	11576499.853376867
1.8210482597351074	11253279.49189472
1.8247040510177612	12585136.835729841
1.828354001045227	12119057.347401543
1.8319982290267944	10591718.24004697
1.8356364965438843	9864225.061323538
1.8392690420150757	9786760.491819786
1.8428958654403687	10252570.337813336
1.8465168476104736	9989164.966881456
1.8501322269439697	9625977.542543728
1.8537418842315674	9322833.48687729
1.8573459386825562	7952148.7567305295
1.860944390296936	6741249.383535141
1.864537239074707	6534910.7326441165
1.8681244850158691	6734840.345773945
1.871706247329712	7448629.603784922
1.8752825260162354	9102499.586065635
1.8788533210754395	11585692.047730144
1.8824186325073242	13677129.104585348
1.8859784603118896	14314505.595110986
1.8895330429077148	14338912.128031492
1.8930821418762207	15564951.641979944
1.8966259956359863	16859043.59622643
1.9001644849777222	16070346.312403629
1.9036977291107178	15146972.933192674
1.9072256088256836	15911817.253064474
1.9107483625411987	15994680.047428863
1.9142658710479736	15271522.231374789
1.9177782535552979	15498206.907466939
1.9212853908538818	14879478.062206304
1.9247875213623047	13565907.128419938
1.9282845258712769	12491032.876371136
1.9317764043807983	11324393.410140723
1.9352631568908691	10306717.963318989
1.9387450218200684	9211616.856201481
1.942221760749817	9440018.600111749
1.9456936120986938	10669100.375715248
1.9491604566574097	11366551.851728534
1.952622413635254	11333814.26829017
1.956079363822937	10762643.160996944
1.959531545639038	10872233.098306358
1.962978720664978	11529339.650579458
1.966421127319336	12631848.303274414
1.9698586463928223	13512626.464346388
1.9732913970947266	13243028.687928436
1.9767193794250488	13390677.521675687
1.9801424741744995	14032911.580165708
1.9835609197616577	14976034.055588318
1.9869745969772339	15862000.807342036
1.990383505821228	15785880.621407272
1.9937876462936401	16902366.17535849
1.9971871376037598	18326329.97039663
2.000581979751587	19140545.08706564
2.003972291946411	20328417.30849973
2.007357597351074	20383412.111140084
2.0107386112213135	20940180.465659186
2.0141148567199707	22579815.88420443
2.017486572265625	23099704.789995477
2.0208535194396973	24865826.846494902
2.0242159366607666	27088810.23087209
2.027573823928833	26724677.501084305
2.0309269428253174	27119704.506303735
2.034275770187378	29452385.812495235
2.0376198291778564	30791566.975857772
2.040959596633911	30997358.021099918
2.044294595718384	32126761.165163822
2.0476250648498535	33986618.06143211
2.0509510040283203	34389869.50061328
2.054272413253784	34652584.88980398
2.057589530944824	36846506.12695879
2.0609018802642822	37879471.24967383
2.0642096996307373	37646214.78060622
2.0675129890441895	38563832.78091182
2.0708119869232178	39132659.089192025
2.074106216430664	39000752.795670085
2.0773961544036865	39226913.45445304
2.080681324005127	39768038.8326447
2.0839622020721436	40130250.40625501
2.087238311767578	40427999.04502648
2.090510129928589	40879297.00644749
2.0937774181365967	40983708.10071609
2.0970399379730225	40792281.81669204
2.1002981662750244	40412688.36735618
2.1035518646240234	39890119.15343375
2.1068007946014404	39432843.96181974
2.1100454330444336	39159062.23601882
2.1132853031158447	39302330.108029164
2.116520881652832	38903284.618870534
2.1197516918182373	38255781.291652486
2.1229779720306396	38297094.02367523
2.12619948387146	38125099.25880717
2.1294167041778564	37456406.55676511
2.132629156112671	37113128.03940661
2.1358368396759033	36709842.06638785
2.139039993286133	35460184.30255001
2.1422386169433594	33653472.532319024
2.145432472229004	32101818.85226623
2.1486217975616455	31439075.888493504
2.151806354522705	31223960.230255183
2.1549863815307617	30960939.382818174
2.1581614017486572	30303487.943053015
2.16133189201355	29271966.519091193
2.1644976139068604	28402867.824908786
2.167658567428589	27490101.943366893
2.1708147525787354	26584021.676148396
2.173966407775879	25574273.631617714
2.1771130561828613	24318182.70829527
2.1802549362182617	23262399.930673208
2.183391809463501	21994162.497574966
2.1865241527557373	20359368.143592622
2.1896514892578125	18534979.85944787
2.1927738189697266	16287772.93080036
2.1958916187286377	13232662.287277848
2.1990041732788086	9797064.814708127
2.2021119594573975	7362187.037590032
2.2052149772644043	6458393.617930702
2.208312749862671	6866290.469182896
2.2114057540893555	8147125.518466062
2.214493751525879	9599264.916011581
2.217576742172241	10536583.469319068
2.2206547260284424	10854426.090924175
2.2237277030944824	10678402.256308153
2.2267956733703613	9954437.61361631
2.2298583984375	9233590.575212825
2.2329163551330566	8816412.010056708
2.235969066619873	8465701.733704222
2.2390167713165283	7991216.307131507
2.2420592308044434	7336939.577957616
2.2450966835021973	6758528.218996045
2.248128890991211	6476907.1243068
2.2511560916900635	6354311.716019684
2.254178285598755	6281928.427963173
2.257194995880127	6253717.535103119
2.260206699371338	6198966.973711601
2.2632133960723877	6207871.538799967
2.266214609146118	6202083.632155512
2.2692108154296875	6087193.853479657
2.2722020149230957	5996248.053393979
2.2751877307891846	5902666.671290286
2.278168201446533	5738497.52533751
2.2811436653137207	5390531.600958957
2.284113883972168	4903389.417197641
2.287078857421875	4548582.665595013
2.290038824081421	4194729.344793749
2.2929933071136475	3905128.269903486
2.295942783355713	4002408.883558379
2.298887014389038	4498562.272982439
2.301826238632202	5099672.562505581
2.304760217666626	5911760.535682413
2.3076889514923096	7389022.52426955
2.310612440109253	8935359.501149787
2.3135311603546143	8933372.024335315
2.3164443969726562	6478399.180526375
2.319352865219116	3950464.9216684974
2.322256088256836	3259696.3206408746
2.3251543045043945	3166999.358157843
2.328047275543213	3125370.3324966356
2.330935478210449	3302146.957000219
2.3338186740875244	3516367.537719381
2.3366971015930176	3689175.484503663
2.3395702838897705	3835565.77296612
2.3424389362335205	3889912.2671299
2.3453025817871094	3814775.711269721
2.348161458969116	3819006.9141766843
2.351015567779541	4037058.0646215477
2.353865146636963	4370572.511705916
2.3567099571228027	4721161.085699584
2.3595502376556396	5239574.699757078
2.3623859882354736	5880525.953119845
2.3652172088623047	6257701.362616662
2.368043899536133	5713703.730787631
2.370866537094116	4163721.9418999087
2.3736846446990967	3340924.0411616806
2.3764986991882324	3524885.2804152034
2.3793084621429443	3470358.158653988
2.3821144104003906	3271672.6061335104
2.384916305541992	3626595.702674553
2.387714147567749	4479291.421644512
2.3905084133148193	4927505.930807415
2.393299102783203	4955494.837184685
2.3960859775543213	5221168.504822204
2.398869514465332	5752630.306013045
2.4016497135162354	6214514.90279233
2.4044265747070312	6530597.045579263
2.407200336456299	6584866.636709248
2.409970998764038	6744669.729710112
2.4127390384674072	7191803.667772682
2.415503978729248	7091198.968842289
2.418266534805298	6783515.55646005
2.4210267066955566	6882408.637512939
2.4237842559814453	6657705.107352426
2.426539897918701	6301350.090704571
2.429293394088745	6680817.627602355
2.4320452213287354	7221158.994083793
2.4347951412200928	6976256.88363802
2.4375438690185547	7075986.605861832
2.440291166305542	7725388.175001039
2.443037271499634	7547811.699259872
2.445782423019409	7110622.911002319
2.4485268592834473	7129066.66657821
2.451270818710327	7034310.326106578
2.454014539718628	7022211.994258341
2.4567582607269287	7720825.364537122
2.4595019817352295	7959182.406438192
2.4622461795806885	8149913.889689496
2.4649908542633057	8633624.179361248
2.4677364826202393	7828198.191235727
2.4704833030700684	6817909.757517717
2.473231554031372	6524617.888373488
2.4759814739227295	6745341.694109898
2.4787333011627197	7087590.902677197
2.481487512588501	7195427.743948032
