#wavelength	surface flux
0.6450077295303345	1849.8883082177297
0.6472567915916443	2977.87294336081
0.6494921445846558	4044.1374326634927
0.6517150402069092	4861.761336857469
0.6539263725280762	5759.678334529748
0.6561272740364075	6758.055590677095
0.6583186388015747	7867.023657543514
0.6605015397071838	9100.994995867904
0.6626768708229065	10444.006310928855
0.6648455858230591	11867.22506547758
0.6670085787773132	13047.306123959585
0.6691668033599854	13167.436155960888
0.6713210344314575	13698.025619755534
0.6734722256660461	16586.48351467864
0.6756211519241333	19682.762582966392
0.6777685880661011	21558.12543776133
0.6799154281616211	23081.227140882285
0.6820623278617859	24436.013983934008
0.6842101216316223	25598.378617689606
0.6863595843315125	26519.561569824604
0.688511312007904	27080.82452496775
0.6906660795211792	26969.138684825088
0.6928245425224304	26380.130758419284
0.6949873566627502	26220.694830909328
0.6971551775932312	26310.566544345525
0.6993286609649658	25742.401670567946
0.7015084028244019	24623.812325283587
0.7036949396133423	23428.28354622867
0.7058889269828796	22216.88461714456
0.7080909013748169	20905.81751246315
0.710301399230957	19474.254637331476
0.712520956993103	17910.95147207955
0.7147500514984131	16009.798119198653
0.7169892191886902	13808.732526485976
0.7192389369010925	12076.328136279628
0.7214996814727783	10901.844905704076
0.723771870136261	9675.63869895329
0.7260559797286987	8453.377078781703
0.7283523678779602	7459.143075954515
0.7306615710258484	6645.621426298253
0.7329838871955872	6019.590961490841
0.7353196740150452	5490.178936770369
0.7376693487167358	4930.182874422168
0.7400332689285278	4403.0120598487465
0.7424117922782898	3941.900035619236
0.7448052167892456	3538.3787168631848
0.7472138404846191	3182.1170593995184
0.7496379613876343	2867.5070829145184
0.7520779371261597	2593.4441955514144
0.7545340061187744	2341.58427884797
0.7570064663887024	2072.2538753100007
0.7594954967498779	1728.9930259950258
0.7620013952255249	1268.768658998117
0.7645244002342224	743.5650151039252
0.7670646905899048	389.1438527826357
0.7696225643157959	430.6574673240089
0.7721980810165405	937.5778586989533
0.7747915983200073	1735.4076279021078
0.7774031162261963	2423.2680991764646
0.7800329327583313	2988.0991348249077
0.7826811671257019	3846.7655758207197
0.7853479981422424	4922.866693067931
0.7880334854125977	6001.2109731635655
0.7907378077507019	6974.5307139772285
0.7934610247612	7636.179945039912
0.7962033748626709	9247.016159554303
0.7989648580551147	12438.561144330752
0.801745593547821	15903.222857525692
0.8045456409454346	19414.557950453072
0.8073651194572449	23230.885221054967
0.8102040886878967	27023.499337803947
0.8130625486373901	31254.880252562365
0.8159406185150146	37633.73456939345
0.8188382983207703	46414.983790492806
0.8217556476593018	55660.74858838102
0.8246926665306091	66663.53060332523
0.8276493549346924	80415.56123555922
0.8306257724761963	95129.43524477482
0.8336219191551208	111693.65778313854
0.8366377949714661	131344.56153096378
0.8396733403205872	154470.43390422678
0.8427285552024841	181774.09177198441
0.8458034992218018	211986.09701191148
0.8488980531692505	232856.14745738052
0.8520121574401855	250688.06174694884
0.8551458716392517	303046.85511307034
0.8582990765571594	371476.4213944506
0.8614717125892639	422056.26210328436
0.8646637797355652	472810.61945023196
0.8678751587867737	537213.8647747925
0.8711057901382446	610321.130187644
0.8743556141853333	682411.9268143137
0.87762451171875	732656.7294164028
0.8809124231338501	723445.6113212452
0.8842192888259888	675008.9926595365
0.8875449895858765	642462.7929174498
0.8908893465995789	597712.0445816595
0.894252359867096	558489.1988046004
0.8976338505744934	689250.3259524895
0.9010337591171265	1009823.471294446
0.9044519662857056	1350216.0747651183
0.9078882932662964	1555111.6119158352
0.9113426208496094	1616334.034578898
0.914814829826355	1633081.819767482
0.9183048605918884	1721436.656233289
0.9218124747276306	1800401.6900722515
0.925337553024292	1467577.350902536
0.9288799166679382	815684.0238269002
0.9324395060539246	480414.16377440747
0.9360161423683167	600089.8352388536
0.9396095871925354	869459.3255586918
0.943219780921936	1000198.6972245637
0.9468464851379395	964409.9113811362
0.9504896402359009	928599.166609007
0.9541489481925964	898252.1064759474
0.9578243494033813	858043.4310264086
0.9615156054496765	919302.7386736843
0.9652225375175476	1187922.725833061
0.9689450263977051	1554760.518615725
0.9726828336715698	1792404.1730265424
0.9764357805252075	1960750.0134706562
0.9802037477493286	2158137.512802304
0.983986496925354	2335795.7358715003
0.9877838492393494	2594801.8155183024
0.9915955662727356	3035532.169604842
0.9954215884208679	3609515.592430423
0.9992615580558777	4299111.568067027
1.0031154155731201	5156532.368073688
1.0069829225540161	6029940.931499697
1.0108637809753418	6760836.305477194
1.0147579908370972	7400289.97239335
1.018665075302124	7978547.567644219
1.022585153579712	8613188.373609155
1.0265177488327026	9406293.240155423
1.0304628610610962	10159925.504072824
1.0344202518463135	10841562.716663593
1.0383895635604858	11701926.596076313
1.0423706769943237	12617256.869390918
1.0463634729385376	13332982.044827923
1.0503677129745483	13968871.728621086
1.0543830394744873	14656010.358938497
1.058409333229065	15207690.449401362
1.0624464750289917	15566366.765002934
1.0664942264556885	15726328.016309416
1.0705522298812866	15703425.132385321
1.0746204853057861	15784899.699736021
1.0786986351013184	15847885.580869747
1.0827864408493042	15369650.723323368
1.086883783340454	13490697.654692713
1.0909905433654785	9999397.476472713
1.0951062440872192	6388419.709202288
1.0992310047149658	3928268.320663992
1.10336434841156	2414358.640636373
1.1075061559677124	1453170.1413825864
1.1116561889648438	876946.45604885
1.115814208984375	589773.9236347158
1.1199802160263062	541976.7492263302
1.124153733253479	615126.3259173026
1.1283347606658936	671356.4569251098
1.1325229406356812	596826.26373766
1.1367181539535522	672685.9499675286
1.1409201622009277	924008.4073910292
1.145128846168518	970857.4019050145
1.1493438482284546	844632.1173934068
1.1535650491714478	682470.324821038
1.1577922105789185	578421.9280391738
1.1620250940322876	567079.1594650617
1.1662636995315552	643470.8766474513
1.170507550239563	921394.2968566103
1.174756646156311	1350740.6063989454
1.1790107488632202	1922859.0706226577
1.1832695007324219	2665688.712461782
1.1875330209732056	3428224.9520131834
1.191800832748413	4368326.959463633
1.1960728168487549	5586553.182984797
1.2003488540649414	6828184.709107859
1.2046287059783936	8110600.810954174
1.2089121341705322	9266098.288126417
1.2131990194320679	10258906.311300928
1.2174891233444214	11372560.8325174
1.2217823266983032	12564071.106524464
1.2260783910751343	13962103.708668461
1.230377197265625	15560472.502526822
1.2346785068511963	17042156.011259586
1.238982081413269	18101878.10342563
1.2432878017425537	18845841.732894413
1.2475954294204712	19434154.330837175
1.2519049644470215	19689440.64676098
1.256216049194336	21286176.01898117
1.2605286836624146	23574846.652471337
1.2648425102233887	23935514.501174457
1.2691574096679688	22823798.424387585
1.2734732627868652	21142274.861406457
1.2777899503707886	19284657.5291213
1.2821072340011597	17088572.006603874
1.2864248752593994	14548644.927100897
1.2907428741455078	12667814.33496215
1.2950609922409058	11857305.476881042
1.2993791103363037	11245168.906973282
1.303696870803833	10366197.033601232
1.3080145120620728	9435818.039035195
1.3123314380645752	8159660.883821573
1.3166478872299194	7063757.278060294
1.3209635019302368	6494771.8979191845
1.3252781629562378	5287094.310585088
1.3295916318893433	3164423.269145871
1.3339040279388428	1279303.1459141748
1.3382149934768677	399589.6136265086
1.3425244092941284	151044.8548845267
1.3468321561813354	69037.48457773843
1.3511382341384888	37878.8958946291
1.3554422855377197	21475.80565998103
1.3597444295883179	16922.9787367536
1.3640443086624146	23206.53508767161
1.3683418035507202	30382.685731897145
1.3726370334625244	42644.10243170133
1.3769296407699585	61134.11528908553
1.381219506263733	58921.18371345869
1.3855066299438477	44442.20822025661
1.3897908926010132	42348.071532600115
1.3940720558166504	43522.5047121578
1.3983501195907593	43801.20365318483
1.4026249647140503	47260.960456742665
1.4068963527679443	49308.271679964986
1.4111642837524414	51306.04718885523
1.4154287576675415	55783.55999683544
1.419689416885376	56810.08176055638
1.4239463806152344	66398.50328212287
1.4281994104385376	100665.92900991064
1.4324485063552856	129330.6743926556
1.436693549156189	136363.17050747937
1.440934419631958	155633.55985395343
1.4451709985733032	205532.76304777153
1.449403166770935	297244.9170472038
1.453631043434143	396508.8283144105
1.4578542709350586	460317.0895063931
1.4620729684829712	462300.7456709591
1.4662868976593018	404745.31479221646
1.4704961776733398	328412.5290605236
1.4747005701065063	297418.19520510064
1.4788999557495117	333011.18545858056
1.4830944538116455	372915.61086530524
1.4872838258743286	395762.2399739968
1.491468071937561	421791.5152693454
1.4956470727920532	489177.28610057494
1.4998208284378052	607393.6120489275
1.5039892196655273	681607.8754904658
1.5081522464752197	666053.3731360278
1.5123097896575928	623312.1556962506
1.5164618492126465	683738.2765975997
1.5206083059310913	928801.3783370138
1.5247491598129272	1217730.6265995197
1.5288842916488647	1473977.8922619026
1.5330137014389038	1735891.9687449038
1.5371372699737549	1958397.389661244
1.541254997253418	2175912.899785516
1.545366883277893	2472155.6743651377
1.5494728088378906	2783925.849131759
1.5535727739334106	3114466.381219084
1.5576666593551636	3651418.467419878
1.561754584312439	4550805.42846819
1.5658363103866577	5593092.344314222
1.5699119567871094	6216655.142711929
1.5739814043045044	6463941.811672459
1.5780447721481323	6826840.169835679
1.582101821899414	7212071.024882733
1.5861525535583496	7286359.720868234
1.5901970863342285	6997312.958265968
1.5942351818084717	6527497.659982556
1.5982669591903687	5946989.964088267
1.6022924184799194	5147310.634509942
1.606311559677124	4284633.836318618
1.6103241443634033	3535911.03541023
1.6143304109573364	2750892.777515144
1.6183301210403442	2044780.9622053355
1.6223233938217163	1723942.7222245606
1.6263102293014526	1683306.7798182743
1.6302905082702637	1765260.6874458757
1.634264349937439	2047148.1507298893
1.638231635093689	2485564.9397297394
1.6421923637390137	2634000.034349783
1.646146535873413	2294652.4787703725
1.6500942707061768	2177873.497129761
1.6540353298187256	2228100.3471404347
1.6579699516296387	2137173.024975192
1.661897897720337	2117168.007229562
1.6658192873001099	1406414.790299934
1.6697341203689575	572412.6523119686
1.6736423969268799	674414.4361784414
1.677544116973877	962864.5361426463
1.6814392805099487	928005.2103108334
1.6853278875350952	811157.7431193425
1.6892099380493164	686637.6365604487
1.6930854320526123	524988.8066222561
1.696954369544983	394997.7798850844
1.7008168697357178	321028.61328171357
1.7046726942062378	337120.55691561423
1.708522081375122	479854.41474121157
1.712364912033081	654720.9250007061
1.7162011861801147	832160.9061817299
1.7200311422348022	959118.8738091775
1.723854422569275	895261.5061481651
1.7276713848114014	804342.6084013127
1.731481909751892	791698.4853557801
1.7352858781814575	815776.9556506048
1.7390835285186768	919041.3953082247
1.7428747415542603	1045401.1232907498
1.7466596364974976	1118021.5072029107
1.7504380941390991	1097669.3513563026
1.7542102336883545	937354.6877137137
1.7579760551452637	758035.9644729203
1.7617355585098267	678128.1192182344
1.7654887437820435	628515.0160191798
1.7692357301712036	556060.4990423401
1.7729763984680176	481514.9980387903
1.776710867881775	467637.59979798255
1.7804391384124756	492300.7533645599
1.7841613292694092	444683.40409122815
1.7878772020339966	368311.43808274396
1.7915871143341064	296623.38616022834
1.7952908277511597	261735.93028942772
1.7989884614944458	281610.73063443135
1.8026801347732544	234872.32769738339
1.806365728378296	189427.47142903242
1.8100452423095703	201997.62383820894
1.8137187957763672	208103.25087528804
1.817386507987976	189180.34279306905
1.8210482597351074	213028.15168977922
1.8247040510177612	265936.0961557465
1.828354001045227	214216.46650329418
1.8319982290267944	135828.37913922517
1.8356364965438843	108469.33278377088
1.8392690420150757	111710.9182531938
1.8428958654403687	165246.63147438917
1.8465168476104736	193388.06292274682
1.8501322269439697	184534.43423693397
1.8537418842315674	180351.5837748287
1.8573459386825562	151516.97509905393
1.860944390296936	115868.90846574566
1.864537239074707	92027.1179318151
1.8681244850158691	71113.50393063671
1.871706247329712	72588.39091470621
1.8752825260162354	132123.6608432467
1.8788533210754395	248949.19943035432
1.8824186325073242	327259.5062466316
1.8859784603118896	317644.7027010236
1.8895330429077148	296437.18198470195
1.8930821418762207	344119.68937525473
1.8966259956359863	376121.10269369464
1.9001644849777222	281734.7569917502
1.9036977291107178	198765.9627971753
1.9072256088256836	204758.25745667517
1.9107483625411987	191469.75564811908
1.9142658710479736	157768.2067017584
1.9177782535552979	160239.07454983363
1.9212853908538818	157533.16048371675
1.9247875213623047	131896.41729765187
1.9282845258712769	106992.0030979332
1.9317764043807983	91247.68525456489
1.9352631568908691	82921.08548201942
1.9387450218200684	75746.42283344982
1.942221760749817	87214.70092060097
1.9456936120986938	105170.6839050734
1.9491604566574097	107200.78202351146
1.952622413635254	103595.53526603003
1.956079363822937	113955.04708225469
1.959531545639038	139260.470163585
1.962978720664978	156102.35718975283
1.966421127319336	168917.46549759136
1.9698586463928223	173683.866592463
1.9732913970947266	180218.1185233475
1.9767193794250488	216482.13808565715
1.9801424741744995	231309.66667134242
1.9835609197616577	237900.88761148517
1.9869745969772339	277624.9442994549
1.990383505821228	316239.61878077645
1.9937876462936401	386585.649990003
1.9971871376037598	477427.5181629719
2.000581979751587	526017.0958226994
2.003972291946411	529757.6551197834
2.007357597351074	536301.4375373801
2.0107386112213135	569178.114927118
2.0141148567199707	557816.4594953193
2.017486572265625	494014.7686787838
2.0208535194396973	516403.43036420614
2.0242159366607666	628310.4379961597
2.027573823928833	689628.8885160364
2.0309269428253174	743936.7050094075
2.034275770187378	830798.1100093212
2.0376198291778564	871431.3556378664
2.040959596633911	893340.1024281288
2.044294595718384	1008512.7379928522
2.0476250648498535	1158160.786408372
2.0509510040283203	1214062.7504937828
2.054272413253784	1265333.373151293
2.057589530944824	1391451.1902556089
2.0609018802642822	1491579.1616038426
2.0642096996307373	1557561.0018053113
2.0675129890441895	1639031.8891307376
2.0708119869232178	1712667.8535307196
2.074106216430664	1775799.4405285956
2.0773961544036865	1821127.0906013765
2.080681324005127	1864817.1887880766
2.0839622020721436	1919772.1064808734
2.087238311767578	1965299.5913839524
2.090510129928589	2006192.2097174395
2.0937774181365967	2013670.4821099844
2.0970399379730225	1984831.2378938543
2.1002981662750244	1939439.8160692046
2.1035518646240234	1903713.847495206
2.1068007946014404	1872918.7674546002
2.1100454330444336	1824356.4309968038
2.1132853031158447	1797819.7555879802
2.116520881652832	1743662.7205616701
2.1197516918182373	1669881.6662151008
2.1229779720306396	1631186.4894609752
2.12619948387146	1591989.794125134
2.1294167041778564	1547717.1664369137
2.132629156112671	1518149.681375842
2.1358368396759033	1480007.1826969858
2.139039993286133	1392211.079029789
2.1422386169433594	1230802.3904370593
2.145432472229004	1074211.514506838
2.1486217975616455	1013880.9613914277
2.151806354522705	984782.0027867228
2.1549863815307617	929334.179004108
2.1581614017486572	859635.4980695362
2.16133189201355	769920.3658869482
2.1644976139068604	693726.0709237506
2.167658567428589	637289.2676777359
2.1708147525787354	600062.0368773558
2.173966407775879	584130.8641805917
2.1771130561828613	549271.9070766075
2.1802549362182617	506081.0661757647
2.183391809463501	461898.9589417556
2.1865241527557373	418301.26396638533
2.1896514892578125	354004.30898572685
2.1927738189697266	251950.23853005498
2.1958916187286377	152388.13711791736
2.1990041732788086	80017.96564987094
2.2021119594573975	45138.70113775001
2.2052149772644043	50135.82076490527
2.208312749862671	76594.4322814213
2.2114057540893555	102485.16210162171
2.214493751525879	118303.5215602913
2.217576742172241	127607.61924184884
2.2206547260284424	124557.09937621394
2.2237277030944824	111694.72148411848
2.2267956733703613	96669.89124909476
2.2298583984375	80223.69880381854
2.2329163551330566	73915.35714446602
2.235969066619873	73080.2026948922
2.2390167713165283	62442.63411873196
2.2420592308044434	52370.95865031621
2.2450966835021973	46697.88123158162
2.248128890991211	39118.63396461291
2.2511560916900635	34233.62506171405
2.254178285598755	31811.170895631094
2.257194995880127	30590.24973530271
2.260206699371338	31548.352744216332
2.2632133960723877	33070.826279520144
2.266214609146118	35304.9358528701
2.2692108154296875	37649.02302939756
2.2722020149230957	39548.689921787765
2.2751877307891846	38835.52479810874
2.278168201446533	38154.07501148848
2.2811436653137207	36923.9988046955
2.284113883972168	30536.083244588233
2.287078857421875	26111.40351726612
2.290038824081421	24470.860276315176
2.2929933071136475	22384.99003308477
2.295942783355713	22761.68142779517
2.298887014389038	26462.473857889847
2.301826238632202	31270.790029353728
2.304760217666626	40792.627675749725
2.3076889514923096	66992.51380385211
2.310612440109253	107032.73190256802
2.3135311603546143	115718.91893035643
2.3164443969726562	67941.90571206408
2.319352865219116	22715.984879640022
2.322256088256836	15959.511801362758
2.3251543045043945	19819.618351844645
2.328047275543213	20948.682850641653
2.330935478210449	22730.406000839273
2.3338186740875244	25594.43917407745
2.3366971015930176	27607.590249523957
2.3395702838897705	28677.675929761634
2.3424389362335205	29305.072133406284
2.3453025817871094	27210.91787017665
2.348161458969116	26037.42917625981
2.351015567779541	29427.58007874164
2.353865146636963	33989.10545528643
2.3567099571228027	40163.1308773387
2.3595502376556396	51813.42675049988
2.3623859882354736	63970.85052362637
2.3652172088623047	65958.77981157997
2.368043899536133	52614.082742779465
2.370866537094116	30681.460337408887
2.3736846446990967	21386.541935896134
2.3764986991882324	28465.73883746066
2.3793084621429443	34525.93882262177
2.3821144104003906	34137.885633083984
2.384916305541992	39650.1992102849
2.387714147567749	53837.355348519945
2.3905084133148193	60460.49762640267
2.393299102783203	57664.2535993311
2.3960859775543213	58358.69971412426
2.398869514465332	69896.96914924745
2.4016497135162354	86186.45607502249
2.4044265747070312	96847.35530541344
2.407200336456299	100076.58879138553
2.409970998764038	116382.00932771308
2.4127390384674072	140384.17767628407
2.415503978729248	131136.33820781452
2.418266534805298	107961.80951466871
2.4210267066955566	102773.87504501184
2.4237842559814453	94464.51328098316
2.426539897918701	90841.56162774202
2.429293394088745	116471.34640599732
2.4320452213287354	139929.93286688472
2.4347951412200928	137776.6199421918
2.4375438690185547	156351.63195969284
2.440291166305542	194564.17726017386
2.443037271499634	199454.74892053776
2.445782423019409	182316.87644949363
2.4485268592834473	176179.6849025424
2.451270818710327	180243.99902468137
2.454014539718628	196041.25113480215
2.4567582607269287	225748.97488286378
2.4595019817352295	246797.74386776256
2.4622461795806885	272517.3835604913
2.4649908542633057	306138.7451423503
2.4677364826202393	288986.14282193757
2.4704833030700684	247748.459306175
2.473231554031372	233375.32227356525
2.4759814739227295	244372.97745169463
2.4787333011627197	255622.2436024616
