#wavelength	surface flux
0.6450077295303345	25612.443018626866
0.6472567915916443	41200.996684720296
0.6494921445846558	55796.3669160091
0.6517150402069092	66880.80178754508
0.6539263725280762	79070.4416901326
0.6561272740364075	92686.12964560522
0.6583186388015747	107769.73304305132
0.6605015397071838	124300.25722549384
0.6626768708229065	141957.41607378965
0.6648455858230591	159505.11702073086
0.6670085787773132	168753.7063377571
0.6691668033599854	155419.41158003276
0.6713210344314575	152551.30787941546
0.6734722256660461	201138.7523206159
0.6756211519241333	259803.38801349438
0.6777685880661011	295340.55195529864
0.6799154281616211	321968.21688395774
0.6820623278617859	345629.3476495243
0.6842101216316223	366829.75313871563
0.6863595843315125	385157.24868144
0.688511312007904	399464.7312268189
0.6906660795211792	407423.27330859745
0.6928245425224304	410304.81770664675
0.6949873566627502	414495.6679524997
0.6971551775932312	418705.08122886077
0.6993286609649658	416011.650638491
0.7015084028244019	406836.19688662275
0.7036949396133423	394389.4613494233
0.7058889269828796	379305.6656865692
0.7080909013748169	361511.85992887046
0.710301399230957	341203.4195778576
0.712520956993103	318562.96989543276
0.7147500514984131	292321.6006674188
0.7169892191886902	263351.0109639736
0.7192389369010925	237614.09666655085
0.7214996814727783	215278.2091475084
0.723771870136261	191989.02208742712
0.7260559797286987	168669.5202444039
0.7283523678779602	147279.11838416266
0.7306615710258484	127643.80574623821
0.7329838871955872	109797.21824838602
0.7353196740150452	93448.39389836075
0.7376693487167358	78007.52971960731
0.7400332689285278	63918.960681836106
0.7424117922782898	51447.15584545736
0.7448052167892456	40612.82971421095
0.7472138404846191	31374.04593823386
0.7496379613876343	23666.030314332405
0.7520779371261597	17444.13815466522
0.7545340061187744	12596.522081670504
0.7570064663887024	8940.689199701466
0.7594954967498779	6238.7110823177045
0.7620013952255249	4159.084213115818
0.7645244002342224	2400.242492105379
0.7670646905899048	1278.2821017144436
0.7696225643157959	1399.888205661858
0.7721980810165405	2980.475399237
0.7747915983200073	5615.431238689058
0.7774031162261963	8521.87368731537
0.7800329327583313	12560.640076027155
0.7826811671257019	20237.34921400657
0.7853479981422424	31589.04407513097
0.7880334854125977	45718.93234461444
0.7907378077507019	59844.70121503035
0.7934610247612	70642.14833687033
0.7962033748626709	96069.63099243384
0.7989648580551147	145230.09336411345
0.801745593547821	199369.7915885699
0.8045456409454346	254618.04787190963
0.8073651194572449	316527.33691040095
0.8102040886878967	384511.4172887167
0.8130625486373901	461803.2511829387
0.8159406185150146	555454.9952220165
0.8188382983207703	666563.1957425931
0.8217556476593018	793903.4096836016
0.8246926665306091	944031.8413574488
0.8276493549346924	1114039.2027857252
0.8306257724761963	1295402.6235140008
0.8336219191551208	1495136.8214591856
0.8366377949714661	1719354.1893732522
0.8396733403205872	1969908.2182536183
0.8427285552024841	2250228.118779057
0.8458034992218018	2535347.3231602907
0.8488980531692505	2665935.919794731
0.8520121574401855	2743613.037805221
0.8551458716392517	3268498.6844700854
0.8582990765571594	3908286.444592624
0.8614717125892639	4046210.880480186
0.8646637797355652	4107915.2953499625
0.8678751587867737	4490342.045546015
0.8711057901382446	4954275.109556125
0.8743556141853333	5443907.542323332
0.87762451171875	5983786.619116845
0.8809124231338501	6390759.559915612
0.8842192888259888	6722867.953005674
0.8875449895858765	7052039.790447994
0.8908893465995789	6917750.698243192
0.894252359867096	6645845.164181921
0.8976338505744934	7836351.763448882
0.9010337591171265	10153623.25745761
0.9044519662857056	12152656.428904967
0.9078882932662964	13537029.258372769
0.9113426208496094	14466917.189766005
0.914814829826355	15261233.131097453
0.9183048605918884	16286536.397700151
0.9218124747276306	17049362.978111308
0.925337553024292	15258902.17885539
0.9288799166679382	11358486.629796091
0.9324395060539246	9713978.840786548
0.9360161423683167	11503425.921983805
0.9396095871925354	14316995.415516794
0.943219780921936	15909173.140656514
0.9468464851379395	16131172.409835845
0.9504896402359009	16284201.59818898
0.9541489481925964	16342684.86435631
0.9578243494033813	16137231.500600584
0.9615156054496765	16672135.220693676
0.9652225375175476	18709594.505705792
0.9689450263977051	21443298.930149965
0.9726828336715698	23612501.4406664
0.9764357805252075	25574659.403530516
0.9802037477493286	27748887.80801379
0.983986496925354	29820552.401716087
0.9877838492393494	31553419.44608323
0.9915955662727356	32422687.144652694
0.9954215884208679	31715720.51319911
0.9992615580558777	29022278.75152537
1.0031154155731201	27821304.205536064
1.0069829225540161	30229917.797408197
1.0108637809753418	34129605.32655064
1.0147579908370972	38563775.19924544
1.018665075302124	43135379.048777595
1.022585153579712	47155873.12647771
1.0265177488327026	50421225.796389386
1.0304628610610962	54070166.81759694
1.0344202518463135	58673660.41243151
1.0383895635604858	63193942.624905676
1.0423706769943237	66848942.08557502
1.0463634729385376	69655520.53539205
1.0503677129745483	71523184.31057632
1.0543830394744873	73106401.96692927
1.058409333229065	75279506.67026876
1.0624464750289917	78222978.89395958
1.0664942264556885	81634056.45465544
1.0705522298812866	85217960.52438115
1.0746204853057861	89192045.68609026
1.0786986351013184	92884779.12211968
1.0827864408493042	94552619.03094633
1.086883783340454	90199629.16078304
1.0909905433654785	76899621.0378101
1.0951062440872192	59438088.7286626
1.0992310047149658	44635828.9474393
1.10336434841156	33285337.96802603
1.1075061559677124	24419163.816603262
1.1116561889648438	18168549.81505449
1.115814208984375	15261910.154951157
1.1199802160263062	15494129.400481401
1.124153733253479	17641019.924466062
1.1283347606658936	18668468.254505984
1.1325229406356812	15768433.327179113
1.1367181539535522	14291959.244928056
1.1409201622009277	17016225.980673086
1.145128846168518	19970220.570289604
1.1493438482284546	21276636.476666734
1.1535650491714478	20189376.35554773
1.1577922105789185	18700317.52021001
1.1620250940322876	18019242.855896518
1.1662636995315552	17205891.479780458
1.170507550239563	17646274.512862135
1.174756646156311	19191669.324466985
1.1790107488632202	22502981.670599658
1.1832695007324219	29404167.183610663
1.1875330209732056	37271270.205742136
1.191800832748413	44932591.79126399
1.1960728168487549	53004547.769834705
1.2003488540649414	60498693.514806755
1.2046287059783936	68042146.69110034
1.2089121341705322	75304134.03854714
1.2131990194320679	82001774.0188925
1.2174891233444214	88897347.81694022
1.2217823266983032	95317988.56361362
1.2260783910751343	101849478.15927333
1.230377197265625	108153776.4762924
1.2346785068511963	111825937.5715954
1.238982081413269	108348936.83414702
1.2432878017425537	100591187.68469952
1.2475954294204712	95718596.2010883
1.2519049644470215	92510787.72354881
1.256216049194336	104224219.10005388
1.2605286836624146	125655672.39308122
1.2648425102233887	134869741.55949533
1.2691574096679688	135813513.2851802
1.2734732627868652	134320851.91215914
1.2777899503707886	131797107.42323734
1.2821072340011597	126957998.35945217
1.2864248752593994	118908494.35131088
1.2907428741455078	112359227.97102462
1.2950609922409058	109537281.93838918
1.2993791103363037	106920225.97261095
1.303696870803833	103403107.25000195
1.3080145120620728	98811193.07755189
1.3123314380645752	90925370.83150819
1.3166478872299194	82490020.05770399
1.3209635019302368	74211416.1479737
1.3252781629562378	59676088.34949452
1.3295916318893433	37815071.9503175
1.3339040279388428	17446016.180121012
1.3382149934768677	6572611.024327052
1.3425244092941284	3227352.702005008
1.3468321561813354	2151773.4385736655
1.3511382341384888	1547937.1887276685
1.3554422855377197	1163161.0417881694
1.3597444295883179	1117690.3367305482
1.3640443086624146	1426703.5594269314
1.3683418035507202	1696275.1426006304
1.3726370334625244	1951694.5545231693
1.3769296407699585	2409460.43179695
1.381219506263733	2468705.822354365
1.3855066299438477	2171872.194304654
1.3897908926010132	2042493.7340674032
1.3940720558166504	1933443.7712261856
1.3983501195907593	1862655.7394712786
1.4026249647140503	1947671.0711015656
1.4068963527679443	1938221.941037016
1.4111642837524414	1841082.6501603941
1.4154287576675415	1860731.8170250836
1.419689416885376	1858868.1477792407
1.4239463806152344	1920548.0878964912
1.4281994104385376	2303470.7678542836
1.4324485063552856	2714354.6186295217
1.436693549156189	2922899.660729524
1.440934419631958	3165823.064691015
1.4451709985733032	3646736.681633603
1.449403166770935	4650046.989178791
1.453631043434143	5813750.410287288
1.4578542709350586	6609225.589302509
1.4620729684829712	6948650.640495379
1.4662868976593018	6926229.835138275
1.4704961776733398	6904671.256752854
1.4747005701065063	7345085.307931055
1.4788999557495117	8086024.796621512
1.4830944538116455	8604014.54027257
1.4872838258743286	9102139.064762706
1.491468071937561	9846911.672630006
1.4956470727920532	10796555.634890418
1.4998208284378052	11919154.979633559
1.5039892196655273	13132171.155073699
1.5081522464752197	14468938.156026674
1.5123097896575928	15957330.172146814
1.5164618492126465	17326066.99962326
1.5206083059310913	19036115.445467606
1.5247491598129272	21151326.256376185
1.5288842916488647	23197670.046240743
1.5330137014389038	25452683.591979824
1.5371372699737549	27547909.422261234
1.541254997253418	29343612.194641627
1.545366883277893	31747860.282083362
1.5494728088378906	34010307.51218097
1.5535727739334106	35286695.7266944
1.5576666593551636	36962667.19356527
1.561754584312439	40425263.81467596
1.5658363103866577	44487721.60225689
1.5699119567871094	46831991.09798968
1.5739814043045044	47853272.54565012
1.5780447721481323	49083701.368487224
1.582101821899414	50343951.06840394
1.5861525535583496	50755546.80678782
1.5901970863342285	49974209.0942403
1.5942351818084717	48688327.94283926
1.5982669591903687	47059755.32591709
1.6022924184799194	44195341.129982226
1.606311559677124	40664659.16478673
1.6103241443634033	37446408.95835218
1.6143304109573364	33944491.97396186
1.6183301210403442	30619676.574479356
1.6223233938217163	29186074.098456793
1.6263102293014526	29292017.06896005
1.6302905082702637	29942253.732406124
1.634264349937439	31942670.449025854
1.638231635093689	35382221.29420704
1.6421923637390137	36962369.87585782
1.646146535873413	35300809.505637825
1.6500942707061768	34550865.80969019
1.6540353298187256	33500079.592288155
1.6579699516296387	31656215.347544372
1.661897897720337	30159458.179080784
1.6658192873001099	20545417.494156502
1.6697341203689575	11409334.450495528
1.6736423969268799	15510642.92075823
1.677544116973877	21982192.731255382
1.6814392805099487	22643040.361634646
1.6853278875350952	20711576.779411674
1.6892099380493164	18425585.098435387
1.6930854320526123	15985881.568972787
1.696954369544983	13793651.329163354
1.7008168697357178	12462035.032343853
1.7046726942062378	12581177.242390305
1.708522081375122	14148503.694732264
1.712364912033081	15498942.228075573
1.7162011861801147	16209527.868917031
1.7200311422348022	16737968.599872217
1.723854422569275	16036139.353471864
1.7276713848114014	14900169.986879764
1.731481909751892	14132233.234654209
1.7352858781814575	13518832.125783052
1.7390835285186768	13450119.261513617
1.7428747415542603	13626129.074921392
1.7466596364974976	13504069.240866078
1.7504380941390991	12928010.896824438
1.7542102336883545	11562468.01410356
1.7579760551452637	10228728.54283205
1.7617355585098267	9661092.265364237
1.7654887437820435	8979158.648249116
1.7692357301712036	7939010.014073605
1.7729763984680176	7049672.202135494
1.776710867881775	6601743.524316382
1.7804391384124756	6443777.42514081
1.7841613292694092	5861899.426223284
1.7878772020339966	5238313.878224928
1.7915871143341064	4668179.80532366
1.7952908277511597	4309420.4849887015
1.7989884614944458	4351063.721476239
1.8026801347732544	3822950.80509187
1.806365728378296	3445594.900925213
1.8100452423095703	3712125.471492794
1.8137187957763672	4009483.6215509344
1.817386507987976	3765601.5815789015
1.8210482597351074	3749919.3087596465
1.8247040510177612	4326095.620547134
1.828354001045227	3994247.9367724075
1.8319982290267944	3249526.953764453
1.8356364965438843	2911182.220344954
1.8392690420150757	2897210.798033781
1.8428958654403687	3259987.0010156026
1.8465168476104736	3307967.038743959
1.8501322269439697	3178245.8833349333
1.8537418842315674	3097863.08062911
1.8573459386825562	2613568.863777526
1.860944390296936	2122890.843893925
1.864537239074707	1948093.9731381997
1.8681244850158691	1900868.7962209813
1.871706247329712	2125165.162268003
1.8752825260162354	2872010.8846610985
1.8788533210754395	4057283.452061915
1.8824186325073242	4972951.328738695
1.8859784603118896	5148803.674203304
1.8895330429077148	5121290.179378867
1.8930821418762207	5728812.787655539
1.8966259956359863	6254164.738689333
1.9001644849777222	5625523.213669902
1.9036977291107178	5061163.932465592
1.9072256088256836	5412102.043087356
1.9107483625411987	5378487.731219592
1.9142658710479736	4979093.58429197
1.9177782535552979	5134248.57470363
1.9212853908538818	4957457.8316846
1.9247875213623047	4357952.000426902
1.9282845258712769	3826516.262278576
1.9317764043807983	3353220.6360281273
1.9352631568908691	3020307.0578003633
1.9387450218200684	2708485.4327776576
1.942221760749817	2880153.543668898
1.9456936120986938	3329476.682563059
1.9491604566574097	3559787.298951203
1.952622413635254	3567632.752268054
1.956079363822937	3416443.7756592883
1.959531545639038	3534904.6888492377
1.962978720664978	3846956.7709107804
1.966421127319336	4302890.512142514
1.9698586463928223	4648723.2476518275
1.9732913970947266	4620755.7055738745
1.9767193794250488	4820868.451697029
1.9801424741744995	5127634.729631306
1.9835609197616577	5530769.139016188
1.9869745969772339	5978170.386343719
1.990383505821228	6102930.066305242
1.9937876462936401	6773115.982009887
1.9971871376037598	7532405.954537568
2.000581979751587	7954670.465785816
2.003972291946411	8422241.583224006
2.007357597351074	8460550.457108542
2.0107386112213135	8856099.895964673
2.0141148567199707	9552307.334392967
2.017486572265625	9643422.735853855
2.0208535194396973	10552637.500186114
2.0242159366607666	11831141.887204671
2.027573823928833	11792254.961849047
2.0309269428253174	12018797.375208868
2.034275770187378	13226920.474745627
2.0376198291778564	13930010.624247288
2.040959596633911	14020696.450238612
2.044294595718384	14788372.148812033
2.0476250648498535	16010608.40557941
2.0509510040283203	16233965.59722444
2.054272413253784	16341025.841529984
2.057589530944824	17570434.16888451
2.0609018802642822	18212553.08222553
2.0642096996307373	18161090.841614667
2.0675129890441895	18618624.072627384
2.0708119869232178	18923740.83095149
2.074106216430664	18930645.734282684
2.0773961544036865	19017153.797162775
2.080681324005127	19258026.558411755
2.0839622020721436	19454249.82278232
2.087238311767578	19593396.877492625
2.090510129928589	19799173.91386797
2.0937774181365967	19784339.243208747
2.0970399379730225	19574482.147999167
2.1002981662750244	19216556.092096206
2.1035518646240234	18799725.85408393
2.1068007946014404	18448960.900020603
2.1100454330444336	18162828.379704263
2.1132853031158447	18114559.158624925
2.116520881652832	17775841.347066052
2.1197516918182373	17290525.54620797
2.1229779720306396	17198645.04106951
2.12619948387146	17035641.275264896
2.1294167041778564	16644681.073932277
2.132629156112671	16409812.129012382
2.1358368396759033	16120196.481498871
2.139039993286133	15332240.343956707
2.1422386169433594	14087501.808283554
2.145432472229004	12966442.468065552
2.1486217975616455	12570851.054516511
2.151806354522705	12496930.037552116
2.1549863815307617	12280080.154954882
2.1581614017486572	11823123.832413135
2.16133189201355	11163194.185656533
2.1644976139068604	10603977.730178341
2.167658567428589	10088361.635203749
2.1708147525787354	9681601.38840519
2.173966407775879	9284978.08713582
2.1771130561828613	8719360.028926566
2.1802549362182617	8220467.107743341
2.183391809463501	7632897.480417984
2.1865241527557373	6906899.476059095
2.1896514892578125	6060881.600295809
2.1927738189697266	4983881.182852468
2.1958916187286377	3688624.9874965497
2.1990041732788086	2413390.6748829605
2.2021119594573975	1647251.6103994013
2.2052149772644043	1493967.2172543975
2.208312749862671	1732023.8174934508
2.2114057540893555	2172555.53256205
2.214493751525879	2619923.279978532
2.217576742172241	2907862.36851463
2.2206547260284424	2988485.3506002147
2.2237277030944824	2880367.359438851
2.2267956733703613	2618277.0253477367
2.2298583984375	2365214.5189728728
2.2329163551330566	2221612.666195337
2.235969066619873	2117690.041331671
2.2390167713165283	1947997.916452877
2.2420592308044434	1742780.0043227097
2.2450966835021973	1576966.8239332812
2.248128890991211	1465773.6210815716
2.2511560916900635	1409076.741253668
2.254178285598755	1381116.5917793855
2.257194995880127	1370617.6482080778
2.260206699371338	1368741.0982509016
2.2632133960723877	1391987.2063507966
2.266214609146118	1414881.8387466474
2.2692108154296875	1404684.5223365363
2.2722020149230957	1391930.1019296625
2.2751877307891846	1362922.8626346225
2.278168201446533	1330310.554029746
2.2811436653137207	1257637.67837784
2.284113883972168	1115440.3021561126
2.287078857421875	1007283.5858982756
2.290038824081421	921833.9664450914
2.2929933071136475	854526.1617116553
2.295942783355713	878475.8730829051
2.298887014389038	1006014.7853491333
2.301826238632202	1161532.267679954
2.304760217666626	1392891.509327762
2.3076889514923096	1883388.3285024622
2.310612440109253	2490636.7622988313
2.3135311603546143	2590042.2579299863
2.3164443969726562	1771581.4030633199
2.319352865219116	905541.3268206166
2.322256088256836	699194.3363773281
2.3251543045043945	709508.6926401732
2.328047275543213	716897.8886473991
2.330935478210449	776604.6112560941
2.3338186740875244	844117.6384905446
2.3366971015930176	896638.7869228148
2.3395702838897705	937326.1182084772
2.3424389362335205	943992.7651643652
2.3453025817871094	901994.6333872317
2.348161458969116	891120.4227780519
2.351015567779541	956421.8242439546
2.353865146636963	1046282.1603859593
2.3567099571228027	1150056.8634545126
2.3595502376556396	1326513.5398452848
2.3623859882354736	1533833.6405950498
2.3652172088623047	1641146.8333603458
2.368043899536133	1472064.141053615
2.370866537094116	1015457.8123729281
2.3736846446990967	769798.3150075051
2.3764986991882324	836388.1117197896
2.3793084621429443	854319.8876214816
2.3821144104003906	819512.4843598212
2.384916305541992	939787.0846308545
2.387714147567749	1204284.3834341841
2.3905084133148193	1332508.9567907155
2.393299102783203	1324639.9477599328
2.3960859775543213	1395050.5904159674
2.398869514465332	1573345.5095508865
2.4016497135162354	1761054.2389300016
2.4044265747070312	1897669.5864026486
2.407200336456299	1931072.8270056618
2.409970998764038	2019124.7776338104
2.4127390384674072	2207452.1493029445
2.415503978729248	2159721.346457557
2.418266534805298	2018339.8412336493
2.4210267066955566	2028663.711400278
2.4237842559814453	1923230.0638632795
2.426539897918701	1813872.321548385
2.429293394088745	2016765.221526791
2.4320452213287354	2256628.7807189967
2.4347951412200928	2195807.169019187
2.4375438690185547	2275091.443667848
2.440291166305542	2562689.7811196866
2.443037271499634	2547495.527238019
2.445782423019409	2402534.495905263
2.4485268592834473	2396993.4073090786
2.451270818710327	2390977.8265891355
2.454014539718628	2445193.4785174145
2.4567582607269287	2718856.813416882
2.4595019817352295	2847735.2044353266
2.4622461795806885	2985238.438632577
2.4649908542633057	3219437.3413155386
2.4677364826202393	2951782.28517371
2.4704833030700684	2557075.5073555433
2.473231554031372	2443325.43445498
2.4759814739227295	2545059.266509145
2.4787333011627197	2683707.1402048427
