#wavelength	surface flux
0.6450077295303345	1018.4945426237969
0.6472567915916443	1622.5243964278682
0.6494921445846558	2164.9652348895465
0.6517150402069092	2550.783050997873
0.6539263725280762	2963.524218928397
0.6561272740364075	3412.6549255290493
0.6583186388015747	3902.4192933909017
0.6605015397071838	4441.494856170034
0.6626768708229065	5019.689533543483
0.6648455858230591	5622.540355454613
0.6670085787773132	6130.88354082596
0.6691668033599854	6228.866447176511
0.6713210344314575	6460.137160322639
0.6734722256660461	7549.836157712957
0.6756211519241333	8679.917420223956
0.6777685880661011	9329.132264986469
0.6799154281616211	9835.983672387132
0.6820623278617859	10264.612101022896
0.6842101216316223	10607.80946374199
0.6863595843315125	10851.270721283372
0.688511312007904	10951.530394674963
0.6906660795211792	10775.035830085782
0.6928245425224304	10405.92738160048
0.6949873566627502	10255.954724975238
0.6971551775932312	10261.620158337333
0.6993286609649658	10017.491558664826
0.7015084028244019	9567.518709298774
0.7036949396133423	9122.071569198095
0.7058889269828796	8701.632586842963
0.7080909013748169	8264.897964310081
0.710301399230957	7798.701064523588
0.712520956993103	7286.502660513585
0.7147500514984131	6616.368942617883
0.7169892191886902	5781.864947347911
0.7192389369010925	5152.396900620969
0.7214996814727783	4796.667308831077
0.723771870136261	4406.075373947042
0.7260559797286987	3999.3229069582444
0.7283523678779602	3688.4276334427245
0.7306615710258484	3456.20075368036
0.7329838871955872	3329.3724705761247
0.7353196740150452	3235.2565256172757
0.7376693487167358	3082.847823160901
0.7400332689285278	2919.008434131148
0.7424117922782898	2762.4303312474503
0.7448052167892456	2598.775604294778
0.7472138404846191	2416.127971882378
0.7496379613876343	2210.507261574308
0.7520779371261597	1985.3863711724575
0.7545340061187744	1744.037843765656
0.7570064663887024	1494.3212205460463
0.7594954967498779	1239.1485483533233
0.7620013952255249	947.0157555136102
0.7645244002342224	592.7837179178285
0.7670646905899048	327.7616213803737
0.7696225643157959	360.3779802635893
0.7721980810165405	737.9581916528924
0.7747915983200073	1276.850797954607
0.7774031162261963	1692.3491222510497
0.7800329327583313	2068.623811764077
0.7826811671257019	2772.0052761220973
0.7853479981422424	3674.529405870104
0.7880334854125977	4509.757095376229
0.7907378077507019	5158.8601395469805
0.7934610247612	5462.371249468692
0.7962033748626709	6345.026088673949
0.7989648580551147	8222.594934211835
0.801745593547821	10077.94160052033
0.8045456409454346	11730.361342728696
0.8073651194572449	13369.621167749468
0.8102040886878967	14745.384064081725
0.8130625486373901	16098.170201997971
0.8159406185150146	18506.79706899133
0.8188382983207703	22214.078685482953
0.8217556476593018	25970.1127632923
0.8246926665306091	30362.53621603286
0.8276493549346924	35982.00062790288
0.8306257724761963	41806.22207540805
0.8336219191551208	48355.30754445604
0.8366377949714661	56338.68887686976
0.8396733403205872	65780.75546292623
0.8427285552024841	76873.40211925394
0.8458034992218018	89319.71304608183
0.8488980531692505	99015.1399329832
0.8520121574401855	107818.30957524899
0.8551458716392517	128236.27927526535
0.8582990765571594	154105.3250379324
0.8614717125892639	174225.04876527534
0.8646637797355652	195059.0377732251
0.8678751587867737	221446.76274634464
0.8711057901382446	251501.09118747097
0.8743556141853333	280823.2904103798
0.87762451171875	300260.54359504714
0.8809124231338501	294629.790175282
0.8842192888259888	273302.74137849687
0.8875449895858765	259739.7521434755
0.8908893465995789	242793.52434421043
0.894252359867096	225402.3546068941
0.8976338505744934	272400.3939903329
0.9010337591171265	403154.7881298225
0.9044519662857056	549039.9369147805
0.9078882932662964	632059.8789533875
0.9113426208496094	651991.2858202831
0.914814829826355	657719.2053438083
0.9183048605918884	696639.0358185502
0.9218124747276306	733024.8229948026
0.925337553024292	591177.830776245
0.9288799166679382	303418.8596376756
0.9324395060539246	146467.88533477887
0.9360161423683167	193997.82142632743
0.9396095871925354	311423.81040328764
0.943219780921936	354986.40431950014
0.9468464851379395	319319.11662429717
0.9504896402359009	296449.57453736773
0.9541489481925964	284733.01621548523
0.9578243494033813	273138.00908399274
0.9615156054496765	305358.926407006
0.9652225375175476	434522.874043776
0.9689450263977051	619691.7258990705
0.9726828336715698	739767.104808803
0.9764357805252075	816357.6050031837
0.9802037477493286	911914.8552825497
0.983986496925354	1010311.2861759581
0.9877838492393494	1148148.9593572633
0.9915955662727356	1376463.1707895214
0.9954215884208679	1698398.1471330137
0.9992615580558777	2111588.522621867
1.0031154155731201	2583561.578278916
1.0069829225540161	2981680.825287499
1.0108637809753418	3215676.672373953
1.0147579908370972	3315016.433116176
1.018665075302124	3354627.2215077
1.022585153579712	3511168.9191383184
1.0265177488327026	3849889.871769283
1.0304628610610962	4106529.995784495
1.0344202518463135	4219852.076620381
1.0383895635604858	4497116.569827679
1.0423706769943237	4913709.827668536
1.0463634729385376	5241457.6019830825
1.0503677129745483	5521193.490374628
1.0543830394744873	5827332.290673713
1.058409333229065	6063577.918425346
1.0624464750289917	6175012.583590893
1.0664942264556885	6168427.223823429
1.0705522298812866	6075936.0156544475
1.0746204853057861	6027261.972126153
1.0786986351013184	5991671.407747423
1.0827864408493042	5794298.7469848385
1.086883783340454	5164193.491203769
1.0909905433654785	3977154.4423027346
1.0951062440872192	2636560.6023494354
1.0992310047149658	1597186.7901738775
1.10336434841156	904711.5510910888
1.1075061559677124	481715.9398035227
1.1116561889648438	250126.36902152497
1.115814208984375	141900.28165884662
1.1199802160263062	124638.30777956937
1.124153733253479	149903.62561079746
1.1283347606658936	172664.1890131695
1.1325229406356812	162864.37431813343
1.1367181539535522	208865.40496218757
1.1409201622009277	297743.48527968
1.145128846168518	293928.15179481107
1.1493438482284546	232984.82150635228
1.1535650491714478	174851.78794253847
1.1577922105789185	141379.207173894
1.1620250940322876	144574.32950458943
1.1662636995315552	183796.0110438193
1.170507550239563	301370.2204071901
1.174756646156311	492543.7827003037
1.1790107488632202	746249.9714687383
1.1832695007324219	1049348.8276410366
1.1875330209732056	1345168.6910125543
1.191800832748413	1678702.1173563008
1.1960728168487549	2088415.9749724923
1.2003488540649414	2509278.855552421
1.2046287059783936	2938178.7476965445
1.2089121341705322	3297229.412093553
1.2131990194320679	3586219.559103723
1.2174891233444214	3921387.4019284234
1.2217823266983032	4313188.19493231
1.2260783910751343	4846141.316243633
1.230377197265625	5508311.688773931
1.2346785068511963	6161998.662014076
1.238982081413269	6779887.872194594
1.2432878017425537	7387454.835282409
1.2475954294204712	7904206.55977729
1.2519049644470215	8260243.010023403
1.256216049194336	8915269.767778415
1.2605286836624146	9788074.123971563
1.2648425102233887	10148808.622960433
1.2691574096679688	9858607.982687265
1.2734732627868652	9064568.696292764
1.2777899503707886	8016511.507165139
1.2821072340011597	6825662.63254288
1.2864248752593994	5622591.52746762
1.2907428741455078	4787388.571718935
1.2950609922409058	4403736.438006218
1.2993791103363037	4129845.290712151
1.303696870803833	3759033.8708093283
1.3080145120620728	3372902.325080168
1.3123314380645752	2856001.679750864
1.3166478872299194	2420916.3899498507
1.3209635019302368	2244459.9093800955
1.3252781629562378	1854339.4436652756
1.3295916318893433	1112024.7792732958
1.3339040279388428	442871.39643527934
1.3382149934768677	131666.91677394803
1.3425244092941284	42455.79309917698
1.3468321561813354	14605.505075897941
1.3511382341384888	6795.789154090943
1.3554422855377197	3189.289139343777
1.3597444295883179	2129.497460909899
1.3640443086624146	3030.2368138167794
1.3683418035507202	4249.319887444897
1.3726370334625244	7150.939697368838
1.3769296407699585	11246.429348299072
1.381219506263733	10210.131441575355
1.3855066299438477	6586.408179250623
1.3897908926010132	6211.037266376718
1.3940720558166504	6851.946117231933
1.3983501195907593	7349.706683359646
1.4026249647140503	8336.87373654304
1.4068963527679443	8986.623626862638
1.4111642837524414	9719.313773819196
1.4154287576675415	10883.913223044923
1.419689416885376	11404.534910951232
1.4239463806152344	14967.417228986922
1.4281994104385376	25950.924943691618
1.4324485063552856	34193.65786535077
1.436693549156189	35211.21816006089
1.440934419631958	41720.45159112843
1.4451709985733032	59901.920440560745
1.449403166770935	90446.05103049263
1.453631043434143	123022.47790372917
1.4578542709350586	146542.59709098117
1.4620729684829712	141765.25900045416
1.4662868976593018	109019.6424221733
1.4704961776733398	74469.66997917906
1.4747005701065063	56591.78173062819
1.4788999557495117	60098.31400864907
1.4830944538116455	68533.87912757637
1.4872838258743286	72169.89203744703
1.491468071937561	74645.12884215191
1.4956470727920532	88643.22793166409
1.4998208284378052	119359.23303249279
1.5039892196655273	138906.76231428282
1.5081522464752197	123389.26298539498
1.5123097896575928	92236.1677195128
1.5164618492126465	97079.33789572603
1.5206083059310913	158057.29208816527
1.5247491598129272	228304.56425016015
1.5288842916488647	288798.31416097516
1.5330137014389038	349716.1680521211
1.5371372699737549	401470.8433254415
1.541254997253418	461904.9920301098
1.545366883277893	541816.462213427
1.5494728088378906	636703.5806626647
1.5535727739334106	784612.411834286
1.5576666593551636	1018376.6935358648
1.561754584312439	1368581.3497582928
1.5658363103866577	1802325.7078484355
1.5699119567871094	2129188.7190037128
1.5739814043045044	2316211.931782891
1.5780447721481323	2528428.2644374035
1.582101821899414	2756761.014475528
1.5861525535583496	2879109.728034662
1.5901970863342285	2849433.7928738166
1.5942351818084717	2717126.5323347626
1.5982669591903687	2505131.9221585
1.6022924184799194	2176045.8715171074
1.606311559677124	1792167.0847054585
1.6103241443634033	1430518.2701629212
1.6143304109573364	1060240.8871054875
1.6183301210403442	735394.1538225492
1.6223233938217163	558997.2430818954
1.6263102293014526	490139.6694299746
1.6302905082702637	479890.02745393437
1.634264349937439	549685.6997712741
1.638231635093689	674379.7006440783
1.6421923637390137	725513.47033498
1.646146535873413	641778.9605788807
1.6500942707061768	611964.8205486913
1.6540353298187256	642544.3115658894
1.6579699516296387	668886.6840373772
1.661897897720337	686006.5096276901
1.6658192873001099	440173.1042069536
1.6697341203689575	173662.65309105834
1.6736423969268799	207276.7982272986
1.677544116973877	286052.0545820618
1.6814392805099487	268408.7299545762
1.6853278875350952	233248.1131852343
1.6892099380493164	197109.7047937349
1.6930854320526123	148227.5110886699
1.696954369544983	109048.00459867681
1.7008168697357178	85447.4326382208
1.7046726942062378	87342.20777928387
1.708522081375122	132390.639793191
1.712364912033081	197689.15661452714
1.7162011861801147	273945.02901199635
1.7200311422348022	327370.81933846296
1.723854422569275	300753.48298042535
1.7276713848114014	266784.64643937786
1.731481909751892	271505.6684188801
1.7352858781814575	293531.06023158086
1.7390835285186768	344110.6337135633
1.7428747415542603	401308.5917093616
1.7466596364974976	430698.6961484123
1.7504380941390991	419724.7796043825
1.7542102336883545	353594.27943473094
1.7579760551452637	277776.7118752764
1.7617355585098267	239974.8599277665
1.7654887437820435	216336.52316799507
1.7692357301712036	190116.2251905823
1.7729763984680176	162542.040756607
1.776710867881775	154432.73052983606
1.7804391384124756	162335.02541222508
1.7841613292694092	143874.00857234903
1.7878772020339966	113253.97899755315
1.7915871143341064	87088.14675961043
1.7952908277511597	74649.0749139409
1.7989884614944458	80389.69418773627
1.8026801347732544	63040.01681364733
1.806365728378296	45439.12088964195
1.8100452423095703	46782.20537819831
1.8137187957763672	45216.01608577568
1.817386507987976	39628.10880704235
1.8210482597351074	47984.04269241407
1.8247040510177612	61999.999422755005
1.828354001045227	46341.7021494256
1.8319982290267944	24836.68253294654
1.8356364965438843	18628.29135969868
1.8392690420150757	19992.29451147714
1.8428958654403687	35523.28151118581
1.8465168476104736	45317.96391644195
1.8501322269439697	43775.77034915817
1.8537418842315674	42039.15284086351
1.8573459386825562	34292.22181119638
1.860944390296936	25709.67181133095
1.864537239074707	19425.40076549221
1.8681244850158691	12793.114095417686
1.871706247329712	11383.066040444131
1.8752825260162354	26335.687899976863
1.8788533210754395	59532.66205909206
1.8824186325073242	81817.66181778873
1.8859784603118896	77108.65728140151
1.8895330429077148	68142.69319406745
1.8930821418762207	78456.19852167611
1.8966259956359863	85862.0416235758
1.9001644849777222	59124.04931109701
1.9036977291107178	35001.205618048094
1.9072256088256836	35157.703282140035
1.9107483625411987	32765.3879782847
1.9142658710479736	25683.452860270012
1.9177782535552979	25653.776030328834
1.9212853908538818	25758.128722809204
1.9247875213623047	21594.40650922453
1.9282845258712769	17114.7572527914
1.9317764043807983	14444.251397394186
1.9352631568908691	13197.380104630713
1.9387450218200684	11927.78175585964
1.942221760749817	13812.903060488437
1.9456936120986938	17539.53932909862
1.9491604566574097	18523.343765023117
1.952622413635254	18103.095897119587
1.956079363822937	22110.314404134795
1.959531545639038	29975.146554149265
1.962978720664978	34423.500486377234
1.966421127319336	37361.01785354546
1.9698586463928223	37537.3635513478
1.9732913970947266	38441.885643954265
1.9767193794250488	48294.37878370177
1.9801424741744995	50087.52407544763
1.9835609197616577	48085.857478659964
1.9869745969772339	58120.44492909324
1.990383505821228	68836.66201455714
1.9937876462936401	87399.7998355616
1.9971871376037598	113491.86320888388
2.000581979751587	124012.43344534817
2.003972291946411	119333.16299981513
2.007357597351074	121545.74532338318
2.0107386112213135	129983.93495287409
2.0141148567199707	124177.04335725201
2.017486572265625	104876.56633745086
2.0208535194396973	101339.8735772697
2.0242159366607666	122234.59958261311
2.027573823928833	139440.68374192814
2.0309269428253174	154746.7000309851
2.034275770187378	174048.57414431658
2.0376198291778564	182690.09542107425
2.040959596633911	191543.62251925532
2.044294595718384	221711.63489244552
2.0476250648498535	255529.15018039575
2.0509510040283203	275426.34706429334
2.054272413253784	296644.5299253126
2.057589530944824	326893.26118030923
2.0609018802642822	356529.45264902833
2.0642096996307373	381382.4185204083
2.0675129890441895	404931.2323649625
2.0708119869232178	427568.0007524717
2.074106216430664	449617.1995952385
2.0773961544036865	466961.30139271915
2.080681324005127	480663.46362250764
2.0839622020721436	497822.82124163955
2.087238311767578	513216.2115231927
2.090510129928589	526047.8848918608
2.0937774181365967	531187.4555524903
2.0970399379730225	526960.496249028
2.1002981662750244	520644.6476527303
2.1035518646240234	518568.9621411373
2.1068007946014404	515768.17241126293
2.1100454330444336	505955.0032369069
2.1132853031158447	500310.3012066565
2.116520881652832	488270.02125567885
2.1197516918182373	470811.3261940069
2.1229779720306396	459274.74615512596
2.12619948387146	447784.0686513388
2.1294167041778564	436149.9845517153
2.132629156112671	426583.7500455867
2.1358368396759033	415622.3886628923
2.139039993286133	395887.15663979144
2.1422386169433594	357270.122314758
2.145432472229004	317974.43198032747
2.1486217975616455	298512.58425638906
2.151806354522705	283785.2613327301
2.1549863815307617	264844.50662698614
2.1581614017486572	245348.01957647564
2.16133189201355	218778.5746803715
2.1644976139068604	194482.87146984012
2.167658567428589	177948.84736912252
2.1708147525787354	166163.14377406644
2.173966407775879	160429.2102433387
2.1771130561828613	148458.47093053913
2.1802549362182617	133618.68499540404
2.183391809463501	122921.34530840124
2.1865241527557373	114542.28244697176
2.1896514892578125	97328.93291460097
2.1927738189697266	67620.11305355
2.1958916187286377	38920.96817925639
2.1990041732788086	18578.519432701723
2.2021119594573975	9386.919023337316
2.2052149772644043	12099.063442810499
2.208312749862671	21489.055823334034
2.2114057540893555	28613.049577702197
2.214493751525879	30362.188936391085
2.217576742172241	30711.20568505435
2.2206547260284424	28647.108607186176
2.2237277030944824	25025.63061461558
2.2267956733703613	21329.018574722908
2.2298583984375	16818.509108192484
2.2329163551330566	15586.749253930806
2.235969066619873	15856.783751268
2.2390167713165283	13070.014793568682
2.2420592308044434	10636.946078866225
2.2450966835021973	9476.223702731659
2.248128890991211	7578.862150708093
2.2511560916900635	6329.345461408955
2.254178285598755	5660.427019920259
2.257194995880127	5123.74289412048
2.260206699371338	5224.4710801959345
2.2632133960723877	5549.362597590568
2.266214609146118	6095.259502585566
2.2692108154296875	6992.063768728146
2.2722020149230957	8079.662082555032
2.2751877307891846	8160.040418235016
2.278168201446533	7911.75284066018
2.2811436653137207	7662.500664573408
2.284113883972168	6192.243831424301
2.287078857421875	5241.352719864196
2.290038824081421	4936.373823576078
2.2929933071136475	4413.242814899802
2.295942783355713	4359.819563891221
2.298887014389038	4980.205645528497
2.301826238632202	5966.113593832132
2.304760217666626	8346.25603629762
2.3076889514923096	16097.875188382555
2.310612440109253	28755.5429232982
2.3135311603546143	31219.89639187
2.3164443969726562	16920.55764013984
2.319352865219116	4541.775678633877
2.322256088256836	3133.979180428653
2.3251543045043945	4458.733856091484
2.328047275543213	4724.564871078643
2.330935478210449	4774.463312588898
2.3338186740875244	5185.8381973070345
2.3366971015930176	5329.533400502398
2.3395702838897705	5244.6312632597665
2.3424389362335205	5473.446771906954
2.3453025817871094	5180.597176235368
2.348161458969116	4963.731077370443
2.351015567779541	5935.618652588289
2.353865146636963	7265.346327866446
2.3567099571228027	9296.83878376995
2.3595502376556396	13365.90507449981
2.3623859882354736	17160.3967641598
2.3652172088623047	16827.175196893797
2.368043899536133	12060.646192286638
2.370866537094116	6164.410992062797
2.3736846446990967	4160.996016536258
2.3764986991882324	6728.9237534821195
2.3793084621429443	9410.098454480225
2.3821144104003906	9629.347220551526
2.384916305541992	10656.726197245169
2.387714147567749	14216.499828380889
2.3905084133148193	16026.450875709077
2.393299102783203	15010.948067371211
2.3960859775543213	14961.138415152014
2.398869514465332	18592.19495471973
2.4016497135162354	23452.925718882896
2.4044265747070312	25768.221309283395
2.407200336456299	26427.441065196672
2.409970998764038	33813.86145980253
2.4127390384674072	44225.30788489438
2.415503978729248	40440.05699577185
2.418266534805298	30689.131360778672
2.4210267066955566	29028.808381713992
2.4237842559814453	26765.486016939412
2.426539897918701	25766.293107331927
2.429293394088745	35865.31755171512
2.4320452213287354	44799.15004832646
2.4347951412200928	43433.69284190729
2.4375438690185547	50895.78708270954
2.440291166305542	66798.08491845065
2.443037271499634	68985.79156201509
2.445782423019409	61026.38267107997
2.4485268592834473	57363.5943930315
2.451270818710327	59403.15748285861
2.454014539718628	67184.10380851757
2.4567582607269287	79418.60866384741
2.4595019817352295	88156.13819520762
2.4622461795806885	98398.0193804374
2.4649908542633057	112344.23559929895
2.4677364826202393	107755.29615469331
2.4704833030700684	91387.52807704399
2.473231554031372	84440.72800786326
2.4759814739227295	88365.79906320322
2.4787333011627197	91432.64880857358
2.481487512588501	92393.63460050755
2.4842441082000732	108359.25393825694
