#wavelength	surface flux
0.6450077295303345	79953.43380805614
0.6472567915916443	125950.17860890809
0.6494921445846558	164345.69884391254
0.6517150402069092	188673.41366960522
0.6539263725280762	213862.66519176614
0.6561272740364075	240810.71397869836
0.6583186388015747	269457.80359625426
0.6605015397071838	299605.0604405753
0.6626768708229065	330596.08302795776
0.6648455858230591	359479.61325611576
0.6670085787773132	367535.0443893147
0.6691668033599854	326791.1961760176
0.6713210344314575	309685.58176531113
0.6734722256660461	402803.62310266984
0.6756211519241333	521046.9486569399
0.6777685880661011	591446.0046527496
0.6799154281616211	642100.5410569927
0.6820623278617859	688868.1700116708
0.6842101216316223	734026.1847888187
0.6863595843315125	777695.7556215993
0.688511312007904	818974.6808897112
0.6906660795211792	855252.046914182
0.6928245425224304	888652.9013064067
0.6949873566627502	925861.0164932567
0.6971551775932312	964152.4464208933
0.6993286609649658	995710.5950529748
0.7015084028244019	1019792.6522300496
0.7036949396133423	1039658.6058578623
0.7058889269828796	1055447.5773154215
0.7080909013748169	1064965.019596643
0.710301399230957	1067577.2168236545
0.712520956993103	1062021.4276915572
0.7147500514984131	1044570.9313539385
0.7169892191886902	1015082.6981361014
0.7192389369010925	982667.9343262243
0.7214996814727783	950295.3395399412
0.723771870136261	909515.222048178
0.7260559797286987	858632.0050177231
0.7283523678779602	801414.1561520596
0.7306615710258484	739401.1589918631
0.7329838871955872	674475.6674077356
0.7353196740150452	605889.2730130029
0.7376693487167358	533182.3902294945
0.7400332689285278	459723.6670392918
0.7424117922782898	387066.34952683735
0.7448052167892456	316212.29415688274
0.7472138404846191	249491.9243630861
0.7496379613876343	188680.50863015148
0.7520779371261597	135494.4507517231
0.7545340061187744	91397.89551578999
0.7570064663887024	57079.30759173358
0.7594954967498779	32397.1222141745
0.7620013952255249	16153.76580706377
0.7645244002342224	6571.622149300166
0.7670646905899048	2270.878885991027
0.7696225643157959	2426.405729568401
0.7721980810165405	8078.303003064689
0.7747915983200073	21305.32520105649
0.7774031162261963	41199.939363849604
0.7800329327583313	73135.41444568218
0.7826811671257019	133813.62128899057
0.7853479981422424	223356.66952065515
0.7880334854125977	327655.9924913268
0.7907378077507019	398929.7376487252
0.7934610247612	406751.39064441086
0.7962033748626709	553169.2585203502
0.7989648580551147	907704.2338869905
0.801745593547821	1252290.2832663138
0.8045456409454346	1544793.735272176
0.8073651194572449	1843577.7164561648
0.8102040886878967	2150828.3348781783
0.8130625486373901	2486387.164144234
0.8159406185150146	2867879.7221346907
0.8188382983207703	3294648.6487918757
0.8217556476593018	3790673.862519309
0.8246926665306091	4347610.347262105
0.8276493549346924	4928530.928229691
0.8306257724761963	5532459.205873051
0.8336219191551208	6163356.826579455
0.8366377949714661	6826721.526496617
0.8396733403205872	7544386.088786447
0.8427285552024841	8332074.331566777
0.8458034992218018	9064827.731028035
0.8488980531692505	9115402.060372
0.8520121574401855	8913746.307624469
0.8551458716392517	10392243.381881388
0.8582990765571594	12570666.26216021
0.8614717125892639	13372125.514352093
0.8646637797355652	13827526.234434782
0.8678751587867737	14971458.337768901
0.8711057901382446	16276037.480982533
0.8743556141853333	17494355.87731251
0.87762451171875	18792717.73985703
0.8809124231338501	20067942.34643643
0.8842192888259888	21325042.150924202
0.8875449895858765	22135565.212584976
0.8908893465995789	21184487.625583578
0.894252359867096	20117785.307636894
0.8976338505744934	23095417.832933232
0.9010337591171265	28308374.522077236
0.9044519662857056	31893436.9893927
0.9078882932662964	34137925.7047084
0.9113426208496094	35915451.885598004
0.914814829826355	37218418.23060868
0.9183048605918884	38303841.56488059
0.9218124747276306	38988372.33755082
0.925337553024292	35130588.52256563
0.9288799166679382	27506242.385164164
0.9324395060539246	25195787.142055176
0.9360161423683167	29380383.143532667
0.9396095871925354	33353904.51475638
0.943219780921936	32339077.07905926
0.9468464851379395	29646720.44106418
0.9504896402359009	31035132.645782374
0.9541489481925964	35169889.49102006
0.9578243494033813	36814269.599348806
0.9615156054496765	34631241.48691808
0.9652225375175476	33770569.41803084
0.9689450263977051	37923310.513031155
0.9726828336715698	45448298.33295208
0.9764357805252075	50667973.92208692
0.9802037477493286	52428625.79183599
0.983986496925354	55045875.303265765
0.9877838492393494	58940024.07831611
0.9915955662727356	61988891.05394061
0.9954215884208679	62792434.65411351
0.9992615580558777	61442429.23769116
1.0031154155731201	61543072.72731522
1.0069829225540161	65181677.59213364
1.0108637809753418	70485980.62166934
1.0147579908370972	75662855.62772252
1.018665075302124	79570916.49381004
1.022585153579712	81919232.14713389
1.0265177488327026	83923563.51617204
1.0304628610610962	87167870.90905641
1.0344202518463135	91231399.25751096
1.0383895635604858	94518494.67796242
1.0423706769943237	96799344.01422739
1.0463634729385376	98574379.93835932
1.0503677129745483	100021676.81301431
1.0543830394744873	101754505.22933199
1.058409333229065	103982430.5878265
1.0624464750289917	106058152.53948644
1.0664942264556885	107569695.4633841
1.0705522298812866	108822992.45627522
1.0746204853057861	110442210.04675958
1.0786986351013184	112138213.75926824
1.0827864408493042	112773560.92279951
1.086883783340454	109876626.3350558
1.0909905433654785	100899671.20387189
1.0951062440872192	87868048.47594175
1.0992310047149658	71676814.29420835
1.10336434841156	53775071.59296849
1.1075061559677124	43314387.50260967
1.1116561889648438	38058821.788510315
1.115814208984375	33180984.930013634
1.1199802160263062	29397787.86778169
1.124153733253479	27324769.453900803
1.1283347606658936	29154803.606456038
1.1325229406356812	28447275.197260775
1.1367181539535522	30763715.225937128
1.1409201622009277	37867053.663975276
1.145128846168518	40943481.412964955
1.1493438482284546	40011634.7569727
1.1535650491714478	33496957.904844698
1.1577922105789185	28501754.219340205
1.1620250940322876	29656447.013061095
1.1662636995315552	31297187.120379288
1.170507550239563	32255382.15420442
1.174756646156311	36187977.30019072
1.1790107488632202	46763794.51191867
1.1832695007324219	62727315.10453053
1.1875330209732056	75359413.75315754
1.191800832748413	84461684.39447324
1.1960728168487549	94334177.31715481
1.2003488540649414	101717161.92980999
1.2046287059783936	107655240.88839443
1.2089121341705322	111703697.54037653
1.2131990194320679	114984038.07324682
1.2174891233444214	121187852.2948365
1.2217823266983032	127984812.68745482
1.2260783910751343	132948708.1198032
1.230377197265625	136171187.6322183
1.2346785068511963	138595498.8051578
1.238982081413269	138678756.39405152
1.2432878017425537	136835109.14418083
1.2475954294204712	135847071.03061286
1.2519049644470215	135341888.0801547
1.256216049194336	141094276.87992328
1.2605286836624146	149506752.0232912
1.2648425102233887	151835902.93020487
1.2691574096679688	152044324.77306202
1.2734732627868652	152344439.8574331
1.2777899503707886	151027096.83793074
1.2821072340011597	147330554.90393245
1.2864248752593994	142398293.42194444
1.2907428741455078	136693890.99072132
1.2950609922409058	132921105.17796804
1.2993791103363037	131475952.97782165
1.303696870803833	130753205.29702567
1.3080145120620728	130361198.28549808
1.3123314380645752	127732033.46888354
1.3166478872299194	123794750.17099567
1.3209635019302368	115256778.97827013
1.3252781629562378	95143424.27720903
1.3295916318893433	64357621.77382682
1.3339040279388428	31229385.53294904
1.3382149934768677	9918332.811927574
1.3425244092941284	3477962.4938408853
1.3468321561813354	2481932.463493529
1.3511382341384888	1696406.068263038
1.3554422855377197	1306897.0326134472
1.3597444295883179	1629413.1860116334
1.3640443086624146	1836111.480811994
1.3683418035507202	2125768.0132678305
1.3726370334625244	2691436.6053966056
1.3769296407699585	2718005.592000616
1.381219506263733	1647017.3560187013
1.3855066299438477	841430.8952375915
1.3897908926010132	1079982.9290295395
1.3940720558166504	1629590.9060485791
1.3983501195907593	2162482.4519763193
1.4026249647140503	3235903.731247206
1.4068963527679443	3926998.0202533407
1.4111642837524414	2857564.1223818804
1.4154287576675415	1745497.6809701568
1.419689416885376	1745117.1773131448
1.4239463806152344	2174605.5417433567
1.4281994104385376	2864236.0054441504
1.4324485063552856	3082965.051149379
1.436693549156189	3062117.687514201
1.440934419631958	3983607.043728494
1.4451709985733032	5451430.8192721885
1.449403166770935	6888835.654702921
1.453631043434143	8327232.50555441
1.4578542709350586	10197675.93307411
1.4620729684829712	11877378.68159847
1.4662868976593018	12342699.33544192
1.4704961776733398	12690975.225892799
1.4747005701065063	13479108.073417097
1.4788999557495117	13886708.073123913
1.4830944538116455	14582772.031117802
1.4872838258743286	15548355.155759325
1.491468071937561	16308946.03026979
1.4956470727920532	18494979.47463377
1.4998208284378052	23042226.17660416
1.5039892196655273	27115065.631406605
1.5081522464752197	28219405.965056796
1.5123097896575928	30160838.61925474
1.5164618492126465	35074472.75884747
1.5206083059310913	41344390.83703922
1.5247491598129272	46344913.75000192
1.5288842916488647	48594090.60087263
1.5330137014389038	52020910.64334626
1.5371372699737549	55848549.98780196
1.541254997253418	58127152.38702567
1.545366883277893	62110341.17176595
1.5494728088378906	66499318.1531591
1.5535727739334106	68851821.50542146
1.5576666593551636	71566650.05018978
1.561754584312439	76041245.55969158
1.5658363103866577	80011115.41811526
1.5699119567871094	82164162.10512476
1.5739814043045044	83205532.64618361
1.5780447721481323	84663227.4335443
1.582101821899414	87189308.59298076
1.5861525535583496	89353700.88828859
1.5901970863342285	89424293.16994134
1.5942351818084717	88210291.93727855
1.5982669591903687	87209068.83209103
1.6022924184799194	85216275.57571267
1.606311559677124	82130780.54173198
1.6103241443634033	79699266.40365343
1.6143304109573364	77233521.31040403
1.6183301210403442	73241818.7941175
1.6223233938217163	68547448.17974703
1.6263102293014526	64526578.160602346
1.6302905082702637	62142035.16966809
1.634264349937439	64223854.96928711
1.638231635093689	69765833.21418627
1.6421923637390137	69745617.36019304
1.646146535873413	62518841.033516966
1.6500942707061768	59536599.45876596
1.6540353298187256	63262110.225655645
1.6579699516296387	64905422.3243484
1.661897897720337	59878578.69662615
1.6658192873001099	47155573.6078399
1.6697341203689575	39386643.139566965
1.6736423969268799	44971417.58860776
1.677544116973877	49851619.181891754
1.6814392805099487	48995775.20289629
1.6853278875350952	46489923.1983833
1.6892099380493164	42318515.667496644
1.6930854320526123	36602627.01421259
1.696954369544983	31864919.47192621
1.7008168697357178	31132824.611925118
1.7046726942062378	32827851.749573626
1.708522081375122	35296376.85118684
1.712364912033081	37699159.24186972
1.7162011861801147	39295325.03746595
1.7200311422348022	39584259.2707446
1.723854422569275	37807898.81856943
1.7276713848114014	35069084.11812166
1.731481909751892	32450142.413824342
1.7352858781814575	30023365.690642312
1.7390835285186768	27624021.45669311
1.7428747415542603	25184510.12586594
1.7466596364974976	23319106.613506954
1.7504380941390991	21069517.28919542
1.7542102336883545	17182165.013865847
1.7579760551452637	14584956.993864473
1.7617355585098267	14510494.934679292
1.7654887437820435	13598551.752046535
1.7692357301712036	11252233.113206679
1.7729763984680176	9079640.37521011
1.776710867881775	7086408.357787787
1.7804391384124756	5875616.904394099
1.7841613292694092	5417704.131064605
1.7878772020339966	4493960.051397469
1.7915871143341064	3684097.854631692
1.7952908277511597	3588543.539495642
1.7989884614944458	3453237.1171115316
1.8026801347732544	2569743.208922598
1.806365728378296	1690045.4046985344
1.8100452423095703	1352395.2555761405
1.8137187957763672	1181133.976694879
1.817386507987976	1133041.0434853253
1.8210482597351074	1158052.1899445776
1.8247040510177612	1137739.8780678434
1.828354001045227	1100635.700710083
1.8319982290267944	1157571.104558346
1.8356364965438843	1238304.5437473122
1.8392690420150757	1717674.1283536137
1.8428958654403687	2868958.06696284
1.8465168476104736	3472624.210335601
1.8501322269439697	2792932.3224568963
1.8537418842315674	1945534.3993248614
1.8573459386825562	1816485.2607778488
1.860944390296936	1807248.1944494909
1.864537239074707	1728977.3371897445
1.8681244850158691	1892534.2893519218
1.871706247329712	1941315.1160592758
1.8752825260162354	2558976.035171923
1.8788533210754395	4143411.6352052814
1.8824186325073242	4989754.53232341
1.8859784603118896	4651188.682358009
1.8895330429077148	4618021.55122838
1.8930821418762207	5833017.415865323
1.8966259956359863	6371124.261414085
1.9001644849777222	4247916.5418986445
1.9036977291107178	2664029.458213103
1.9072256088256836	3504777.486957324
1.9107483625411987	3553054.6653664894
1.9142658710479736	2200188.536652247
1.9177782535552979	1384337.8339843003
1.9212853908538818	1100598.7682710397
1.9247875213623047	1074682.4455010383
1.9282845258712769	1286485.9374964088
1.9317764043807983	1562913.5707432814
1.9352631568908691	1967272.3786022584
1.9387450218200684	2403493.9299592236
1.942221760749817	2739989.2513465295
1.9456936120986938	2751857.1048474307
1.9491604566574097	2805157.1738853096
1.952622413635254	2712299.4937675884
1.956079363822937	2192516.095331012
1.959531545639038	2197495.3632469615
1.962978720664978	2986864.582937641
1.966421127319336	4518273.8623106
1.9698586463928223	6023080.868327279
1.9732913970947266	6123297.267835664
1.9767193794250488	5706099.664111979
1.9801424741744995	6225781.768722745
1.9835609197616577	7973233.084765557
1.9869745969772339	9297317.474813247
1.990383505821228	8817157.592207706
1.9937876462936401	8743148.016755054
1.9971871376037598	9454964.269788299
2.000581979751587	10051693.325070806
2.003972291946411	11098197.063159516
2.007357597351074	12236286.875250628
2.0107386112213135	13484025.994142309
2.0141148567199707	14236848.55548873
2.017486572265625	14132454.02172786
2.0208535194396973	15204882.812019445
2.0242159366607666	16998530.133574948
2.027573823928833	17430877.468495663
2.0309269428253174	17429176.910401665
2.034275770187378	18195977.74720242
2.0376198291778564	19068312.136156917
2.040959596633911	19621307.644789957
2.044294595718384	20741423.514708214
2.0476250648498535	22451075.001205835
2.0509510040283203	22870416.077995628
2.054272413253784	22538162.869796745
2.057589530944824	23496179.853782516
2.0609018802642822	24492125.792702876
2.0642096996307373	24589315.17197105
2.0675129890441895	24919839.949510694
2.0708119869232178	25334814.660779048
2.074106216430664	25081956.144497517
2.0773961544036865	24698609.608550247
2.080681324005127	24712649.190569386
2.0839622020721436	24837437.292140055
2.087238311767578	24947460.7903584
2.090510129928589	25079774.01248658
2.0937774181365967	25088616.87462812
2.0970399379730225	24993328.495223965
2.1002981662750244	24747627.543123342
2.1035518646240234	24291853.202348266
2.1068007946014404	23832682.43847316
2.1100454330444336	23659534.943255596
2.1132853031158447	23709830.78020738
2.116520881652832	23626929.884543963
2.1197516918182373	23446327.354677487
2.1229779720306396	23343181.36410684
2.12619948387146	23203326.069418654
2.1294167041778564	22967084.172640614
2.132629156112671	22725058.181431707
2.1358368396759033	22341899.199629415
2.139039993286133	21810572.632108904
2.1422386169433594	21182523.03533524
2.145432472229004	20598797.520392362
2.1486217975616455	20255466.306173228
2.151806354522705	19886392.833741665
2.1549863815307617	19685308.834020313
2.1581614017486572	19555048.969228756
2.16133189201355	19137994.902188964
2.1644976139068604	18786799.296793777
2.167658567428589	18465420.642421678
2.1708147525787354	17987294.706500765
2.173966407775879	17424322.237039965
2.1771130561828613	16830038.097429164
2.1802549362182617	16227131.639259817
2.183391809463501	15595817.264130596
2.1865241527557373	14896618.538018314
2.1896514892578125	13957899.682713341
2.1927738189697266	12460861.812703991
2.1958916187286377	10522763.887882188
2.1990041732788086	8623328.329301389
2.2021119594573975	7059999.110504844
2.2052149772644043	6195466.895137494
2.208312749862671	6484103.780132889
2.2114057540893555	7547993.987543245
2.214493751525879	8353471.578364046
2.217576742172241	8446718.715599967
2.2206547260284424	8155890.373154887
2.2237277030944824	7857777.479416937
2.2267956733703613	7403160.435222091
2.2298583984375	6875677.828323399
2.2329163551330566	6514162.800688022
2.235969066619873	6207346.447094503
2.2390167713165283	5896270.278941253
2.2420592308044434	5435105.4709819285
2.2450966835021973	4869879.534727002
2.248128890991211	4773497.941837462
2.2511560916900635	5091094.208988899
2.254178285598755	5154313.012583159
2.257194995880127	5045379.159536824
2.260206699371338	4919692.655973477
2.2632133960723877	4597277.613916094
2.266214609146118	4405578.208974913
2.2692108154296875	4641030.3793707
2.2722020149230957	5085201.64825997
2.2751877307891846	5341098.261745098
2.278168201446533	5186682.0831392575
2.2811436653137207	4813030.286347065
2.284113883972168	4482384.759005233
2.287078857421875	4226984.186636309
2.290038824081421	4015575.354282984
2.2929933071136475	3948108.6493398887
2.295942783355713	4051460.6740417313
2.298887014389038	4246868.751834052
2.301826238632202	4655891.779495091
2.304760217666626	5467279.161831221
2.3076889514923096	6624398.185934806
2.310612440109253	7620291.525406225
2.3135311603546143	7393425.832195222
2.3164443969726562	5578768.97275353
2.319352865219116	3748263.038329242
2.322256088256836	3207226.7143397434
2.3251543045043945	3253933.928692292
2.328047275543213	3187599.501877592
2.330935478210449	3133550.8587849885
2.3338186740875244	3124238.5182168214
2.3366971015930176	3095150.4162297654
2.3395702838897705	3022772.1465463927
2.3424389362335205	2880539.4162439536
2.3453025817871094	2771860.30716838
2.348161458969116	2880386.176867554
2.351015567779541	3263873.8396789683
2.353865146636963	3795873.262865205
2.3567099571228027	4297397.946704159
2.3595502376556396	4812687.683825636
2.3623859882354736	5283207.304838379
2.3652172088623047	5127343.141381854
2.368043899536133	4024001.649825715
2.370866537094116	2746401.1552002453
2.3736846446990967	2334625.7384651755
2.3764986991882324	2675465.1848661834
2.3793084621429443	3032210.4249170073
2.3821144104003906	3205199.3377685403
2.384916305541992	3432714.3119980567
2.387714147567749	3800145.198752991
2.3905084133148193	4077628.976912277
2.393299102783203	4173475.68935181
2.3960859775543213	4241615.614052767
2.398869514465332	4423483.38498478
2.4016497135162354	4522292.514039217
2.4044265747070312	4404332.437741425
2.407200336456299	4446420.544715011
2.409970998764038	4884578.654500961
2.4127390384674072	5337523.605087499
2.415503978729248	5366919.046177062
2.418266534805298	5164799.657858202
2.4210267066955566	5143549.4779232675
2.4237842559814453	5252764.129344631
2.426539897918701	5399698.481197145
2.429293394088745	5828506.386669599
2.4320452213287354	6314920.177353857
2.4347951412200928	6205044.771280971
2.4375438690185547	5903515.5558131905
2.440291166305542	6189543.773111646
2.443037271499634	6264429.2210589005
2.445782423019409	5543774.409454618
2.4485268592834473	4916776.462848691
2.451270818710327	4786716.276701632
2.454014539718628	5011947.809096448
2.4567582607269287	5350768.856919498
2.4595019817352295	5310690.202194647
2.4622461795806885	5201866.548611044
2.4649908542633057	5094910.892248785
2.4677364826202393	4581333.925857557
2.4704833030700684	3961417.7138956552
2.473231554031372	3412955.224085739
2.4759814739227295	2946442.704000141
2.4787333011627197	2774997.027141297
2.481487512588501	2993912.8984178626
