#wavelength	surface flux
0.6450077295303345	365772.6435740859
0.6472567915916443	571448.9595131641
0.6494921445846558	734458.7374402313
0.6517150402069092	827207.4896428209
0.6539263725280762	919411.3557912125
0.6561272740364075	1015263.5873207211
0.6583186388015747	1113583.20384015
0.6605015397071838	1211418.2981816337
0.6626768708229065	1302342.9472586494
0.6648455858230591	1364775.4411574504
0.6670085787773132	1304570.5998936954
0.6691668033599854	1030692.0992773947
0.6713210344314575	886243.5285154898
0.6734722256660461	1244932.4309857362
0.6756211519241333	1751698.2229902176
0.6777685880661011	2051657.809500878
0.6799154281616211	2230201.2784556323
0.6820623278617859	2374812.8595616077
0.6842101216316223	2503849.6735586305
0.6863595843315125	2615628.9380381326
0.688511312007904	2708300.936251704
0.6906660795211792	2775675.8421687456
0.6928245425224304	2843830.67213928
0.6949873566627502	2954151.998482772
0.6971551775932312	3086479.0530755147
0.6993286609649658	3193392.5731718596
0.7015084028244019	3256908.605686799
0.7036949396133423	3301054.6137286695
0.7058889269828796	3352491.418682948
0.7080909013748169	3390748.7109647314
0.710301399230957	3396889.2654275973
0.712520956993103	3379398.8660344137
0.7147500514984131	3330814.8302187063
0.7169892191886902	3248417.280883852
0.7192389369010925	3163631.832100347
0.7214996814727783	3082475.7148634316
0.723771870136261	2973605.9419328636
0.7260559797286987	2826811.4592203097
0.7283523678779602	2653688.202635014
0.7306615710258484	2471262.593845161
0.7329838871955872	2286342.9438441843
0.7353196740150452	2082797.2329783842
0.7376693487167358	1860130.0732916784
0.7400332689285278	1638714.8756908958
0.7424117922782898	1419279.7659010177
0.7448052167892456	1200534.0205861127
0.7472138404846191	990898.3300200944
0.7496379613876343	793901.3945930896
0.7520779371261597	612157.7897261658
0.7545340061187744	448734.24137744354
0.7570064663887024	305861.59391782724
0.7594954967498779	186346.00232456974
0.7620013952255249	94111.54340787252
0.7645244002342224	34541.03287108274
0.7670646905899048	8594.55977008579
0.7696225643157959	9500.840002550412
0.7721980810165405	42354.518892321954
0.7747915983200073	120239.15318100904
0.7774031162261963	228901.56620847725
0.7800329327583313	373817.2631223348
0.7826811671257019	614655.8207551561
0.7853479981422424	938491.592984265
0.7880334854125977	1280651.1363475223
0.7907378077507019	1484121.9294872566
0.7934610247612	1451994.3513067134
0.7962033748626709	1860168.966706999
0.7989648580551147	2928576.1943116216
0.801745593547821	3923298.4973356174
0.8045456409454346	4703254.232425031
0.8073651194572449	5447768.874423726
0.8102040886878967	6152528.927873745
0.8130625486373901	6880901.093588221
0.8159406185150146	7632998.687855493
0.8188382983207703	8439008.669169173
0.8217556476593018	9547698.859870637
0.8246926665306091	10814111.41904178
0.8276493549346924	11948256.873682102
0.8306257724761963	13001522.19818979
0.8336219191551208	14010631.105913311
0.8366377949714661	14981301.9854224
0.8396733403205872	15970542.805566106
0.8427285552024841	17037205.981621943
0.8458034992218018	18054075.63266376
0.8488980531692505	18068217.737358414
0.8520121574401855	17594328.072164208
0.8551458716392517	19438576.276856396
0.8582990765571594	21700711.3860968
0.8614717125892639	20613541.101811044
0.8646637797355652	19214595.134549573
0.8678751587867737	20396653.660878997
0.8711057901382446	21882766.82373265
0.8743556141853333	22833760.852337662
0.87762451171875	23886646.592845384
0.8809124231338501	24692776.753541216
0.8842192888259888	25846547.941318776
0.8875449895858765	26556196.07216311
0.8908893465995789	25391803.631687265
0.894252359867096	25189251.357647777
0.8976338505744934	28392516.28534596
0.9010337591171265	32524014.309134573
0.9044519662857056	35377356.1682038
0.9078882932662964	37056259.443840116
0.9113426208496094	38079976.11758236
0.914814829826355	38332291.910312265
0.9183048605918884	38195999.10031991
0.9218124747276306	38065629.5552329
0.925337553024292	33805098.35461905
0.9288799166679382	25977119.655805122
0.9324395060539246	23349644.397439748
0.9360161423683167	26680357.06018481
0.9396095871925354	29745600.50074406
0.943219780921936	28291735.8328358
0.9468464851379395	25344453.47961766
0.9504896402359009	26341102.32086418
0.9541489481925964	30042496.768496238
0.9578243494033813	31378533.28858109
0.9615156054496765	29032081.686622772
0.9652225375175476	27946190.157995127
0.9689450263977051	31366304.85072356
0.9726828336715698	37733698.9678114
0.9764357805252075	41881304.393284276
0.9802037477493286	42800842.80252044
0.983986496925354	44541673.24603196
0.9877838492393494	47451077.1351245
0.9915955662727356	49856163.477841265
0.9954215884208679	50896288.09208052
0.9992615580558777	50189744.705668
1.0031154155731201	50285024.910294764
1.0069829225540161	52996820.526007205
1.0108637809753418	56894399.09524737
1.0147579908370972	60835501.526749946
1.018665075302124	63733630.35816548
1.022585153579712	64708869.427036636
1.0265177488327026	64945933.73966898
1.0304628610610962	66877453.5085108
1.0344202518463135	70366260.56807786
1.0383895635604858	72979403.13115878
1.0423706769943237	74373882.61115943
1.0463634729385376	75466108.33543816
1.0503677129745483	76196429.96015757
1.0543830394744873	77413244.20850478
1.058409333229065	79289827.98759289
1.0624464750289917	80658119.62878524
1.0664942264556885	81343450.65425849
1.0705522298812866	81874981.31314959
1.0746204853057861	82862456.81521893
1.0786986351013184	84071911.92285766
1.0827864408493042	84538931.74211037
1.086883783340454	82637547.28860824
1.0909905433654785	76674036.11427274
1.0951062440872192	67903534.11776687
1.0992310047149658	56190246.82421157
1.10336434841156	42509345.174227975
1.1075061559677124	35264302.65630881
1.1116561889648438	32698882.505206678
1.115814208984375	29603193.64014941
1.1199802160263062	25586049.60195162
1.124153733253479	22204354.299068358
1.1283347606658936	23032234.739707842
1.1325229406356812	22715666.17559469
1.1367181539535522	25001004.780362505
1.1409201622009277	30961423.339644134
1.145128846168518	33451741.326874264
1.1493438482284546	32736176.612418093
1.1535650491714478	27361161.432429925
1.1577922105789185	23140559.90545078
1.1620250940322876	24479729.846653834
1.1662636995315552	26555812.07511462
1.170507550239563	27881603.109130178
1.174756646156311	32083567.290465545
1.1790107488632202	41742619.63864109
1.1832695007324219	54282590.70943581
1.1875330209732056	63155901.07489077
1.191800832748413	69302453.27499242
1.1960728168487549	76355324.96032001
1.2003488540649414	81449341.13660073
1.2046287059783936	85493525.27307616
1.2089121341705322	88532627.31187038
1.2131990194320679	90979096.76878503
1.2174891233444214	95422934.12452327
1.2217823266983032	100401844.90921748
1.2260783910751343	103982602.88745272
1.230377197265625	106165851.9915295
1.2346785068511963	107964373.38978727
1.238982081413269	108185290.19656779
1.2432878017425537	106867353.15701808
1.2475954294204712	106250710.9902646
1.2519049644470215	105705991.04690503
1.256216049194336	109403395.45231389
1.2605286836624146	114476128.12761909
1.2648425102233887	114774338.74335696
1.2691574096679688	114110397.83885197
1.2734732627868652	113892836.13832264
1.2777899503707886	112734651.0831333
1.2821072340011597	110011089.1113238
1.2864248752593994	106353921.11303861
1.2907428741455078	102167448.2884989
1.2950609922409058	99650321.1549642
1.2993791103363037	98968454.91846374
1.303696870803833	98904651.89072728
1.3080145120620728	99170076.73791254
1.3123314380645752	97544416.09077017
1.3166478872299194	94863845.47044098
1.3209635019302368	89299161.07268035
1.3252781629562378	75604494.95947613
1.3295916318893433	53065171.32431377
1.3339040279388428	26854364.35068654
1.3382149934768677	9048299.512059968
1.3425244092941284	3511981.8757149586
1.3468321561813354	2685851.8540841625
1.3511382341384888	1854176.0415051791
1.3554422855377197	1439212.6809957786
1.3597444295883179	1778043.2182933139
1.3640443086624146	1941079.119611585
1.3683418035507202	2190897.362916452
1.3726370334625244	2739528.243887237
1.3769296407699585	2743596.06043863
1.381219506263733	1661434.2075328822
1.3855066299438477	869561.6290743713
1.3897908926010132	1141625.2542699594
1.3940720558166504	1727441.0133694073
1.3983501195907593	2264673.939962432
1.4026249647140503	3369137.5306929564
1.4068963527679443	4119420.7896830225
1.4111642837524414	3014594.1950317184
1.4154287576675415	1834192.4601556582
1.419689416885376	1825342.0778426093
1.4239463806152344	2285951.49922961
1.4281994104385376	3031643.9476071275
1.4324485063552856	3239051.2997819763
1.436693549156189	3145754.3963713087
1.440934419631958	4029851.9559555203
1.4451709985733032	5464765.8258799715
1.449403166770935	6788738.016411574
1.453631043434143	8063079.327320264
1.4578542709350586	9830034.289724438
1.4620729684829712	11447779.596868241
1.4662868976593018	11864969.941513514
1.4704961776733398	12217169.953181945
1.4747005701065063	13001752.458687158
1.4788999557495117	13395612.534513403
1.4830944538116455	14124596.525108812
1.4872838258743286	15193996.696846327
1.491468071937561	16038951.8157333
1.4956470727920532	18178807.490980532
1.4998208284378052	22579901.503034316
1.5039892196655273	26422502.89548027
1.5081522464752197	27359753.287281096
1.5123097896575928	29295970.43539798
1.5164618492126465	34262988.7259598
1.5206083059310913	40942132.7856603
1.5247491598129272	46151856.107050486
1.5288842916488647	47650534.67143399
1.5330137014389038	50724201.99419079
1.5371372699737549	54581227.777287714
1.541254997253418	56363250.23199218
1.545366883277893	60373973.2762091
1.5494728088378906	65169618.92097658
1.5535727739334106	67038458.55843083
1.5576666593551636	68208340.47531636
1.561754584312439	71823635.82351363
1.5658363103866577	77499891.37688808
1.5699119567871094	81937606.5628224
1.5739814043045044	83378646.45022899
1.5780447721481323	84401200.02587046
1.582101821899414	88368391.069031
1.5861525535583496	93573826.3448573
1.5901970863342285	95209957.11424083
1.5942351818084717	94023741.79343532
1.5982669591903687	93329131.17580795
1.6022924184799194	92885988.67843367
1.606311559677124	92084655.32860284
1.6103241443634033	91105595.68273968
1.6143304109573364	89205222.85648274
1.6183301210403442	86297587.83936273
1.6223233938217163	83607776.62981334
1.6263102293014526	81443348.53400357
1.6302905082702637	79818758.99456666
1.634264349937439	82994705.35973427
1.638231635093689	90447314.6920315
1.6421923637390137	90510354.68994868
1.646146535873413	82078015.56218432
1.6500942707061768	79442821.66092771
1.6540353298187256	84977856.37583716
1.6579699516296387	87751810.24171372
1.661897897720337	81658916.85521787
1.6658192873001099	65503521.30635213
1.6697341203689575	55908586.36782012
1.6736423969268799	64165097.07697474
1.677544116973877	71686042.8901171
1.6814392805099487	71259650.28300498
1.6853278875350952	67541927.60362063
1.6892099380493164	60275280.30205594
1.6930854320526123	51620706.40387456
1.696954369544983	45625653.81405018
1.7008168697357178	45124542.1506081
1.7046726942062378	47519574.110325284
1.708522081375122	50331642.4519629
1.712364912033081	52447795.499878675
1.7162011861801147	53330314.717575505
1.7200311422348022	52681777.83017939
1.723854422569275	49531945.15310608
1.7276713848114014	45189338.63398084
1.731481909751892	40862368.68344094
1.7352858781814575	36812822.910890125
1.7390835285186768	32922624.229540095
1.7428747415542603	29101622.515416764
1.7466596364974976	26506118.4609716
1.7504380941390991	23850999.864147246
1.7542102336883545	19100035.264628448
1.7579760551452637	15876123.128367715
1.7617355585098267	15937050.910427837
1.7654887437820435	15099197.818996996
1.7692357301712036	12406005.366287746
1.7729763984680176	9866683.35731755
1.776710867881775	7616490.117558529
1.7804391384124756	6277146.719932473
1.7841613292694092	5802034.822252507
1.7878772020339966	4794889.179176167
1.7915871143341064	3905345.188960322
1.7952908277511597	3820226.0345745683
1.7989884614944458	3692903.068576371
1.8026801347732544	2733489.2078641327
1.806365728378296	1770080.3556005037
1.8100452423095703	1403644.046450513
1.8137187957763672	1224790.849147932
1.817386507987976	1179127.0100496428
1.8210482597351074	1208520.3929792976
1.8247040510177612	1187909.0562747973
1.828354001045227	1151255.7361308704
1.8319982290267944	1218216.5977606738
1.8356364965438843	1315374.1354948515
1.8392690420150757	1853321.8533894413
1.8428958654403687	3123529.2211016603
1.8465168476104736	3781120.988890821
1.8501322269439697	3011330.7982663647
1.8537418842315674	2061403.313713554
1.8573459386825562	1910975.6875395137
1.860944390296936	1900314.6756690077
1.864537239074707	1842589.0793490345
1.8681244850158691	2056491.635304165
1.871706247329712	2108812.4367899
1.8752825260162354	2771493.212328275
1.8788533210754395	4523952.819931119
1.8824186325073242	5467268.133253727
1.8859784603118896	5102616.071577572
1.8895330429077148	5105048.613116393
1.8930821418762207	6567291.051480755
1.8966259956359863	7245119.555726051
1.9001644849777222	4797914.781529674
1.9036977291107178	3015205.9399479106
1.9072256088256836	4086181.292561042
1.9107483625411987	4115662.0419340124
1.9142658710479736	2442620.052995738
1.9177782535552979	1466467.1014732036
1.9212853908538818	1158012.273778207
1.9247875213623047	1132200.5166333923
1.9282845258712769	1362540.1638691279
1.9317764043807983	1682582.1402998655
1.9352631568908691	2169757.4430544507
1.9387450218200684	2704813.176705269
1.942221760749817	3121061.2184432163
1.9456936120986938	3105786.617391037
1.9491604566574097	3105105.006837075
1.952622413635254	2975779.081430851
1.956079363822937	2383035.0021510106
1.959531545639038	2375688.430103419
1.962978720664978	3263032.102368318
1.966421127319336	5151230.013565109
1.9698586463928223	7081966.04197958
1.9732913970947266	7205295.516069922
1.9767193794250488	6738472.578412124
1.9801424741744995	7472635.47164485
1.9835609197616577	9681947.68103854
1.9869745969772339	11331640.671541853
1.990383505821228	10660947.136122923
1.9937876462936401	10598814.595496906
1.9971871376037598	11411747.981408112
2.000581979751587	12204309.719949927
2.003972291946411	14296875.159354508
2.007357597351074	16092758.718374316
2.0107386112213135	17204332.226512484
2.0141148567199707	17985650.48586738
2.017486572265625	18076365.934322987
2.0208535194396973	20269827.667816322
2.0242159366607666	23589289.905190747
2.027573823928833	24104170.46871356
2.0309269428253174	23726323.05222387
2.034275770187378	25076030.092422087
2.0376198291778564	26587749.37913087
2.040959596633911	27432861.539187737
2.044294595718384	29615893.509361066
2.0476250648498535	33095747.563663363
2.0509510040283203	33898485.5130373
2.054272413253784	33456052.866069563
2.057589530944824	36016216.5785594
2.0609018802642822	38263818.004816726
2.0642096996307373	38475636.48984874
2.0675129890441895	39891207.91240251
2.0708119869232178	41665995.65404934
2.074106216430664	41262328.689816095
2.0773961544036865	40318109.4163962
2.080681324005127	40606215.14913498
2.0839622020721436	41234360.52665644
2.087238311767578	41805296.511238016
2.090510129928589	42596692.57562518
2.0937774181365967	43153639.791163616
2.0970399379730225	43385080.39645243
2.1002981662750244	43152096.767422594
2.1035518646240234	42195903.40824535
2.1068007946014404	41192475.2144324
2.1100454330444336	41234217.77513882
2.1132853031158447	41985127.76941668
2.116520881652832	42113279.29155824
2.1197516918182373	41889294.39177359
2.1229779720306396	41991091.29112198
2.12619948387146	41957168.44861775
2.1294167041778564	41582823.28143162
2.132629156112671	41218293.25303354
2.1358368396759033	40443942.37731901
2.139039993286133	39153072.680740535
2.1422386169433594	37731616.70540372
2.145432472229004	36558100.071469195
2.1486217975616455	35871245.09856017
2.151806354522705	35095515.14806901
2.1549863815307617	34770591.44693586
2.1581614017486572	34638715.51239315
2.16133189201355	33810147.20707702
2.1644976139068604	33091958.629094686
2.167658567428589	32414159.998999827
2.1708147525787354	31271712.225445006
2.173966407775879	29849769.768808555
2.1771130561828613	28500222.511266924
2.1802549362182617	27379516.96630565
2.183391809463501	26208962.852539416
2.1865241527557373	24826446.6355662
2.1896514892578125	23107926.98788669
2.1927738189697266	20349106.273700126
2.1958916187286377	16524181.536234867
2.1990041732788086	12765305.98702277
2.2021119594573975	9866969.744610965
2.2052149772644043	8305560.762351534
2.208312749862671	8723873.511841152
2.2114057540893555	10498853.286071481
2.214493751525879	11886807.677474692
2.217576742172241	12089523.567117315
2.2206547260284424	11667724.803551266
2.2237277030944824	11236838.682334306
2.2267956733703613	10454462.669215595
2.2298583984375	9495238.880872423
2.2329163551330566	8851177.218970794
2.235969066619873	8335895.919880203
2.2390167713165283	7850785.256775148
2.2420592308044434	7207814.915941324
2.2450966835021973	6493435.933114218
2.248128890991211	6423962.767188215
2.2511560916900635	6797049.812533759
2.254178285598755	6783711.062217248
2.257194995880127	6608745.673143758
2.260206699371338	6400199.609827695
2.2632133960723877	5846163.687845867
2.266214609146118	5484960.896609204
2.2692108154296875	5792649.2312473515
2.2722020149230957	6450081.527630346
2.2751877307891846	6850552.317383629
2.278168201446533	6620618.972922141
2.2811436653137207	6053378.710853927
2.284113883972168	5564656.172930867
2.287078857421875	5193184.239627462
2.290038824081421	4868001.1300692735
2.2929933071136475	4712467.3074544575
2.295942783355713	4787998.6453976985
2.298887014389038	5023724.668794528
2.301826238632202	5554811.654725885
2.304760217666626	6518807.152215402
2.3076889514923096	7840669.641473696
2.310612440109253	9026763.60816842
2.3135311603546143	8779998.217038924
2.3164443969726562	6562240.286883563
2.319352865219116	4281002.626322672
2.322256088256836	3567414.7174777156
2.3251543045043945	3625502.8041322986
2.328047275543213	3588192.0317529174
2.330935478210449	3509714.527403767
2.3338186740875244	3454411.1577965403
2.3366971015930176	3424838.459590525
2.3395702838897705	3369012.8103019213
2.3424389362335205	3223033.3413423575
2.3453025817871094	3109670.691596283
2.348161458969116	3245817.1825076863
2.351015567779541	3705430.8346191472
2.353865146636963	4343416.357396676
2.3567099571228027	4945941.756196299
2.3595502376556396	5596038.602822267
2.3623859882354736	6227900.5038841795
2.3652172088623047	6064949.493649665
2.368043899536133	4694120.614788117
2.370866537094116	3107801.497912203
2.3736846446990967	2569588.9440182447
2.3764986991882324	2922808.3181722625
2.3793084621429443	3305701.5438092537
2.3821144104003906	3502130.9657572852
2.384916305541992	3785314.5075584506
2.387714147567749	4237036.444116472
2.3905084133148193	4578065.347127215
2.393299102783203	4703786.12778534
2.3960859775543213	4804196.566126116
2.398869514465332	5041426.319199024
2.4016497135162354	5156724.015050778
2.4044265747070312	4998404.6526985
2.407200336456299	5052743.854848862
2.409970998764038	5602556.890174166
2.4127390384674072	6160576.0196341025
2.415503978729248	6184124.7783987345
2.418266534805298	5915339.3357648775
2.4210267066955566	5869745.581948919
2.4237842559814453	5991478.422309804
2.426539897918701	6161029.48797929
2.429293394088745	6682794.599281127
2.4320452213287354	7282714.032203776
2.4347951412200928	7125232.614570491
2.4375438690185547	6711973.38797336
2.440291166305542	7032290.309861099
2.443037271499634	7075665.291416642
2.445782423019409	6140072.796892795
2.4485268592834473	5357329.3647145815
2.451270818710327	5187603.296429951
2.454014539718628	5466580.957064483
2.4567582607269287	5906490.205127996
2.4595019817352295	5843140.903976393
2.4622461795806885	5680467.335798227
2.4649908542633057	5542784.8666635845
2.4677364826202393	4907699.30545969
2.4704833030700684	4161372.439181101
2.473231554031372	3538316.5160488402
2.4759814739227295	3028117.616635856
2.4787333011627197	2844727.6561098318
2.481487512588501	3085977.5101997447
