#wavelength	surface flux
0.6450077295303345	3319.608542087985
0.6472567915916443	5145.818989422481
0.6494921445846558	6592.892711579676
0.6517150402069092	7454.319828026946
0.6539263725280762	8277.156209586294
0.6561272740364075	9087.01261265964
0.6583186388015747	9913.224275431741
0.6605015397071838	10797.800303676093
0.6626768708229065	11770.782640046722
0.6648455858230591	12838.456367750132
0.6670085787773132	13853.240268018431
0.6691668033599854	14451.277671569393
0.6713210344314575	15255.085117837085
0.6734722256660461	17003.565900796446
0.6756211519241333	18851.37839407593
0.6777685880661011	20296.777428005033
0.6799154281616211	21674.613145016647
0.6820623278617859	23062.613421044713
0.6842101216316223	24471.743354790546
0.6863595843315125	25887.464171839027
0.688511312007904	27193.685026284802
0.6906660795211792	28045.997082020323
0.6928245425224304	28559.438159726415
0.6949873566627502	29838.858576899325
0.6971551775932312	31707.182586129235
0.6993286609649658	33186.27691256337
0.7015084028244019	34583.477324957894
0.7036949396133423	35899.184790724976
0.7058889269828796	36792.66861350618
0.7080909013748169	37385.91406196015
0.710301399230957	38026.24921563084
0.712520956993103	38621.63767127456
0.7147500514984131	38511.654651848
0.7169892191886902	37676.494948807325
0.7192389369010925	36588.61238123661
0.7214996814727783	35064.18124321867
0.723771870136261	32827.34938443945
0.7260559797286987	30369.072219841986
0.7283523678779602	28083.987693039544
0.7306615710258484	27457.0519929534
0.7329838871955872	28738.443818734067
0.7353196740150452	28604.01354053681
0.7376693487167358	26594.53233593445
0.7400332689285278	24333.411836155527
0.7424117922782898	21997.998676357176
0.7448052167892456	19913.513429723756
0.7472138404846191	17835.379414941795
0.7496379613876343	15489.91451605953
0.7520779371261597	13058.601523540437
0.7545340061187744	10616.617509160309
0.7570064663887024	8255.653539037032
0.7594954967498779	6038.532492340178
0.7620013952255249	3941.837631290163
0.7645244002342224	2078.2348158654227
0.7670646905899048	937.4162390198272
0.7696225643157959	986.515549443404
0.7721980810165405	2493.655580158078
0.7747915983200073	5234.5481572877825
0.7774031162261963	8373.497655619547
0.7800329327583313	11909.373252928799
0.7826811671257019	16913.279203703576
0.7853479981422424	23315.694537698004
0.7880334854125977	30225.936706099492
0.7907378077507019	34967.60298887798
0.7934610247612	35657.03324977929
0.7962033748626709	43508.10033356891
0.7989648580551147	62268.79160082118
0.801745593547821	79390.43891819014
0.8045456409454346	92619.82395895945
0.8073651194572449	104128.3566191606
0.8102040886878967	112750.2298117224
0.8130625486373901	125050.5988903353
0.8159406185150146	146188.97627179342
0.8188382983207703	172718.68737320945
0.8217556476593018	201969.40087912657
0.8246926665306091	227900.9809802209
0.8276493549346924	246248.16788818297
0.8306257724761963	269710.66512779554
0.8336219191551208	307774.21187571884
0.8366377949714661	343370.20304092584
0.8396733403205872	372610.4855559128
0.8427285552024841	410088.1124370223
0.8458034992218018	455501.70055004215
0.8488980531692505	483910.45238430426
0.8520121574401855	501990.64586439077
0.8551458716392517	573055.8637068348
0.8582990765571594	674606.1379004263
0.8614717125892639	747571.521854884
0.8646637797355652	812016.9140081228
0.8678751587867737	891185.7718485718
0.8711057901382446	980362.8590811791
0.8743556141853333	1061631.1190843324
0.87762451171875	1119691.4985785543
0.8809124231338501	1141259.0760561142
0.8842192888259888	1139001.834852614
0.8875449895858765	1135536.684959265
0.8908893465995789	1071175.206873057
0.894252359867096	919504.9608666024
0.8976338505744934	990580.779160412
0.9010337591171265	1438930.3166444786
0.9044519662857056	1907410.7486705899
0.9078882932662964	2156882.8363424856
0.9113426208496094	2205663.545344425
0.914814829826355	2118332.5446105637
0.9183048605918884	2090356.2276273563
0.9218124747276306	2000837.3027191563
0.925337553024292	1441628.651655401
0.9288799166679382	885458.7301513999
0.9324395060539246	790054.5085285133
0.9360161423683167	824767.0639012364
0.9396095871925354	798385.6447094921
0.943219780921936	732159.1625400858
0.9468464851379395	617671.9697013532
0.9504896402359009	758435.2820024957
0.9541489481925964	1254064.2959997728
0.9578243494033813	1334742.6494957823
0.9615156054496765	872309.598171709
0.9652225375175476	596675.5202491538
0.9689450263977051	997651.6140359791
0.9726828336715698	1824419.9199394705
0.9764357805252075	2271220.2912132954
0.9802037477493286	2533624.523710474
0.983986496925354	3236259.394556635
0.9877838492393494	3982921.771338771
0.9915955662727356	4497632.380749042
0.9954215884208679	4972665.597354863
0.9992615580558777	5174530.968438222
1.0031154155731201	5207512.443264925
1.0069829225540161	5821948.046524354
1.0108637809753418	7081711.480276475
1.0147579908370972	8474016.448634172
1.018665075302124	9513859.779366544
1.022585153579712	9978621.932074577
1.0265177488327026	10508064.722333923
1.0304628610610962	11626192.327045152
1.0344202518463135	12854101.805862479
1.0383895635604858	13860592.221000532
1.0423706769943237	14714687.700210296
1.0463634729385376	15074284.834631713
1.0503677129745483	15429384.958110046
1.0543830394744873	16779731.580731902
1.058409333229065	18364393.631401878
1.0624464750289917	19361262.968064766
1.0664942264556885	19535779.222412884
1.0705522298812866	19232200.468438696
1.0746204853057861	19384553.38740555
1.0786986351013184	19468998.12045148
1.0827864408493042	19617541.301361755
1.086883783340454	18078191.40265563
1.0909905433654785	12954293.713811256
1.0951062440872192	8145592.824293349
1.0992310047149658	5059071.958169353
1.10336434841156	2264146.932244369
1.1075061559677124	954607.7199778972
1.1116561889648438	738241.9548106414
1.115814208984375	438323.7383669134
1.1199802160263062	299292.0548948486
1.124153733253479	309400.7056636742
1.1283347606658936	253589.03398105982
1.1325229406356812	225608.91291440604
1.1367181539535522	547848.5556216924
1.1409201622009277	1141049.9164151885
1.145128846168518	1395012.7753126572
1.1493438482284546	1050204.5580230148
1.1535650491714478	486919.1560420041
1.1577922105789185	221356.42445645636
1.1620250940322876	321933.45752977836
1.1662636995315552	710767.2581236333
1.170507550239563	1305509.787898986
1.174756646156311	2246688.2172883344
1.1790107488632202	3587143.0631697364
1.1832695007324219	4153813.992308167
1.1875330209732056	3989580.045403267
1.191800832748413	6024409.301094686
1.1960728168487549	10021363.553675767
1.2003488540649414	12859064.849419879
1.2046287059783936	14403249.11792392
1.2089121341705322	15171725.787228918
1.2131990194320679	16378990.470566848
1.2174891233444214	19408906.01694353
1.2217823266983032	22333918.76444615
1.2260783910751343	24755823.444244735
1.230377197265625	27601345.23681264
1.2346785068511963	29575700.36589403
1.238982081413269	30443446.261599235
1.2432878017425537	31696602.418673802
1.2475954294204712	33051551.864224896
1.2519049644470215	33801080.60024672
1.256216049194336	36483971.760354474
1.2605286836624146	37246490.859193146
1.2648425102233887	33094578.326748237
1.2691574096679688	31308142.687425073
1.2734732627868652	33363053.16840308
1.2777899503707886	31807901.54800683
1.2821072340011597	26130625.504321285
1.2864248752593994	23562619.22745526
1.2907428741455078	23306392.60554252
1.2950609922409058	22276515.600174915
1.2993791103363037	17465769.233656723
1.303696870803833	11688682.36149373
1.3080145120620728	9896554.04419625
1.3123314380645752	10440791.229471939
1.3166478872299194	12540299.602674326
1.3209635019302368	11449213.691748802
1.3252781629562378	7367948.746260531
1.3295916318893433	4265752.247263362
1.3339040279388428	1799695.0175611791
1.3382149934768677	439021.8386269418
1.3425244092941284	156498.78569123594
1.3468321561813354	85198.3020958908
1.3511382341384888	54450.23369015832
1.3554422855377197	33921.119748883684
1.3597444295883179	33361.239067517214
1.3640443086624146	44774.2053164854
1.3683418035507202	39142.702025511884
1.3726370334625244	27037.183248153837
1.3769296407699585	34611.95694909291
1.381219506263733	37148.41661970512
1.3855066299438477	22957.645596925042
1.3897908926010132	37442.04771680629
1.3940720558166504	78609.75074786534
1.3983501195907593	71622.70493352228
1.4026249647140503	46574.92934688774
1.4068963527679443	49270.21330584321
1.4111642837524414	42657.21453503791
1.4154287576675415	33848.19093483274
1.419689416885376	37363.99251252429
1.4239463806152344	46617.120062238384
1.4281994104385376	35345.69126125111
1.4324485063552856	19168.525443224742
1.436693549156189	47359.06577894712
1.440934419631958	154396.19844991446
1.4451709985733032	386767.7053247115
1.449403166770935	666812.4591558456
1.453631043434143	706929.9232434923
1.4578542709350586	657024.218003406
1.4620729684829712	922735.3663413699
1.4662868976593018	1151339.4079675034
1.4704961776733398	717930.9428537444
1.4747005701065063	192627.31514233307
1.4788999557495117	245313.75874889054
1.4830944538116455	528687.7234971103
1.4872838258743286	578865.7959881183
1.491468071937561	375534.1980578208
1.4956470727920532	458019.5342079258
1.4998208284378052	1108549.1330535836
1.5039892196655273	1464113.9556304186
1.5081522464752197	1044108.7591767953
1.5123097896575928	824726.7587312825
1.5164618492126465	1366408.429178381
1.5206083059310913	2252345.519952874
1.5247491598129272	3059446.889420946
1.5288842916488647	3631322.9819607167
1.5330137014389038	3837282.831888899
1.5371372699737549	4030911.9911510437
1.541254997253418	4557300.005386153
1.545366883277893	5247984.024302421
1.5494728088378906	5865844.737327937
1.5535727739334106	6749252.405453185
1.5576666593551636	8057291.012059339
1.561754584312439	9853778.576504609
1.5658363103866577	12115094.637961516
1.5699119567871094	13426181.396580637
1.5739814043045044	13158339.963551896
1.5780447721481323	13258578.645751175
1.582101821899414	14794908.93473713
1.5861525535583496	16348983.59237336
1.5901970863342285	15973377.031431086
1.5942351818084717	13603079.045636598
1.5982669591903687	11814335.472447824
1.6022924184799194	11004692.56678488
1.606311559677124	9901572.534280432
1.6103241443634033	9356898.743630098
1.6143304109573364	8231682.993876648
1.6183301210403442	5971941.854384208
1.6223233938217163	4459141.442115771
1.6263102293014526	3861859.811544302
1.6302905082702637	4476816.632129657
1.634264349937439	6435807.588959911
1.638231635093689	8711271.775438718
1.6421923637390137	9349621.707320949
1.646146535873413	6639184.507272408
1.6500942707061768	3904027.997047761
1.6540353298187256	4090347.245583371
1.6579699516296387	4850287.137875995
1.661897897720337	4787232.355852378
1.6658192873001099	3375530.8569101267
1.6697341203689575	1738060.462811465
1.6736423969268799	1589538.3331570053
1.677544116973877	1652391.7229034887
1.6814392805099487	1431791.4232929987
1.6853278875350952	1243658.9372818207
1.6892099380493164	957410.5618204869
1.6930854320526123	784377.088823845
1.696954369544983	593524.737164505
1.7008168697357178	418086.9449378933
1.7046726942062378	403765.88528644457
1.708522081375122	603547.7006331193
1.712364912033081	853310.9608629054
1.7162011861801147	1105393.199259558
1.7200311422348022	1515727.7903625849
1.723854422569275	1496666.800661097
1.7276713848114014	1025480.7974308424
1.731481909751892	789218.829778096
1.7352858781814575	775160.4397225044
1.7390835285186768	919424.1477260836
1.7428747415542603	1097783.5872674994
1.7466596364974976	930563.9143658375
1.7504380941390991	668028.1817489639
1.7542102336883545	872588.8144344862
1.7579760551452637	1320171.9256403877
1.7617355585098267	1431264.683501197
1.7654887437820435	1167318.8081382539
1.7692357301712036	732357.9279578996
1.7729763984680176	364160.0044912584
1.776710867881775	204135.75000980904
1.7804391384124756	190703.84399385465
1.7841613292694092	211025.8982924695
1.7878772020339966	253352.2817778439
1.7915871143341064	435784.8174645442
1.7952908277511597	549861.5748675434
1.7989884614944458	431258.5139897971
1.8026801347732544	304595.4740908017
1.806365728378296	292596.20463951345
1.8100452423095703	289895.2401899925
1.8137187957763672	215653.7674206673
1.817386507987976	125815.10099252897
1.8210482597351074	258200.92455913252
1.8247040510177612	543150.9060591005
1.828354001045227	501077.02106585354
1.8319982290267944	227347.7342075663
1.8356364965438843	207592.94845986963
1.8392690420150757	437922.2550236519
1.8428958654403687	607351.7746967302
1.8465168476104736	532530.7311783158
1.8501322269439697	323910.5539955498
1.8537418842315674	247321.6860294309
1.8573459386825562	330278.1579680986
1.860944390296936	272758.6619888651
1.864537239074707	93380.45213109041
1.8681244850158691	21171.637987585083
1.871706247329712	43188.282961600875
1.8752825260162354	112938.69894207105
1.8788533210754395	196885.89783035815
1.8824186325073242	360382.35652594425
1.8859784603118896	807001.8279508883
1.8895330429077148	1162301.5697429946
1.8930821418762207	815754.0255617553
1.8966259956359863	355537.261105099
1.9001644849777222	300985.7417922882
1.9036977291107178	272050.03431157896
1.9072256088256836	378787.9824525115
1.9107483625411987	558265.2696853594
1.9142658710479736	360913.5330285547
1.9177782535552979	121511.5486891562
1.9212853908538818	83010.15186582906
1.9247875213623047	44213.59351075121
1.9282845258712769	31231.785612111118
1.9317764043807983	126870.80281759483
1.9352631568908691	295774.10498240753
1.9387450218200684	309336.0104092331
1.942221760749817	166734.66687359026
1.9456936120986938	79258.76566063993
1.9491604566574097	56355.40870248929
1.952622413635254	46267.1024591587
1.956079363822937	93529.2939164203
1.959531545639038	268738.66694256314
1.962978720664978	351942.99209073524
1.966421127319336	232966.49670710537
1.9698586463928223	167988.02228469282
1.9732913970947266	194691.64523926488
1.9767193794250488	264180.11596304714
1.9801424741744995	434027.8593548139
1.9835609197616577	556259.362836073
1.9869745969772339	704319.9732585398
1.990383505821228	998858.9412069608
1.9937876462936401	1141192.5674791113
1.9971871376037598	817535.6925745507
2.000581979751587	382790.13977225905
2.003972291946411	500289.84379068896
2.007357597351074	1056881.1305973232
2.0107386112213135	1535254.2257681075
2.0141148567199707	1539573.9006609023
2.017486572265625	1033829.7428841406
2.0208535194396973	469419.4920195558
2.0242159366607666	255416.68944175827
2.027573823928833	435853.8714495296
2.0309269428253174	774560.455459074
2.034275770187378	1578317.304870574
2.0376198291778564	3093024.4227467603
2.040959596633911	4254243.737745284
2.044294595718384	4544898.196526481
2.0476250648498535	4307872.295678086
2.0509510040283203	3616899.0385775263
2.054272413253784	3195753.1439035335
2.057589530944824	3715841.951393362
2.0609018802642822	4696998.3080627695
2.0642096996307373	5424283.625017823
2.0675129890441895	5672411.275896762
2.0708119869232178	5492285.493817194
2.074106216430664	5194555.578001347
2.0773961544036865	5298735.655457779
2.080681324005127	5615276.226373066
2.0839622020721436	5593275.866289464
2.087238311767578	5338486.810921715
2.090510129928589	5207722.189222494
2.0937774181365967	5236848.101019895
2.0970399379730225	5099967.3156360015
2.1002981662750244	4598346.334029098
2.1035518646240234	4240961.211889657
2.1068007946014404	4299459.161592144
2.1100454330444336	4351716.519692258
2.1132853031158447	4101812.3449772364
2.116520881652832	3515332.3570933496
2.1197516918182373	2929902.8396176063
2.1229779720306396	2621471.5041118134
2.12619948387146	2437663.92258734
2.1294167041778564	2402296.2535054367
2.132629156112671	2497493.3467938993
2.1358368396759033	2258360.951283615
2.139039993286133	1853127.8799340443
2.1422386169433594	1635439.124311283
2.145432472229004	1443431.2629422534
2.1486217975616455	1251583.5362913557
2.151806354522705	1027558.8363503163
2.1549863815307617	1028542.6680249213
2.1581614017486572	1289030.6275322216
2.16133189201355	1412716.128594501
2.1644976139068604	1319472.7918966436
2.167658567428589	1015016.5995957807
2.1708147525787354	810584.6046453315
2.173966407775879	1010157.8976292515
2.1771130561828613	1338295.50105432
2.1802549362182617	1356751.548519052
2.183391809463501	1026356.0781021987
2.1865241527557373	706564.9548109027
2.1896514892578125	585541.8712457841
2.1927738189697266	499090.84285100293
2.1958916187286377	301763.5549174979
2.1990041732788086	116738.85850773545
2.2021119594573975	48651.36339032516
2.2052149772644043	62892.04302087831
2.208312749862671	121746.97114599399
2.2114057540893555	199569.8758208024
2.214493751525879	245182.29338142768
2.217576742172241	189785.50203347206
2.2206547260284424	85342.49214077852
2.2237277030944824	35932.32223205957
2.2267956733703613	31203.525284949934
2.2298583984375	32506.280651797388
2.2329163551330566	32583.008224432095
2.235969066619873	35092.5087109353
2.2390167713165283	34803.88947468617
2.2420592308044434	27557.00126916404
2.2450966835021973	20797.606484750682
2.248128890991211	19509.584240613643
2.2511560916900635	22613.658197212346
2.254178285598755	31848.828492504766
2.257194995880127	50305.232343898366
2.260206699371338	52584.71697673439
2.2632133960723877	28280.470607604177
2.266214609146118	21465.913594866928
2.2692108154296875	58279.85446609045
2.2722020149230957	94796.12085612475
2.2751877307891846	81297.85345825383
2.278168201446533	48759.85530754494
2.2811436653137207	43910.94450670723
2.284113883972168	48988.07452482538
2.287078857421875	36555.286372065595
2.290038824081421	20611.18251109591
2.2929933071136475	16789.737700957237
2.295942783355713	15790.472495524218
2.298887014389038	10629.609113201966
2.301826238632202	9290.28794502745
2.304760217666626	29090.971156389816
2.3076889514923096	74460.38290489168
2.310612440109253	133888.83883161345
2.3135311603546143	201172.2741726589
2.3164443969726562	211867.08518535536
2.319352865219116	118791.27357037664
2.322256088256836	32478.260932100213
2.3251543045043945	15683.947568487407
2.328047275543213	15117.469013695809
2.330935478210449	11834.231085531159
2.3338186740875244	9079.154520349824
2.3366971015930176	6680.128969051499
2.3395702838897705	4810.209128463919
2.3424389362335205	3472.0567804780358
2.3453025817871094	2561.8798561510507
2.348161458969116	2988.887749105198
2.351015567779541	9501.549995384335
2.353865146636963	29911.713073436684
2.3567099571228027	61157.10838605226
2.3595502376556396	88594.58767715916
2.3623859882354736	90029.70832351422
2.3652172088623047	55448.2813656304
2.368043899536133	18252.791342787135
2.370866537094116	4528.923869466006
2.3736846446990967	3424.958878118062
2.3764986991882324	4206.979685266934
2.3793084621429443	5895.687972844345
2.3821144104003906	11622.243077314084
2.384916305541992	20086.943748982205
2.387714147567749	22731.234980034296
2.3905084133148193	17459.715494314645
2.393299102783203	12796.13158702355
2.3960859775543213	10767.600679321124
2.398869514465332	11496.605059025638
2.4016497135162354	22660.844923355242
2.4044265747070312	49375.05094294007
2.407200336456299	73960.23124436928
2.409970998764038	73617.74872407081
2.4127390384674072	59872.78118263689
2.415503978729248	59464.557963092804
2.418266534805298	77395.09694476967
2.4210267066955566	92329.72823483871
2.4237842559814453	84450.73070205632
2.426539897918701	77180.42537495811
2.429293394088745	104734.18953292364
2.4320452213287354	137652.62025721418
2.4347951412200928	134318.52329816797
2.4375438690185547	128955.21824965382
2.440291166305542	154178.92492085818
2.443037271499634	163056.09843477543
2.445782423019409	135790.71629230367
2.4485268592834473	124028.85461245629
2.451270818710327	167000.38380295612
2.454014539718628	233816.40147842298
2.4567582607269287	266076.30829753994
2.4595019817352295	280927.6415832188
2.4622461795806885	329398.7809831843
2.4649908542633057	402079.3398246885
2.4677364826202393	428640.5024525596
2.4704833030700684	361947.1476301393
2.473231554031372	246749.93651550927
2.4759814739227295	154075.2540515114
2.4787333011627197	100145.85797649251
