#wavelength	surface flux
0.6450077295303345	37451.48210680129
0.6472567915916443	58564.48684368855
0.6494921445846558	75480.96476629622
0.6517150402069092	85477.97490147784
0.6539263725280762	95664.56007247388
0.6561272740364075	106469.55804013125
0.6583186388015747	117938.07154036278
0.6605015397071838	130128.88334630433
0.6626768708229065	142948.43657434426
0.6648455858230591	155915.73998634247
0.6670085787773132	164190.05865728686
0.6691668033599854	158625.8732694364
0.6713210344314575	159508.04258015953
0.6734722256660461	191198.46558344096
0.6756211519241333	227667.0869577862
0.6777685880661011	250119.37302339132
0.6799154281616211	268531.928162048
0.6820623278617859	286630.352580444
0.6842101216316223	304657.6116559774
0.6863595843315125	322504.4245090475
0.688511312007904	339555.1780293612
0.6906660795211792	354133.7692519259
0.6928245425224304	367560.73308386846
0.6949873566627502	384241.2961966205
0.6971551775932312	402777.32172365295
0.6993286609649658	418297.0536552083
0.7015084028244019	430394.80147723743
0.7036949396133423	441562.12674936885
0.7058889269828796	452071.6250629255
0.7080909013748169	460386.6305070047
0.710301399230957	466162.8493927329
0.712520956993103	468643.7700806781
0.7147500514984131	465107.8419520005
0.7169892191886902	455113.7076583644
0.7192389369010925	445319.13520274014
0.7214996814727783	438176.8842884441
0.723771870136261	427171.8463601805
0.7260559797286987	410565.2306387052
0.7283523678779602	390877.56450986443
0.7306615710258484	369009.8769516811
0.7329838871955872	346066.9976021428
0.7353196740150452	320725.29875382973
0.7376693487167358	291744.62516293896
0.7400332689285278	261278.3089572345
0.7424117922782898	229887.11034832735
0.7448052167892456	197527.6665699558
0.7472138404846191	165395.0464549421
0.7496379613876343	134203.27488447062
0.7520779371261597	104777.86646694492
0.7545340061187744	78098.24559032591
0.7570064663887024	54856.376902334865
0.7594954967498779	35480.97353060395
0.7620013952255249	20097.781189708512
0.7645244002342224	9059.360984440642
0.7670646905899048	3356.8308131703748
0.7696225643157959	3541.246156051389
0.7721980810165405	10891.947345506946
0.7747915983200073	26185.20095947532
0.7774031162261963	46042.123762677424
0.7800329327583313	72112.14930910552
0.7826811671257019	115256.75146851878
0.7853479981422424	173858.1628792081
0.7880334854125977	237103.55959805637
0.7907378077507019	276669.65288637514
0.7934610247612	274605.4457147707
0.7962033748626709	350850.93277032184
0.7989648580551147	543727.7027492907
0.801745593547821	722663.7169601296
0.8045456409454346	864944.3966193232
0.8073651194572449	1003298.5405339208
0.8102040886878967	1135549.3813593965
0.8130625486373901	1278988.2267633576
0.8159406185150146	1457562.3120533088
0.8188382983207703	1663126.170954882
0.8217556476593018	1883981.0603840882
0.8246926665306091	2123614.0764468713
0.8276493549346924	2377475.68875093
0.8306257724761963	2637494.6394861634
0.8336219191551208	2901582.518708226
0.8366377949714661	3175750.116556799
0.8396733403205872	3477283.3292011926
0.8427285552024841	3821438.335121193
0.8458034992218018	4173332.1117314654
0.8488980531692505	4291404.974419665
0.8520121574401855	4307002.941146353
0.8551458716392517	4947183.469411253
0.8582990765571594	5923897.911836139
0.8614717125892639	6548498.661638424
0.8646637797355652	7040295.722228997
0.8678751587867737	7626569.362326841
0.8711057901382446	8257157.270779773
0.8743556141853333	8884238.55682967
0.87762451171875	9502468.463266555
0.8809124231338501	10086317.925437685
0.8842192888259888	10628418.582491713
0.8875449895858765	10915476.434802484
0.8908893465995789	10332827.30933255
0.894252359867096	9645625.627526406
0.8976338505744934	10961687.003971765
0.9010337591171265	13547695.177983368
0.9044519662857056	15425891.235098762
0.9078882932662964	16540089.007273968
0.9113426208496094	17319540.043932755
0.914814829826355	17777257.281066105
0.9183048605918884	18090942.77832648
0.9218124747276306	18241144.02390069
0.925337553024292	15621647.955063611
0.9288799166679382	10706550.016698757
0.9324395060539246	8831297.139985124
0.9360161423683167	10690399.350475812
0.9396095871925354	12671399.728720855
0.943219780921936	11836120.45810891
0.9468464851379395	9963633.448464718
0.9504896402359009	10583724.833775738
0.9541489481925964	12994821.230071506
0.9578243494033813	13902537.60907914
0.9615156054496765	12406824.201031499
0.9652225375175476	11781152.745081427
0.9689450263977051	14405880.512937963
0.9726828336715698	19261765.92412395
0.9764357805252075	22496315.606569234
0.9802037477493286	23402424.79530427
0.983986496925354	25145554.562942605
0.9877838492393494	28201311.153329156
0.9915955662727356	31214127.232288048
0.9954215884208679	33416391.78611153
0.9992615580558777	34704429.39574885
1.0031154155731201	36303184.67916906
1.0069829225540161	39287169.801362954
1.0108637809753418	43214320.36841883
1.0147579908370972	47256960.37525653
1.018665075302124	50501698.731245466
1.022585153579712	52553775.44368966
1.0265177488327026	54306943.53617848
1.0304628610610962	57127915.16471431
1.0344202518463135	60897461.54515624
1.0383895635604858	64199231.533643104
1.0423706769943237	66716271.12365992
1.0463634729385376	68851414.61301924
1.0503677129745483	70804290.05437833
1.0543830394744873	73184811.97310098
1.058409333229065	75875052.75538749
1.0624464750289917	78053063.2344689
1.0664942264556885	79418589.62107505
1.0705522298812866	80469391.83046935
1.0746204853057861	82148296.18793488
1.0786986351013184	84059022.23476893
1.0827864408493042	84500512.23149516
1.086883783340454	80272000.9002293
1.0909905433654785	68793713.49452676
1.0951062440872192	53942145.40754165
1.0992310047149658	38987215.89824796
1.10336434841156	24945666.68774915
1.1075061559677124	17830807.197115928
1.1116561889648438	15195845.97249635
1.115814208984375	12367190.354412397
1.1199802160263062	9935918.27621752
1.124153733253479	8346167.195866227
1.1283347606658936	9057974.329892104
1.1325229406356812	9414491.158879708
1.1367181539535522	11327852.761275526
1.1409201622009277	14433814.56167452
1.145128846168518	15155438.349217268
1.1493438482284546	14439043.394228505
1.1535650491714478	11125833.397712598
1.1577922105789185	8463498.856379883
1.1620250940322876	9145006.859313313
1.1662636995315552	10498043.968533471
1.170507550239563	11694596.971793098
1.174756646156311	14825389.64175643
1.1790107488632202	21987568.18851292
1.1832695007324219	32267871.09503715
1.1875330209732056	40504670.375524856
1.191800832748413	47859742.09862772
1.1960728168487549	56854555.384534344
1.2003488540649414	64037994.972631104
1.2046287059783936	70436348.18220934
1.2089121341705322	74715296.29917848
1.2131990194320679	78194277.01253687
1.2174891233444214	85427022.83212325
1.2217823266983032	93793872.22272503
1.2260783910751343	99994546.68547885
1.230377197265625	103763226.05665503
1.2346785068511963	106579843.7899026
1.238982081413269	106816555.42488568
1.2432878017425537	104732579.03313182
1.2475954294204712	103793142.11849858
1.2519049644470215	103339609.624552
1.256216049194336	109218241.10366945
1.2605286836624146	116979545.56017093
1.2648425102233887	117324566.36240743
1.2691574096679688	115717990.30370916
1.2734732627868652	114663741.58041412
1.2777899503707886	111711101.365541
1.2821072340011597	105775297.89188813
1.2864248752593994	98565428.11103004
1.2907428741455078	90739146.18242368
1.2950609922409058	85620442.61916947
1.2993791103363037	83746523.21860455
1.303696870803833	82888299.50297545
1.3080145120620728	82302964.83980699
1.3123314380645752	78947950.98129758
1.3166478872299194	74587393.70552355
1.3209635019302368	67158903.34685038
1.3252781629562378	51405174.78377463
1.3295916318893433	31559895.897442825
1.3339040279388428	14125579.394637758
1.3382149934768677	4098872.704647711
1.3425244092941284	1311124.186360581
1.3468321561813354	887180.1313275098
1.3511382341384888	576695.6961977715
1.3554422855377197	398334.8803339131
1.3597444295883179	466147.5296745803
1.3640443086624146	477752.31499193277
1.3683418035507202	536573.1471251334
1.3726370334625244	709693.155914006
1.3769296407699585	714897.6507702305
1.381219506263733	405900.8483431927
1.3855066299438477	194598.3147060178
1.3897908926010132	283900.96337646066
1.3940720558166504	475834.592482272
1.3983501195907593	691194.671325419
1.4026249647140503	1106802.2472079003
1.4068963527679443	1364452.6200021284
1.4111642837524414	958353.1170947372
1.4154287576675415	526946.3944102249
1.419689416885376	516171.84566082543
1.4239463806152344	689041.3116920853
1.4281994104385376	976795.4797387631
1.4324485063552856	1075618.4689985644
1.436693549156189	1077310.2714779908
1.440934419631958	1487867.0586376826
1.4451709985733032	2136993.623479846
1.449403166770935	2761106.6584339235
1.453631043434143	3405792.0961715025
1.4578542709350586	4305144.98027627
1.4620729684829712	5065109.225079346
1.4662868976593018	5216806.977608294
1.4704961776733398	5415618.287492616
1.4747005701065063	5816108.030330727
1.4788999557495117	5956383.459854219
1.4830944538116455	6295566.411269314
1.4872838258743286	6822197.368305637
1.491468071937561	7252834.4339306
1.4956470727920532	8430421.975103319
1.4998208284378052	10930797.573759835
1.5039892196655273	13191234.775690295
1.5081522464752197	13826339.58497174
1.5123097896575928	15161192.980886681
1.5164618492126465	18298250.923558205
1.5206083059310913	22394933.973623525
1.5247491598129272	25799381.043530304
1.5288842916488647	27242277.939979084
1.5330137014389038	29612658.90710342
1.5371372699737549	32303274.59279712
1.541254997253418	33858122.68670212
1.545366883277893	37073864.32266904
1.5494728088378906	40797266.93363891
1.5535727739334106	42690921.53615288
1.5576666593551636	44780335.331991345
1.561754584312439	48968670.96011598
1.5658363103866577	53738094.34565009
1.5699119567871094	56945141.77583727
1.5739814043045044	58370244.16444122
1.5780447721481323	59971345.70292642
1.582101821899414	63361025.97874268
1.5861525535583496	66926960.41656209
1.5901970863342285	67764671.32436222
1.5942351818084717	66958081.045565225
1.5982669591903687	66718324.086864896
1.6022924184799194	65402826.51271698
1.606311559677124	62761536.70799028
1.6103241443634033	60922222.26809787
1.6143304109573364	58865776.904556
1.6183301210403442	54759080.22788904
1.6223233938217163	49884393.58259457
1.6263102293014526	45953024.01605412
1.6302905082702637	43941611.24846284
1.634264349937439	47821528.15733266
1.638231635093689	56430882.2782125
1.6421923637390137	56880204.83661131
1.646146535873413	46938179.1423921
1.6500942707061768	43052821.11831533
1.6540353298187256	48830699.43485746
1.6579699516296387	52029175.24035255
1.661897897720337	47341010.96476165
1.6658192873001099	34266802.93818546
1.6697341203689575	25284863.175394412
1.6736423969268799	30099615.55523255
1.677544116973877	35057615.06975493
1.6814392805099487	34590803.72067151
1.6853278875350952	32265899.34230958
1.6892099380493164	27668727.473562833
1.6930854320526123	21882533.5870685
1.696954369544983	17554449.122385353
1.7008168697357178	17085102.272662487
1.7046726942062378	18977382.89692846
1.708522081375122	21714481.933782563
1.712364912033081	24490004.377358243
1.7162011861801147	26544569.110072736
1.7200311422348022	27267246.342371278
1.723854422569275	25750987.903772566
1.7276713848114014	23187595.597740278
1.731481909751892	20840151.05821846
1.7352858781814575	18752084.89425093
1.7390835285186768	16848506.41549489
1.7428747415542603	15018970.007374747
1.7466596364974976	13690709.343480192
1.7504380941390991	12228618.027598506
1.7542102336883545	9646298.690446481
1.7579760551452637	7863225.004263944
1.7617355585098267	7743844.892677247
1.7654887437820435	7128513.330839976
1.7692357301712036	5683906.805825992
1.7729763984680176	4418825.169983579
1.776710867881775	3317504.195588114
1.7804391384124756	2680851.5558057604
1.7841613292694092	2477321.804458118
1.7878772020339966	1989023.8620082603
1.7915871143341064	1535121.2194636548
1.7952908277511597	1504316.4293847466
1.7989884614944458	1489982.8348085869
1.8026801347732544	1060148.3342388512
1.806365728378296	615253.5996715188
1.8100452423095703	460847.1668336155
1.8137187957763672	386720.03585588944
1.817386507987976	361385.4421990901
1.8210482597351074	367753.82466710795
1.8247040510177612	355264.5915155277
1.828354001045227	328835.67305185145
1.8319982290267944	336511.9780679276
1.8356364965438843	362382.9542056876
1.8392690420150757	554864.4115940065
1.8428958654403687	1072792.8616368487
1.8465168476104736	1402454.86139161
1.8501322269439697	1117062.8965466188
1.8537418842315674	733081.2659979683
1.8573459386825562	708520.5718869619
1.860944390296936	716406.628953659
1.864537239074707	637249.1203236901
1.8681244850158691	653338.5815847621
1.871706247329712	649993.2009005549
1.8752825260162354	962298.8148762297
1.8788533210754395	1808361.4508215683
1.8824186325073242	2247540.3342203004
1.8859784603118896	1968528.1287034326
1.8895330429077148	1917384.3131083567
1.8930821418762207	2754780.4789940016
1.8966259956359863	3176542.8523560236
1.9001644849777222	1942532.6373943547
1.9036977291107178	1009587.8894130155
1.9072256088256836	1398260.504285855
1.9107483625411987	1403147.2839921496
1.9142658710479736	770408.9815586414
1.9177782535552979	425386.49150685186
1.9212853908538818	336693.14169383247
1.9247875213623047	341611.0667382001
1.9282845258712769	428244.1959574101
1.9317764043807983	547807.593265248
1.9352631568908691	733183.6702610218
1.9387450218200684	971051.2234501955
1.942221760749817	1199945.8071992877
1.9456936120986938	1229117.5654629902
1.9491604566574097	1246459.6434675409
1.952622413635254	1202993.7650602504
1.956079363822937	947606.5663962952
1.959531545639038	951294.6807652287
1.962978720664978	1381656.386589792
1.966421127319336	2336532.2244312386
1.9698586463928223	3341680.724005713
1.9732913970947266	3419673.7225267678
1.9767193794250488	3153115.796495053
1.9801424741744995	3575045.762395063
1.9835609197616577	4919082.8835434355
1.9869745969772339	5903029.03843104
1.990383505821228	5487692.012866943
1.9937876462936401	5419014.202303454
1.9971871376037598	5949161.2492793575
2.000581979751587	6444804.122730266
2.003972291946411	7461704.485198249
2.007357597351074	8603510.019875702
2.0107386112213135	9825251.959422281
2.0141148567199707	10552177.757818392
2.017486572265625	10552839.734537106
2.0208535194396973	12016809.743663557
2.0242159366607666	14187498.75161278
2.027573823928833	14523817.39156271
2.0309269428253174	14408135.81582482
2.034275770187378	15480240.27708565
2.0376198291778564	16659724.262037305
2.040959596633911	17396500.367417376
2.044294595718384	19244540.570847727
2.0476250648498535	22126383.198829133
2.0509510040283203	22706299.36900397
2.054272413253784	22172538.884713482
2.057589530944824	24171961.340691864
2.0609018802642822	26121208.89084996
2.0642096996307373	26433809.239152476
2.0675129890441895	27526707.160876166
2.0708119869232178	28789036.17781198
2.074106216430664	28370360.9957103
2.0773961544036865	27555944.799247053
2.080681324005127	27679181.41834407
2.0839622020721436	28085446.483117007
2.087238311767578	28503532.739887524
2.090510129928589	29041809.191369306
2.0937774181365967	29286481.58326427
2.0970399379730225	29274222.22856442
2.1002981662750244	28899303.9756154
2.1035518646240234	27976423.88761697
2.1068007946014404	27040945.658794057
2.1100454330444336	26887462.499728203
2.1132853031158447	27306198.97967037
2.116520881652832	27287861.926451903
2.1197516918182373	26982762.527037445
2.1229779720306396	26924336.310436625
2.12619948387146	26796964.711833034
2.1294167041778564	26426930.763645824
2.132629156112671	26073092.583772544
2.1358368396759033	25355211.201933432
2.139039993286133	24203244.28367247
2.1422386169433594	22818725.975724675
2.145432472229004	21540603.95794693
2.1486217975616455	20842212.54733364
2.151806354522705	20143722.455137864
2.1549863815307617	19802921.917899635
2.1581614017486572	19634313.787773106
2.16133189201355	18871520.420528922
2.1644976139068604	18267317.961704947
2.167658567428589	17758535.643426403
2.1708147525787354	16927025.02209414
2.173966407775879	15948113.585917993
2.1771130561828613	15006145.464588268
2.1802549362182617	14138434.79022872
2.183391809463501	13222755.164210858
2.1865241527557373	12227818.404312495
2.1896514892578125	11045216.54132962
2.1927738189697266	9247585.440332826
2.1958916187286377	6951080.690225925
2.1990041732788086	4903553.2434373945
2.2021119594573975	3530769.315530376
2.2052149772644043	2989656.859180543
2.208312749862671	3365855.130341658
2.2114057540893555	4227786.939970309
2.214493751525879	4807821.79138233
2.217576742172241	4801697.785232775
2.2206547260284424	4508199.595998797
2.2237277030944824	4253475.632650958
2.2267956733703613	3891260.704263397
2.2298583984375	3466061.917394541
2.2329163551330566	3177332.6895940662
2.235969066619873	2947180.0742918206
2.2390167713165283	2740783.2539513567
2.2420592308044434	2465178.2187002734
2.2450966835021973	2140505.5466958247
2.248128890991211	2104025.412628577
2.2511560916900635	2296420.7797863376
2.254178285598755	2319877.9270868986
2.257194995880127	2248152.631807561
2.260206699371338	2160111.6214882024
2.2632133960723877	1951105.505705489
2.266214609146118	1839233.5994151274
2.2692108154296875	1994506.6237189893
2.2722020149230957	2289944.0552174924
2.2751877307891846	2474099.8314813282
2.278168201446533	2393117.4377569817
2.2811436653137207	2172221.257074369
2.284113883972168	1981510.5040413835
2.287078857421875	1837639.2028458363
2.290038824081421	1708835.3681581113
2.2929933071136475	1656712.0217316619
2.295942783355713	1705001.4474779097
2.298887014389038	1808473.47804555
2.301826238632202	2056049.015808887
2.304760217666626	2603788.1630351045
2.3076889514923096	3485159.2596526854
2.310612440109253	4341132.040772008
2.3135311603546143	4253744.500218272
2.3164443969726562	2946872.774020086
2.319352865219116	1678837.018380553
2.322256088256836	1335765.9999701332
2.3251543045043945	1397698.3582990982
2.328047275543213	1396506.5097788083
2.330935478210449	1365383.0684902144
2.3338186740875244	1334058.363648905
2.3366971015930176	1291908.5303863126
2.3395702838897705	1231220.614741914
2.3424389362335205	1142254.6831170311
2.3453025817871094	1075782.678546603
2.348161458969116	1117078.177287874
2.351015567779541	1301941.8414324967
2.353865146636963	1578127.9956670508
2.3567099571228027	1864163.057553951
2.3595502376556396	2193217.7962138867
2.3623859882354736	2502395.4576937268
2.3652172088623047	2413386.879845778
2.368043899536133	1775892.259365418
2.370866537094116	1088396.5000791058
2.3736846446990967	881555.088708551
2.3764986991882324	1062206.1534417595
2.3793084621429443	1271954.5835762848
2.3821144104003906	1388629.335135896
2.384916305541992	1504712.527686855
2.387714147567749	1677471.6446686652
2.3905084133148193	1812305.1173440346
2.393299102783203	1857248.4338927604
2.3960859775543213	1884273.6033288182
2.398869514465332	1982809.5402262479
2.4016497135162354	2044993.1324743833
2.4044265747070312	1984714.9980589505
2.407200336456299	2025332.4133256688
2.409970998764038	2322244.4394190963
2.4127390384674072	2632903.6635193904
2.415503978729248	2659271.128189478
2.418266534805298	2535726.0442359047
2.4210267066955566	2537273.3844648013
2.4237842559814453	2610369.1172057153
2.426539897918701	2717210.6991703305
2.429293394088745	3058007.0673518907
2.4320452213287354	3441672.9566165595
2.4347951412200928	3384655.034597838
2.4375438690185547	3206742.211109789
2.440291166305542	3468981.6494510323
2.443037271499634	3568754.668757579
2.445782423019409	3062979.0594584453
2.4485268592834473	2599713.850202884
2.451270818710327	2534323.636872329
2.454014539718628	2752542.954148252
2.4567582607269287	3017897.6325511388
2.4595019817352295	3019063.364640071
2.4622461795806885	2954953.714926459
2.4649908542633057	2872076.8383019455
2.4677364826202393	2543941.579449241
2.4704833030700684	2163530.630557607
2.473231554031372	1842988.727059449
2.4759814739227295	1580198.040438572
2.4787333011627197	1484979.5209201796
