#wavelength	surface flux
0.6450077295303345	2170.0979811801512
0.6472567915916443	3379.121008596339
0.6494921445846558	4332.654657277098
0.6517150402069092	4883.99281258457
0.6539263725280762	5441.116531419809
0.6561272740364075	6028.103441621325
0.6583186388015747	6655.793507763203
0.6605015397071838	7339.271016865318
0.6626768708229065	8075.304448320764
0.6648455858230591	8850.481619108552
0.6670085787773132	9529.497245468729
0.6691668033599854	9835.649522574857
0.6713210344314575	10361.880060501144
0.6734722256660461	11780.970926247102
0.6756211519241333	13305.754903576904
0.6777685880661011	14451.356550775894
0.6799154281616211	15532.545966738197
0.6820623278617859	16635.517481112078
0.6842101216316223	17757.627162643406
0.6863595843315125	18885.504626427817
0.688511312007904	19959.65126242463
0.6906660795211792	20803.96596918082
0.6928245425224304	21514.058382606294
0.6949873566627502	22585.137286473284
0.6971551775932312	23957.687535545225
0.6993286609649658	25070.990975378154
0.7015084028244019	25861.54003373755
0.7036949396133423	26676.973631065895
0.7058889269828796	27537.671805903083
0.7080909013748169	28244.639992869696
0.710301399230957	28784.317493393264
0.712520956993103	29081.898491875312
0.7147500514984131	28796.855614766577
0.7169892191886902	27827.90527020884
0.7192389369010925	27048.534525697527
0.7214996814727783	26857.57392978851
0.723771870136261	26345.32501460073
0.7260559797286987	25278.695566527556
0.7283523678779602	24090.62615428048
0.7306615710258484	22913.403320612986
0.7329838871955872	21846.486840864207
0.7353196740150452	20632.54787270265
0.7376693487167358	19056.908331545143
0.7400332689285278	17380.69166648327
0.7424117922782898	15658.468449092734
0.7448052167892456	13843.811111188608
0.7472138404846191	12016.052662069304
0.7496379613876343	10191.2463767873
0.7520779371261597	8400.482150167152
0.7545340061187744	6698.066750488366
0.7570064663887024	5115.825008074048
0.7594954967498779	3666.656095807161
0.7620013952255249	2342.209974641791
0.7645244002342224	1205.0070315433434
0.7670646905899048	521.7818492026386
0.7696225643157959	552.2114830792575
0.7721980810165405	1462.0621649846087
0.7747915983200073	3150.303817011193
0.7774031162261963	5135.987814587379
0.7800329327583313	7466.291121515328
0.7826811671257019	10916.862597941064
0.7853479981422424	15404.429690148816
0.7880334854125977	20246.850423468557
0.7907378077507019	23557.60466623447
0.7934610247612	24032.093962093168
0.7962033748626709	30030.259793063888
0.7989648580551147	44419.92286496819
0.801745593547821	58143.39745829817
0.8045456409454346	69581.12572759543
0.8073651194572449	80611.67835831949
0.8102040886878967	90281.23315865514
0.8130625486373901	100798.847248519
0.8159406185150146	116466.94146492302
0.8188382983207703	136513.71990071036
0.8217556476593018	157502.23615262227
0.8246926665306091	180022.16602591448
0.8276493549346924	204825.09312363903
0.8306257724761963	230273.71336663514
0.8336219191551208	256089.91385983603
0.8366377949714661	284181.250888463
0.8396733403205872	317597.9156630707
0.8427285552024841	358472.52755228453
0.8458034992218018	403676.0135046824
0.8488980531692505	429396.4937259033
0.8520121574401855	445315.79285983543
0.8551458716392517	518699.02358166437
0.8582990765571594	625924.2540960689
0.8614717125892639	706790.9249167672
0.8646637797355652	778232.9099846759
0.8678751587867737	858272.4851688513
0.8711057901382446	946866.5168228969
0.8743556141853333	1038134.3777073476
0.87762451171875	1123045.5677442646
0.8809124231338501	1189092.5254982915
0.8842192888259888	1238773.3710275567
0.8875449895858765	1263087.9359079811
0.8908893465995789	1188879.3566020245
0.894252359867096	1098230.3769683614
0.8976338505744934	1273420.8162915518
0.9010337591171265	1657126.6963455537
0.9044519662857056	1966864.0122375104
0.9078882932662964	2138545.8744707564
0.9113426208496094	2247898.8247064915
0.914814829826355	2307834.388638923
0.9183048605918884	2346993.98044756
0.9218124747276306	2391036.2493230863
0.925337553024292	1985442.3965374243
0.9288799166679382	1156927.5296756169
0.9324395060539246	753476.3142846767
0.9360161423683167	963056.0406801811
0.9396095871925354	1259171.9387570058
0.943219780921936	1102968.7473785907
0.9468464851379395	767353.3632772996
0.9504896402359009	834738.6688202769
0.9541489481925964	1186935.8992405809
0.9578243494033813	1335057.320032861
0.9615156054496765	1136633.2334095654
0.9652225375175476	1099235.7050635978
0.9689450263977051	1646023.8588918482
0.9726828336715698	2559105.2326790798
0.9764357805252075	3123224.053357071
0.9802037477493286	3292059.7014631354
0.983986496925354	3693577.396091317
0.9877838492393494	4422809.569560865
0.9915955662727356	5226206.173643502
0.9954215884208679	5974493.139505207
0.9992615580558777	6608005.48784728
1.0031154155731201	7214511.04032122
1.0069829225540161	7969096.377309206
1.0108637809753418	8863698.481108679
1.0147579908370972	9767351.484719142
1.018665075302124	10471781.572136596
1.022585153579712	10884769.891111458
1.0265177488327026	11202511.758934932
1.0304628610610962	11725761.595041228
1.0344202518463135	12478432.082332468
1.0383895635604858	13145652.608617714
1.0423706769943237	13582700.592852093
1.0463634729385376	13866561.21497726
1.0503677129745483	14114800.600350069
1.0543830394744873	14473017.503252069
1.058409333229065	14895865.255266014
1.0624464750289917	15180866.141551992
1.0664942264556885	15179107.389691481
1.0705522298812866	15043723.501068663
1.0746204853057861	15110278.743575243
1.0786986351013184	15265437.691999093
1.0827864408493042	15125222.346409235
1.086883783340454	14088041.765243433
1.0909905433654785	11655887.717740161
1.0951062440872192	8575965.581861194
1.0992310047149658	5641577.07875609
1.10336434841156	3150641.0270151137
1.1075061559677124	1905235.0356216582
1.1116561889648438	1417371.0679019697
1.115814208984375	938227.4208266954
1.1199802160263062	619459.6816828965
1.124153733253479	454734.2663193769
1.1283347606658936	530916.474670275
1.1325229406356812	695819.2239568607
1.1367181539535522	1098531.9488367445
1.1409201622009277	1421208.8447588969
1.145128846168518	1272938.2233060298
1.1493438482284546	1024523.939766399
1.1535650491714478	688920.186115876
1.1577922105789185	475836.38918400486
1.1620250940322876	603100.3793986844
1.1662636995315552	857425.9402084703
1.170507550239563	1218593.1701264952
1.174756646156311	2015957.0137726276
1.1790107488632202	3440302.2919156174
1.1832695007324219	5290640.540529682
1.1875330209732056	6912533.507634153
1.191800832748413	8672397.927081248
1.1960728168487549	10827120.14061349
1.2003488540649414	12594013.766247505
1.2046287059783936	14165180.032860044
1.2089121341705322	15235927.66858422
1.2131990194320679	16072833.199827865
1.2174891233444214	17647565.91873637
1.2217823266983032	19490423.43531336
1.2260783910751343	21013860.268957034
1.230377197265625	22149387.55870813
1.2346785068511963	23251302.36961979
1.238982081413269	24447535.80794357
1.2432878017425537	25451082.91267365
1.2475954294204712	26219488.61011206
1.2519049644470215	26901414.404687654
1.256216049194336	28065908.8988334
1.2605286836624146	29008504.546024997
1.2648425102233887	29028354.64702504
1.2691574096679688	28922778.840743195
1.2734732627868652	28782741.480950236
1.2777899503707886	27769600.447040696
1.2821072340011597	25606167.12088215
1.2864248752593994	23015519.514574237
1.2907428741455078	20253626.936699912
1.2950609922409058	18341461.028321173
1.2993791103363037	17558880.446028646
1.303696870803833	17270055.947596684
1.3080145120620728	17027867.22648876
1.3123314380645752	16083045.561698465
1.3166478872299194	15427209.068963008
1.3209635019302368	14060972.749099288
1.3252781629562378	10269488.578402534
1.3295916318893433	5719109.520114415
1.3339040279388428	2254281.062168291
1.3382149934768677	553135.5419909401
1.3425244092941284	128125.76765720134
1.3468321561813354	57046.89770974791
1.3511382341384888	31961.066389534106
1.3554422855377197	14979.364602258613
1.3597444295883179	13782.722275414171
1.3640443086624146	10599.858597263918
1.3683418035507202	10868.838026223782
1.3726370334625244	16908.358022467768
1.3769296407699585	17147.496229104687
1.381219506263733	8291.75892849439
1.3855066299438477	3495.5393217207834
1.3897908926010132	7538.974065188303
1.3940720558166504	16806.74588387379
1.3983501195907593	33348.89849639227
1.4026249647140503	62166.88390691095
1.4068963527679443	76597.04211197946
1.4111642837524414	49649.27188312795
1.4154287576675415	21297.614354435358
1.419689416885376	19468.92948908679
1.4239463806152344	30235.599366464827
1.4281994104385376	49655.9781682886
1.4324485063552856	60799.758444762636
1.436693549156189	71469.95099728719
1.440934419631958	123360.97741098136
1.4451709985733032	201662.54911904072
1.449403166770935	282835.13971742505
1.453631043434143	380766.84755307715
1.4578542709350586	528137.7198259013
1.4620729684829712	617069.9488345063
1.4662868976593018	576250.7091311677
1.4704961776733398	555457.8916923427
1.4747005701065063	564474.0301462415
1.4788999557495117	525136.9192917503
1.4830944538116455	491938.9609362402
1.4872838258743286	447060.1121345144
1.491468071937561	399246.4749329041
1.4956470727920532	465911.045006121
1.4998208284378052	754249.7105491535
1.5039892196655273	1163351.3121342158
1.5081522464752197	1348940.8721420562
1.5123097896575928	1545658.5586743376
1.5164618492126465	2053365.3815608388
1.5206083059310913	2628800.100251112
1.5247491598129272	3237408.2802657173
1.5288842916488647	3990772.3256882387
1.5330137014389038	4672102.294543102
1.5371372699737549	5458112.202558072
1.541254997253418	6514896.258402238
1.545366883277893	7426868.548794955
1.5494728088378906	8302140.659823041
1.5535727739334106	9429753.258166375
1.5576666593551636	10786922.505844148
1.561754584312439	12519006.69374286
1.5658363103866577	14206963.837961338
1.5699119567871094	14921339.604842296
1.5739814043045044	14773810.775300717
1.5780447721481323	14687756.251760162
1.582101821899414	15206044.175718542
1.5861525535583496	15814735.347691651
1.5901970863342285	15545465.797032887
1.5942351818084717	14738427.217743931
1.5982669591903687	14116562.868834926
1.6022924184799194	13202007.616669413
1.606311559677124	11971208.162252324
1.6103241443634033	10993400.627298975
1.6143304109573364	9949179.185512137
1.6183301210403442	8442620.192980606
1.6223233938217163	6787559.895036235
1.6263102293014526	5462179.879388889
1.6302905082702637	4795404.199219299
1.634264349937439	5624836.061187326
1.638231635093689	7631220.4862296805
1.6421923637390137	7663095.950570834
1.646146535873413	5148246.277483204
1.6500942707061768	4175714.3361790353
1.6540353298187256	5597016.98083683
1.6579699516296387	6429683.801309504
1.661897897720337	5745349.7623456465
1.6658192873001099	3829489.5970914164
1.6697341203689575	2388636.297328831
1.6736423969268799	2709044.769447548
1.677544116973877	2997323.886883073
1.6814392805099487	2778782.194287785
1.6853278875350952	2570884.1708372384
1.6892099380493164	2130039.547384751
1.6930854320526123	1558186.1593007254
1.696954369544983	1097111.755081571
1.7008168697357178	1005032.7522716351
1.7046726942062378	1186179.6061736364
1.708522081375122	1583314.1285185511
1.712364912033081	2191519.7753875535
1.7162011861801147	2817982.9888824183
1.7200311422348022	3193848.3287840527
1.723854422569275	3052847.1166796526
1.7276713848114014	2666347.392139981
1.731481909751892	2404907.389287315
1.7352858781814575	2274053.157317845
1.7390835285186768	2227297.6338682654
1.7428747415542603	2149618.5576462797
1.7466596364974976	2022115.625523817
1.7504380941390991	1822696.6519747826
1.7542102336883545	1461551.3159973444
1.7579760551452637	1191549.7355948184
1.7617355585098267	1110957.5578346155
1.7654887437820435	946410.5483947005
1.7692357301712036	723415.7237433925
1.7729763984680176	557675.0757206626
1.776710867881775	406960.8789135948
1.7804391384124756	323055.68922215473
1.7841613292694092	299513.5078368301
1.7878772020339966	224593.61312642827
1.7915871143341064	148946.55286250354
1.7952908277511597	147071.9001892273
1.7989884614944458	158482.6555981578
1.8026801347732544	102876.24982208031
1.806365728378296	40711.162127405405
1.8100452423095703	23174.427308596325
1.8137187957763672	16111.709413800629
1.817386507987976	12675.216066526647
1.8210482597351074	12091.266578642999
1.8247040510177612	10712.27635761403
1.828354001045227	8142.882422623396
1.8319982290267944	7142.749439909913
1.8356364965438843	7840.1359059434
1.8392690420150757	18914.61525727749
1.8428958654403687	59333.07852967447
1.8465168476104736	95039.38965576573
1.8501322269439697	75402.57961436325
1.8537418842315674	46152.019716346695
1.8573459386825562	56695.06724429465
1.860944390296936	59591.013946784835
1.864537239074707	37577.36686135028
1.8681244850158691	25429.835155578883
1.871706247329712	22065.04771637318
1.8752825260162354	56234.4832234116
1.8788533210754395	157344.9539624147
1.8824186325073242	203223.46264491644
1.8859784603118896	139379.705789111
1.8895330429077148	119166.88780529768
1.8930821418762207	243924.0517868217
1.8966259956359863	312501.5968932185
1.9001644849777222	165922.59744147962
1.9036977291107178	45262.77890037523
1.9072256088256836	55655.34219486341
1.9107483625411987	55411.13811480173
1.9142658710479736	25501.689419620096
1.9177782535552979	10809.96430181083
1.9212853908538818	8321.604359396528
1.9247875213623047	9210.768713047371
1.9282845258712769	12722.429838438979
1.9317764043807983	16841.681399572837
1.9352631568908691	23855.529606401316
1.9387450218200684	32426.698190224488
1.942221760749817	38175.728180391445
1.9456936120986938	47466.96711231157
1.9491604566574097	72383.81093766664
1.952622413635254	79096.62437453694
1.956079363822937	52880.082970519274
1.959531545639038	50770.00425655461
1.962978720664978	96873.51030100275
1.966421127319336	169667.97363898513
1.9698586463928223	238237.35292580636
1.9732913970947266	249359.3469193092
1.9767193794250488	197610.4518267499
1.9801424741744995	203063.3930527014
1.9835609197616577	346851.293497798
1.9869745969772339	455728.2981581926
1.990383505821228	392384.56973492744
1.9937876462936401	312256.1862389106
1.9971871376037598	436512.5220022771
2.000581979751587	641685.651367762
2.003972291946411	610088.388962269
2.007357597351074	628039.3668756431
2.0107386112213135	949324.7376487434
2.0141148567199707	1070069.8084365262
2.017486572265625	937926.6322440035
2.0208535194396973	896785.0819071647
2.0242159366607666	884046.6024362847
2.027573823928833	997281.941235147
2.0309269428253174	1190862.3107057693
2.034275770187378	1251003.2622905693
2.0376198291778564	1383094.5779649452
2.040959596633911	1652152.14382172
2.044294595718384	1983136.9087804635
2.0476250648498535	2356468.0330853546
2.0509510040283203	2468720.220049714
2.054272413253784	2340706.1446836875
2.057589530944824	2443724.5740141068
2.0609018802642822	2729053.0816627136
2.0642096996307373	2866020.844203367
2.0675129890441895	2896805.1077565276
2.0708119869232178	2906963.842447545
2.074106216430664	2883597.6021222286
2.0773961544036865	2858948.455302406
2.080681324005127	2845801.435495196
2.0839622020721436	2852308.765378819
2.087238311767578	2886058.6112431777
2.090510129928589	2903102.129961946
2.0937774181365967	2878300.4723788695
2.0970399379730225	2840301.5965745854
2.1002981662750244	2786365.6020998647
2.1035518646240234	2711468.0457839505
2.1068007946014404	2633614.101827363
2.1100454330444336	2581999.885305577
2.1132853031158447	2561241.5256035207
2.116520881652832	2527640.266963604
2.1197516918182373	2474704.416849083
2.1229779720306396	2431341.8417894184
2.12619948387146	2394482.0468706344
2.1294167041778564	2352121.5248005
2.132629156112671	2308618.555588205
2.1358368396759033	2237884.7771911747
2.139039993286133	2150043.86877394
2.1422386169433594	2038971.9588111509
2.145432472229004	1929778.634400187
2.1486217975616455	1855421.8879000277
2.151806354522705	1739986.8507501066
2.1549863815307617	1672972.7075201294
2.1581614017486572	1670286.474964456
2.16133189201355	1612947.0624909133
2.1644976139068604	1538840.7951192618
2.167658567428589	1478327.6658178119
2.1708147525787354	1450128.9351758854
2.173966407775879	1439777.5671029182
2.1771130561828613	1369045.5378813809
2.1802549362182617	1241728.234190443
2.183391809463501	1139979.6996548641
2.1865241527557373	1050351.2761163076
2.1896514892578125	869332.0720481828
2.1927738189697266	602320.3305455595
2.1958916187286377	389174.88218535134
2.1990041732788086	274290.2270508346
2.2021119594573975	202076.08477187037
2.2052149772644043	179322.59574056993
2.208312749862671	214850.29786067893
2.2114057540893555	282558.84433907515
2.214493751525879	338324.3460212638
2.217576742172241	340042.23312066006
2.2206547260284424	291056.9637391705
2.2237277030944824	236022.93397206473
2.2267956733703613	205753.23610154493
2.2298583984375	196188.43588658696
2.2329163551330566	189442.05262766377
2.235969066619873	176723.17624860353
2.2390167713165283	158634.38817854694
2.2420592308044434	124059.98790363388
2.2450966835021973	76411.2730507221
2.248128890991211	61456.864349046635
2.2511560916900635	85316.48147013952
2.254178285598755	95757.33876054648
2.257194995880127	89765.67462440794
2.260206699371338	90380.64019232415
2.2632133960723877	89945.83174564451
2.266214609146118	92238.02282566592
2.2692108154296875	108934.69388811826
2.2722020149230957	134775.165983124
2.2751877307891846	149386.0426801858
2.278168201446533	139508.82102549102
2.2811436653137207	116913.01315350759
2.284113883972168	99116.58816904278
2.287078857421875	88762.06822144691
2.290038824081421	81408.30223881168
2.2929933071136475	80266.44381853496
2.295942783355713	81491.77829250692
2.298887014389038	73649.2991316419
2.301826238632202	68043.02084001682
2.304760217666626	100566.73393720598
2.3076889514923096	182994.31397286578
2.310612440109253	278197.2952063036
2.3135311603546143	293381.11767173826
2.3164443969726562	184978.05320177053
2.319352865219116	81469.95140284924
2.322256088256836	69363.59859480616
2.3251543045043945	81505.96113644201
2.328047275543213	74694.52809667897
2.330935478210449	70906.90341562245
2.3338186740875244	74771.29305365065
2.3366971015930176	69888.01917159297
2.3395702838897705	59500.161513597275
2.3424389362335205	49476.24187274414
2.3453025817871094	42707.55295720937
2.348161458969116	44570.46580920452
2.351015567779541	58129.86188844864
2.353865146636963	80505.87562029794
2.3567099571228027	108736.68802621424
2.3595502376556396	148456.0627498722
2.3623859882354736	185770.62236017172
2.3652172088623047	174645.8340380065
2.368043899536133	109588.30233854576
2.370866537094116	50118.83167369675
2.3736846446990967	36926.79892210728
2.3764986991882324	57017.98188072578
2.3793084621429443	83315.0137474531
2.3821144104003906	96378.13398276966
2.384916305541992	100001.60244437958
2.387714147567749	110487.04829203372
2.3905084133148193	124550.00117136948
2.393299102783203	129999.15318980944
2.3960859775543213	129032.83549494437
2.398869514465332	136475.17926022792
2.4016497135162354	145561.58639920616
2.4044265747070312	143864.90214776326
2.407200336456299	155234.46650382888
2.409970998764038	202715.25928808693
2.4127390384674072	254007.4598512682
2.415503978729248	261565.8201790176
2.418266534805298	245256.13027414604
2.4210267066955566	248437.15330137484
2.4237842559814453	261548.93935603453
2.426539897918701	285358.34623464907
2.429293394088745	357852.6911313554
2.4320452213287354	434720.491786318
2.4347951412200928	430368.71200195025
2.4375438690185547	418652.06974428106
2.440291166305542	499866.22127482365
2.443037271499634	542393.2975653439
2.445782423019409	444299.45776959474
2.4485268592834473	342726.14127519046
2.451270818710327	349182.01529148355
2.454014539718628	426624.49265894206
2.4567582607269287	495678.8377243793
2.4595019817352295	518994.9761157493
2.4622461795806885	519209.37324272696
2.4649908542633057	493863.7328169328
2.4677364826202393	428120.67505271645
2.4704833030700684	357934.20341222873
2.473231554031372	306412.0599050705
2.4759814739227295	272697.6304318696
2.4787333011627197	264096.06459510705
