#wavelength	surface flux
0.6450077295303345	103598.50807367533
0.6472567915916443	161746.0413491437
0.6494921445846558	207925.3134872292
0.6517150402069092	234746.6632706426
0.6539263725280762	261893.53313670366
0.6561272740364075	290489.63951438275
0.6583186388015747	320585.2833711634
0.6605015397071838	352226.2969985891
0.6626768708229065	384641.01702423836
0.6648455858230591	414481.17451674235
0.6670085787773132	421123.5438829632
0.6691668033599854	373981.4155360086
0.6713210344314575	352841.1528925598
0.6734722256660461	452413.7172862467
0.6756211519241333	578820.6775209644
0.6777685880661011	652107.8670482875
0.6799154281616211	703601.6275987132
0.6820623278617859	750901.431126041
0.6842101216316223	796435.8076822826
0.6863595843315125	840186.383066675
0.688511312007904	878330.6180927592
0.6906660795211792	903937.3745153263
0.6928245425224304	927925.0470752044
0.6949873566627502	970184.72952162
0.6971551775932312	1021152.1614602905
0.6993286609649658	1059421.8688600564
0.7015084028244019	1084285.7559044007
0.7036949396133423	1106299.288316612
0.7058889269828796	1127261.0174262028
0.7080909013748169	1142236.8982052095
0.710301399230957	1150271.3728526358
0.712520956993103	1149323.3624909278
0.7147500514984131	1130615.8110502264
0.7169892191886902	1093658.924876134
0.7192389369010925	1060259.3543782793
0.7214996814727783	1037783.264240884
0.723771870136261	1007864.002328681
0.7260559797286987	965047.9006678718
0.7283523678779602	914431.9874173274
0.7306615710258484	859152.7587574184
0.7329838871955872	804018.8399175822
0.7353196740150452	745395.6983340528
0.7376693487167358	679170.711875931
0.7400332689285278	611327.7021554346
0.7424117922782898	542273.3741427913
0.7448052167892456	470602.3858455857
0.7472138404846191	399069.949212849
0.7496379613876343	328632.25651529245
0.7520779371261597	260401.8394814296
0.7545340061187744	196363.68969964146
0.7570064663887024	138293.61896817177
0.7594954967498779	88035.95662164863
0.7620013952255249	47622.48463530958
0.7645244002342224	19690.006699089714
0.7670646905899048	6272.606344066344
0.7696225643157959	6694.401757038536
0.7721980810165405	23777.999144347566
0.7747915983200073	61328.05073605662
0.7774031162261963	111226.69049788748
0.7800329327583313	175393.6217184037
0.7826811671257019	278758.35478637036
0.7853479981422424	414854.911941188
0.7880334854125977	555818.8507813695
0.7907378077507019	637966.1223230673
0.7934610247612	622048.4639427104
0.7962033748626709	779995.248043785
0.7989648580551147	1195955.6115524154
0.801745593547821	1575115.902614058
0.8045456409454346	1867555.8945349485
0.8073651194572449	2141300.501159187
0.8102040886878967	2387737.1205282607
0.8130625486373901	2656028.399317738
0.8159406185150146	2997238.7859908715
0.8188382983207703	3395008.620697439
0.8217556476593018	3858291.8826181116
0.8246926665306091	4374950.076201927
0.8276493549346924	4893459.805682955
0.8306257724761963	5402627.485307652
0.8336219191551208	5899259.585982745
0.8366377949714661	6387273.47957516
0.8396733403205872	6904756.165153707
0.8427285552024841	7498573.969772712
0.8458034992218018	8129371.90906355
0.8488980531692505	8293942.876842563
0.8520121574401855	8212084.666571343
0.8551458716392517	9345288.217867844
0.8582990765571594	10902805.253051125
0.8614717125892639	11182976.858776618
0.8646637797355652	11236866.68261715
0.8678751587867737	12059763.672558842
0.8711057901382446	12949646.937813682
0.8743556141853333	13609543.168016855
0.87762451171875	14223888.531781068
0.8809124231338501	14783179.02132441
0.8842192888259888	15472758.783991672
0.8875449895858765	15697175.376524676
0.8908893465995789	14557198.263822235
0.894252359867096	13733393.524797492
0.8976338505744934	15550187.346460292
0.9010337591171265	18661080.422254905
0.9044519662857056	20912862.538486604
0.9078882932662964	22095012.05772968
0.9113426208496094	22634763.229030482
0.914814829826355	22552408.655011408
0.9183048605918884	22193326.82369532
0.9218124747276306	21856129.30430084
0.925337553024292	18227967.37330288
0.9288799166679382	11913916.132021008
0.9324395060539246	9387325.879233213
0.9360161423683167	11093126.562432004
0.9396095871925354	12997137.261060784
0.943219780921936	11948494.03020235
0.9468464851379395	9721349.39495814
0.9504896402359009	10217776.037612747
0.9541489481925964	12721268.449564628
0.9578243494033813	13563748.815284794
0.9615156054496765	11747337.348190613
0.9652225375175476	10874984.5776842
0.9689450263977051	13402365.119236432
0.9726828336715698	18240027.507508032
0.9764357805252075	21296649.749282993
0.9802037477493286	21842941.071498208
0.983986496925354	23298114.571197513
0.9877838492393494	26029679.134254884
0.9915955662727356	28633982.223294746
0.9954215884208679	30546753.071911946
0.9992615580558777	31470172.368605934
1.0031154155731201	32534649.88402504
1.0069829225540161	34984019.20118805
1.0108637809753418	38357909.37748662
1.0147579908370972	41938751.0039934
1.018665075302124	44619578.3722519
1.022585153579712	45396087.5914261
1.0265177488327026	45115528.68685747
1.0304628610610962	46523675.88396691
1.0344202518463135	50280136.91740894
1.0383895635604858	53363147.62021942
1.0423706769943237	54898441.96794866
1.0463634729385376	55773638.17562541
1.0503677129745483	55962507.65079022
1.0543830394744873	57107414.96751125
1.058409333229065	59369503.391576774
1.0624464750289917	60870025.75553702
1.0664942264556885	61345126.631192714
1.0705522298812866	61546712.96764649
1.0746204853057861	62446881.296611845
1.0786986351013184	63716651.42850941
1.0827864408493042	63899181.90194397
1.086883783340454	60818997.86012416
1.0909905433654785	52674493.07930026
1.0951062440872192	42088053.290333755
1.0992310047149658	30935820.42989233
1.10336434841156	19948834.925233882
1.1075061559677124	14550649.949389601
1.1116561889648438	13027478.30806557
1.115814208984375	11089910.125717837
1.1199802160263062	8799100.483936612
1.124153733253479	7052541.305933041
1.1283347606658936	7497086.134957334
1.1325229406356812	7774779.142212463
1.1367181539535522	9320403.042506145
1.1409201622009277	11916029.289143011
1.145128846168518	12683803.64470974
1.1493438482284546	12295572.96320813
1.1535650491714478	9639600.0197458
1.1577922105789185	7432220.729370899
1.1620250940322876	8100993.8280033
1.1662636995315552	9285745.766046291
1.170507550239563	10286695.5821477
1.174756646156311	13206406.623012759
1.1790107488632202	19553003.61867385
1.1832695007324219	27999496.78072917
1.1875330209732056	34250565.82824633
1.191800832748413	39472451.40443001
1.1960728168487549	45964419.55736784
1.2003488540649414	50753193.47831851
1.2046287059783936	54897828.15671318
1.2089121341705322	58162191.45054876
1.2131990194320679	60915361.55246276
1.2174891233444214	66064724.09203252
1.2217823266983032	72044880.70033881
1.2260783910751343	76389645.08212064
1.230377197265625	78956758.97864047
1.2346785068511963	81153098.30974737
1.238982081413269	81670685.66371131
1.2432878017425537	80253810.37199047
1.2475954294204712	79529292.94500713
1.2519049644470215	79086324.54150191
1.256216049194336	83092122.61800383
1.2605286836624146	87734192.54279879
1.2648425102233887	86650947.34066094
1.2691574096679688	84877530.86947554
1.2734732627868652	83985459.96181363
1.2777899503707886	82006280.5785198
1.2821072340011597	77964256.63362843
1.2864248752593994	72730066.96282221
1.2907428741455078	67157512.81115621
1.2950609922409058	63924227.82116746
1.2993791103363037	62940809.515361674
1.303696870803833	62676740.912132174
1.3080145120620728	62915901.104966134
1.3123314380645752	60887792.79057416
1.3166478872299194	57579694.15654936
1.3209635019302368	52313824.62450953
1.3252781629562378	41270763.25840511
1.3295916318893433	26516528.6563758
1.3339040279388428	12525605.969041385
1.3382149934768677	3965973.3965280894
1.3425244092941284	1456524.9983796738
1.3468321561813354	1056358.130491676
1.3511382341384888	697080.2328129215
1.3554422855377197	497562.3478172713
1.3597444295883179	588363.3698106508
1.3640443086624146	608611.7454171209
1.3683418035507202	680722.9199498928
1.3726370334625244	883887.234656754
1.3769296407699585	884656.5227132285
1.381219506263733	510173.2157402226
1.3855066299438477	255604.23535849273
1.3897908926010132	366524.8913634735
1.3940720558166504	593685.975857101
1.3983501195907593	834295.1941275658
1.4026249647140503	1298141.8245540753
1.4068963527679443	1591807.7448681346
1.4111642837524414	1139848.6870976486
1.4154287576675415	659718.6971864629
1.419689416885376	655444.9634041201
1.4239463806152344	854208.915208109
1.4281994104385376	1180462.0292116983
1.4324485063552856	1287935.519746672
1.436693549156189	1273628.322368574
1.440934419631958	1696815.5061631023
1.4451709985733032	2376187.893256258
1.449403166770935	2999001.712024819
1.453631043434143	3602788.8599155582
1.4578542709350586	4467077.43361994
1.4620729684829712	5218846.116618629
1.4662868976593018	5383706.083933018
1.4704961776733398	5590227.283798746
1.4747005701065063	5987187.537269452
1.4788999557495117	6136878.911936898
1.4830944538116455	6486873.670728849
1.4872838258743286	7043581.03492884
1.491468071937561	7485330.67108016
1.4956470727920532	8575505.347174777
1.4998208284378052	10863944.32467705
1.5039892196655273	12866102.219588043
1.5081522464752197	13370615.1974225
1.5123097896575928	14540755.601460487
1.5164618492126465	17359882.787181027
1.5206083059310913	21177411.38137691
1.5247491598129272	24260419.30210649
1.5288842916488647	25153941.39330278
1.5330137014389038	27034537.01188407
1.5371372699737549	29367803.43590026
1.541254997253418	30233394.5686293
1.545366883277893	32579781.62767228
1.5494728088378906	35619906.717991486
1.5535727739334106	36506479.837207146
1.5576666593551636	36216767.289411195
1.561754584312439	37926771.45932231
1.5658363103866577	42868994.18468505
1.5699119567871094	47283757.36028228
1.5739814043045044	48173872.82948752
1.5780447721481323	48345567.402064055
1.582101821899414	52306094.23154232
1.5861525535583496	58377820.75952866
1.5901970863342285	60386049.170599915
1.5942351818084717	58927455.374834344
1.5982669591903687	58145907.074404016
1.6022924184799194	58471394.73083653
1.606311559677124	59127164.72481256
1.6103241443634033	59112968.61195195
1.6143304109573364	57589935.56675262
1.6183301210403442	55911808.084788226
1.6223233938217163	55637786.23257093
1.6263102293014526	55674941.54521701
1.6302905082702637	54906070.91692654
1.634264349937439	58396006.028774455
1.638231635093689	66353424.94005034
1.6421923637390137	66413207.18777831
1.646146535873413	58199430.52591093
1.6500942707061768	56436537.81069531
1.6540353298187256	62869116.19978343
1.6579699516296387	66322241.24514356
1.661897897720337	60989613.81032155
1.6658192873001099	46741372.387279674
1.6697341203689575	38243350.15542957
1.6736423969268799	45755567.59674036
1.677544116973877	52956493.596613206
1.6814392805099487	53051550.56043362
1.6853278875350952	49285100.2851869
1.6892099380493164	41022382.851573035
1.6930854320526123	32645612.240507565
1.696954369544983	28111112.45712666
1.7008168697357178	28150795.639382742
1.7046726942062378	30280470.314675104
1.708522081375122	32450512.490497164
1.712364912033081	33857020.06509548
1.7162011861801147	34338962.281550586
1.7200311422348022	33694011.27794568
1.723854422569275	31015227.52104806
1.7276713848114014	27579590.368946448
1.731481909751892	24377437.499581005
1.7352858781814575	21465749.96171644
1.7390835285186768	18875586.388511375
1.7428747415542603	16468675.713169036
1.7466596364974976	14843852.648899512
1.7504380941390991	13276493.575593116
1.7542102336883545	10572442.025539266
1.7579760551452637	8716082.643321428
1.7617355585098267	8637927.161643177
1.7654887437820435	8030763.530113654
1.7692357301712036	6492311.118971895
1.7729763984680176	5109130.7980688345
1.776710867881775	3889797.6018782184
1.7804391384124756	3182837.7722528116
1.7841613292694092	2947721.389537048
1.7878772020339966	2385546.614633613
1.7915871143341064	1865758.0888760092
1.7952908277511597	1820971.222394001
1.7989884614944458	1784145.6058315812
1.8026801347732544	1273259.5679790387
1.806365728378296	751136.9161782963
1.8100452423095703	565467.4141148173
1.8137187957763672	475991.0798092572
1.817386507987976	447499.9256068758
1.8210482597351074	456638.32548409904
1.8247040510177612	442085.7602096048
1.828354001045227	412281.24654381216
1.8319982290267944	426029.37334061746
1.8356364965438843	461421.5898025028
1.8392690420150757	701564.2870031956
1.8428958654403687	1330569.0435916418
1.8465168476104736	1717641.943553271
1.8501322269439697	1365656.7886199886
1.8537418842315674	899559.7284097329
1.8573459386825562	861490.7482972617
1.860944390296936	867005.4366221481
1.864537239074707	782116.3673072289
1.8681244850158691	817801.0484920322
1.871706247329712	818896.0763680727
1.8752825260162354	1185852.046499632
1.8788533210754395	2175530.5395189617
1.8824186325073242	2693513.7677926826
1.8859784603118896	2388772.7050477755
1.8895330429077148	2327464.8903021445
1.8930821418762207	3241175.628128305
1.8966259956359863	3693362.7717660055
1.9001644849777222	2292830.7606418063
1.9036977291107178	1242465.5297647512
1.9072256088256836	1721121.8798734564
1.9107483625411987	1730165.2581991917
1.9142658710479736	959286.593947735
1.9177782535552979	532408.3053970609
1.9212853908538818	419795.7538950633
1.9247875213623047	424050.5316481044
1.9282845258712769	530991.0375757535
1.9317764043807983	683091.7634891205
1.9352631568908691	919949.7901849803
1.9387450218200684	1220864.0550512339
1.942221760749817	1510407.0562368874
1.9456936120986938	1533687.0592890785
1.9491604566574097	1524607.9857208154
1.952622413635254	1457995.751011041
1.956079363822937	1150133.2220470116
1.959531545639038	1156974.2538739452
1.962978720664978	1670187.56553802
1.966421127319336	2814767.455650484
1.9698586463928223	4017451.9501235536
1.9732913970947266	4136662.0655475543
1.9767193794250488	3909085.8337422083
1.9801424741744995	4418703.2298351135
1.9835609197616577	5862746.315605075
1.9869745969772339	6941744.584525967
1.990383505821228	6531045.150065102
1.9937876462936401	6541703.0833706185
1.9971871376037598	7087433.485329838
2.000581979751587	7655095.8242944935
2.003972291946411	9209497.864744749
2.007357597351074	10570137.48388871
2.0107386112213135	11368340.539411332
2.0141148567199707	11838461.021440001
2.017486572265625	11903208.380698264
2.0208535194396973	13691588.692801513
2.0242159366607666	16280787.092897613
2.027573823928833	16587091.401255794
2.0309269428253174	16227457.748411197
2.034275770187378	17410037.660910454
2.0376198291778564	18745359.784727167
2.040959596633911	19434292.7168724
2.044294595718384	21482173.624804884
2.0476250648498535	24783079.055865392
2.0509510040283203	25368104.658033587
2.054272413253784	24919539.63800833
2.057589530944824	27602304.994441845
2.0609018802642822	29893422.854337905
2.0642096996307373	30185759.655566398
2.0675129890441895	31994012.85313725
2.0708119869232178	34287445.96088271
2.074106216430664	33983912.838428274
2.0773961544036865	32863824.619358566
2.080681324005127	33198455.438423254
2.0839622020721436	34060656.025382735
2.087238311767578	34988753.1427017
2.090510129928589	36274394.13650114
2.0937774181365967	37244575.31314184
2.0970399379730225	37784721.84632655
2.1002981662750244	37650603.1916254
2.1035518646240234	36379038.10165531
2.1068007946014404	35038926.818245776
2.1100454330444336	35531024.33520849
2.1132853031158447	37249376.63829943
2.116520881652832	37802959.32106693
2.1197516918182373	37704988.51842031
2.1229779720306396	38201079.15076058
2.12619948387146	38489414.036379546
2.1294167041778564	38235025.7231242
2.132629156112671	38039941.50129376
2.1358368396759033	37165630.3856131
2.139039993286133	35389595.19493271
2.1422386169433594	33616563.019596346
2.145432472229004	32404462.653403077
2.1486217975616455	31667443.457166936
2.151806354522705	30624283.527257435
2.1549863815307617	30248497.835732106
2.1581614017486572	30315131.008762524
2.16133189201355	29483232.71662178
2.1644976139068604	28664434.023281686
2.167658567428589	27904799.67881194
2.1708147525787354	26620356.00819716
2.173966407775879	24995471.670232456
2.1771130561828613	23527564.54588322
2.1802549362182617	22510512.156894475
2.183391809463501	21463850.822165728
2.1865241527557373	20047453.612807166
2.1896514892578125	18246620.556974147
2.1927738189697266	15401699.445092194
2.1958916187286377	11536738.588595727
2.1990041732788086	7990479.1989455735
2.2021119594573975	5612500.5310437195
2.2052149772644043	4604831.100543119
2.208312749862671	5149863.827584427
2.2114057540893555	6598866.968580014
2.214493751525879	7619867.547121561
2.217576742172241	7644922.1695999745
2.2206547260284424	7194748.419869025
2.2237277030944824	6818257.783316826
2.2267956733703613	6199607.846185369
2.2298583984375	5433754.976447942
2.2329163551330566	4924750.4440943245
2.235969066619873	4533810.57921955
2.2390167713165283	4185102.7101726984
2.2420592308044434	3750995.9147013337
2.2450966835021973	3284684.9433670174
2.248128890991211	3251550.866911812
2.2511560916900635	3493702.8545054523
2.254178285598755	3464018.3079316877
2.257194995880127	3341725.826802795
2.260206699371338	3207418.2217999613
2.2632133960723877	2848701.3483748953
2.266214609146118	2625543.7102237907
2.2692108154296875	2840427.3117860225
2.2722020149230957	3297815.55110769
2.2751877307891846	3589700.7346364604
2.278168201446533	3449535.012221918
2.2811436653137207	3083781.6699981703
2.284113883972168	2782054.0630275332
2.287078857421875	2561471.258391818
2.290038824081421	2352982.5226116236
2.2929933071136475	2234501.6348629147
2.295942783355713	2250329.1339760693
2.298887014389038	2349616.911273573
2.301826238632202	2615049.312540909
2.304760217666626	3140029.991789962
2.3076889514923096	3902252.24860105
2.310612440109253	4620916.957502573
2.3135311603546143	4498573.187661069
2.3164443969726562	3225255.6281807655
2.319352865219116	1957741.7301919633
2.322256088256836	1614811.1209826556
2.3251543045043945	1708173.8187318882
2.328047275543213	1725925.4834887625
2.330935478210449	1679765.4702059224
2.3338186740875244	1623874.9122752955
2.3366971015930176	1578966.0229066198
2.3395702838897705	1525323.3912023196
2.3424389362335205	1434121.6142010689
2.3453025817871094	1364080.7757927636
2.348161458969116	1421595.1434879056
2.351015567779541	1652424.0503110264
2.353865146636963	1988119.7871958204
2.3567099571228027	2321921.935693651
2.3595502376556396	2705383.792747425
2.3623859882354736	3076867.2464294825
2.3652172088623047	2972243.5461096237
2.368043899536133	2198731.8083151556
2.370866537094116	1354964.7583334588
2.3736846446990967	1090811.2902361015
2.3764986991882324	1297581.5698955797
2.3793084621429443	1541595.329855737
2.3821144104003906	1682896.1726243936
2.384916305541992	1833249.7558113653
2.387714147567749	2054896.616200278
2.3905084133148193	2227991.176766961
2.393299102783203	2290880.60833354
2.3960859775543213	2333927.2293145726
2.398869514465332	2461400.0730496477
2.4016497135162354	2534696.9382598433
2.4044265747070312	2455737.3665792984
2.407200336456299	2508412.30614412
2.409970998764038	2875818.7444450436
2.4127390384674072	3252757.766755394
2.415503978729248	3279061.4616215997
2.418266534805298	3121518.666384856
2.4210267066955566	3120344.022539433
2.4237842559814453	3217773.16228538
2.426539897918701	3353255.3803637982
2.429293394088745	3755958.0365730394
2.4320452213287354	4207602.374354814
2.4347951412200928	4126322.9552888414
2.4375438690185547	3892621.7526240647
2.440291166305542	4189556.48513585
2.443037271499634	4282407.995047757
2.445782423019409	3646153.058288126
2.4485268592834473	3077558.295888211
2.451270818710327	2984118.301778287
2.454014539718628	3240681.5319503383
2.4567582607269287	3571536.551794453
2.4595019817352295	3554461.7588086827
2.4622461795806885	3452254.9858657047
2.4649908542633057	3348831.299874687
2.4677364826202393	2942499.6927771997
2.4704833030700684	2472126.628155701
2.473231554031372	2083306.7811576212
2.4759814739227295	1770116.784211297
2.4787333011627197	1658231.6181996085
2.481487512588501	1798628.8012672053
