#wavelength	surface flux
0.6450077295303345	15693.265697143463
0.6472567915916443	24742.82379748463
0.6494921445846558	32373.61931708053
0.6517150402069092	37310.06686356736
0.6539263725280762	42450.31791923716
0.6561272740364075	47971.55226718438
0.6583186388015747	53903.51784894463
0.6605015397071838	60280.78572115699
0.6626768708229065	67047.70746323054
0.6648455858230591	73910.50943088917
0.6670085787773132	78102.43012737848
0.6691668033599854	74568.092967552
0.6713210344314575	74674.3439253601
0.6734722256660461	92211.61689071321
0.6756211519241333	112796.59550553629
0.6777685880661011	125598.63286870351
0.6799154281616211	136017.22284395018
0.6820623278617859	146238.30964962053
0.6842101216316223	156426.57191859378
0.6863595843315125	166504.91507030328
0.688511312007904	176080.12664109675
0.6906660795211792	184087.58281843076
0.6928245425224304	191303.92675251272
0.6949873566627502	200533.01265300083
0.6971551775932312	210970.7488104224
0.6993286609649658	219486.45200048693
0.7015084028244019	225799.72181780508
0.7036949396133423	231569.14746571583
0.7058889269828796	236934.88259818516
0.7080909013748169	240864.80742602653
0.710301399230957	243195.87985884474
0.712520956993103	243462.42207926651
0.7147500514984131	239893.98197827645
0.7169892191886902	232224.45139271705
0.7192389369010925	224835.84979535892
0.7214996814727783	219395.54217866767
0.723771870136261	211646.59186580387
0.7260559797286987	200514.28818816895
0.7283523678779602	187810.9718596959
0.7306615710258484	174180.6235334697
0.7329838871955872	160294.30786166058
0.7353196740150452	145401.17639382908
0.7376693487167358	128823.39895933006
0.7400332689285278	111881.14844899534
0.7424117922782898	95064.33377973732
0.7448052167892456	78463.86830567545
0.7472138404846191	62771.62004219391
0.7496379613876343	48415.75150320496
0.7520779371261597	35776.341449879685
0.7545340061187744	25189.031679164407
0.7570064663887024	16761.477389164917
0.7594954967498779	10389.789864320923
0.7620013952255249	5768.73231814029
0.7645244002342224	2620.790719349601
0.7670646905899048	1005.5367688988836
0.7696225643157959	1066.6894921057506
0.7721980810165405	3202.2251301238666
0.7747915983200073	7705.930551503849
0.7774031162261963	13858.097314787792
0.7800329327583313	22824.71714514456
0.7826811671257019	38927.92335463447
0.7853479981422424	62393.98001415891
0.7880334854125977	89905.56488959934
0.7907378077507019	109031.03253159013
0.7934610247612	111785.92238264825
0.7962033748626709	152083.45493574135
0.7989648580551147	248491.35704936
0.801745593547821	343068.72337288054
0.8045456409454346	424431.04836345545
0.8073651194572449	505841.7388279854
0.8102040886878967	584733.804242869
0.8130625486373901	671727.3165857248
0.8159406185150146	783922.312744279
0.8188382983207703	916471.2704753398
0.8217556476593018	1057949.7317657687
0.8246926665306091	1211985.0600315498
0.8276493549346924	1378893.2228182482
0.8306257724761963	1551897.9560497457
0.8336219191551208	1728719.1755657871
0.8366377949714661	1914438.3505273398
0.8396733403205872	2122547.4808962145
0.8427285552024841	2364262.217201141
0.8458034992218018	2613172.7156986776
0.8488980531692505	2692775.565359969
0.8520121574401855	2698804.699921388
0.8551458716392517	3160134.9935981715
0.8582990765571594	3863603.63508102
0.8614717125892639	4299718.479077621
0.8646637797355652	4643152.752353504
0.8678751587867737	5076306.114981744
0.8711057901382446	5546498.683066275
0.8743556141853333	6011392.641588118
0.87762451171875	6466857.0538673205
0.8809124231338501	6877536.137440711
0.8842192888259888	7242448.427884242
0.8875449895858765	7416707.716355759
0.8908893465995789	6938274.435474827
0.894252359867096	6388531.055130197
0.8976338505744934	7381015.6819816455
0.9010337591171265	9395130.01953362
0.9044519662857056	10890309.609661026
0.9078882932662964	11751555.328721147
0.9113426208496094	12328110.430779114
0.914814829826355	12633875.467664994
0.9183048605918884	12818005.609111782
0.9218124747276306	12913770.648462163
0.925337553024292	10841795.11441812
0.9288799166679382	6937857.113231688
0.9324395060539246	5311102.3938906025
0.9360161423683167	6559021.463876598
0.9396095871925354	8003403.528547905
0.943219780921936	7315419.44098787
0.9468464851379395	5812683.083538412
0.9504896402359009	6208236.665970593
0.9541489481925964	7968343.328414852
0.9578243494033813	8627972.468554925
0.9615156054496765	7504838.7578265425
0.9652225375175476	7058130.922119535
0.9689450263977051	9120343.371529363
0.9726828336715698	12874203.161823655
0.9764357805252075	15306265.949949143
0.9802037477493286	15946830.190606693
0.983986496925354	17323016.500109434
0.9877838492393494	19772801.788036715
0.9915955662727356	22175002.867031865
0.9954215884208679	23862553.970437255
0.9992615580558777	24730875.26465771
1.0031154155731201	25863302.49747299
1.0069829225540161	28179490.691604562
1.0108637809753418	31257877.955857072
1.0147579908370972	34359529.46213116
1.018665075302124	36713698.92068662
1.022585153579712	38015010.584980905
1.0265177488327026	39048168.62537315
1.0304628610610962	40972940.33233753
1.0344202518463135	43664407.040218435
1.0383895635604858	45915820.53943187
1.0423706769943237	47430455.960392
1.0463634729385376	48573930.20711173
1.0503677129745483	49555802.14074414
1.0543830394744873	50863980.954202764
1.058409333229065	52478788.59974096
1.0624464750289917	53714166.419312805
1.0664942264556885	54192648.49162925
1.0705522298812866	54348030.33866408
1.0746204853057861	55000747.77526859
1.0786986351013184	55871049.40770103
1.0827864408493042	55758953.829217605
1.086883783340454	52465421.341645874
1.0909905433654785	44232647.73348269
1.0951062440872192	33797336.9259263
1.0992310047149658	23657456.598305598
1.10336434841156	14536875.555549297
1.1075061559677124	9995973.2302397
1.1116561889648438	8295188.901583626
1.115814208984375	6443314.796999378
1.1199802160263062	4927276.95069136
1.124153733253479	3960041.3382625645
1.1283347606658936	4357058.851705283
1.1325229406356812	4795409.155469595
1.1367181539535522	6263322.184704782
1.1409201622009277	8059859.888053769
1.145128846168518	8094383.392923205
1.1493438482284546	7380757.794558914
1.1535650491714478	5457410.145865131
1.1577922105789185	4003408.48399345
1.1620250940322876	4492501.160333018
1.1662636995315552	5472341.623964952
1.170507550239563	6497760.6444926
1.174756646156311	8860026.032315837
1.1790107488632202	13645034.316198934
1.1832695007324219	20126037.117894676
1.1875330209732056	25361606.169492792
1.191800832748413	30319790.753994077
1.1960728168487549	36399127.99909425
1.2003488540649414	41244391.307917014
1.2046287059783936	45525870.4742636
1.2089121341705322	48358232.388448335
1.2131990194320679	50661763.496925816
1.2174891233444214	55472601.8462564
1.2217823266983032	61085747.738473125
1.2260783910751343	65376714.45171903
1.230377197265625	68162632.31717288
1.2346785068511963	70513146.81486446
1.238982081413269	71784345.20905615
1.2432878017425537	71773430.02217817
1.2475954294204712	71980043.36116485
1.2519049644470215	72313002.77537298
1.256216049194336	76207986.57500105
1.2605286836624146	80857344.1024736
1.2648425102233887	81193929.84206478
1.2691574096679688	80563599.56544445
1.2734732627868652	80181201.3017663
1.2777899503707886	78054489.21260074
1.2821072340011597	73438767.52996688
1.2864248752593994	67850963.32143886
1.2907428741455078	61752719.78454653
1.2950609922409058	57706640.93207243
1.2993791103363037	56286937.355278835
1.303696870803833	55744596.891385116
1.3080145120620728	55329307.40625978
1.3123314380645752	52922824.15043621
1.3166478872299194	50179817.169241115
1.3209635019302368	45239995.635153495
1.3252781629562378	34103923.0192589
1.3295916318893433	20337188.110930722
1.3339040279388428	8754793.493212543
1.3382149934768677	2384283.64343083
1.3425244092941284	671509.628319249
1.3468321561813354	405964.4184835344
1.3511382341384888	252370.148115296
1.3554422855377197	157101.85683761153
1.3597444295883179	173723.06286422216
1.3640443086624146	166235.35880857293
1.3683418035507202	184186.62691791117
1.3726370334625244	255297.21716869535
1.3769296407699585	258164.9533295819
1.381219506263733	139481.54425465484
1.3855066299438477	62910.71276189683
1.3897908926010132	101665.98060691725
1.3940720558166504	185304.04527370576
1.3983501195907593	293347.31325964985
1.4026249647140503	495594.4363527168
1.4068963527679443	613598.2737700236
1.4111642837524414	418476.65108110494
1.4154287576675415	211538.12153430408
1.419689416885376	203298.20151779323
1.4239463806152344	285320.90514699806
1.4281994104385376	425092.4977562939
1.4324485063552856	480398.4637539244
1.436693549156189	497871.7960860448
1.440934419631958	734062.5288260626
1.4451709985733032	1098894.8335204523
1.449403166770935	1454983.9540836087
1.453631043434143	1844334.2639209207
1.4578542709350586	2410231.689264967
1.4620729684829712	2855254.573780568
1.4662868976593018	2895137.1681676437
1.4704961776733398	2994144.847910327
1.4747005701065063	3212427.1628200463
1.4788999557495117	3237367.6609299364
1.4830944538116455	3357830.3080446175
1.4872838258743286	3543523.495089107
1.491468071937561	3698020.838401497
1.4956470727920532	4369802.695948821
1.4998208284378052	5938351.2299034195
1.5039892196655273	7546091.0110718515
1.5081522464752197	8127105.40425774
1.5123097896575928	9083684.063153505
1.5164618492126465	11234715.297714265
1.5206083059310913	13855226.849464672
1.5247491598129272	16097871.56997623
1.5288842916488647	17471410.11973633
1.5330137014389038	19276817.36417125
1.5371372699737549	21182183.092957478
1.541254997253418	22643801.498193365
1.545366883277893	24933146.98766767
1.5494728088378906	27378896.137087442
1.5535727739334106	28883518.73394618
1.5576666593551636	30573937.9576307
1.561754584312439	33494132.074182905
1.5658363103866577	36499492.34068594
1.5699119567871094	38104481.10940417
1.5739814043045044	38440954.43109612
1.5780447721481323	38997730.56464836
1.582101821899414	40750135.897067405
1.5861525535583496	42498908.7992176
1.5901970863342285	42341808.40803353
1.5942351818084717	41059604.01026148
1.5982669591903687	40152448.85189802
1.6022924184799194	38619715.54153752
1.606311559677124	36328253.93711214
1.6103241443634033	34503703.856677525
1.6143304109573364	32519023.815221123
1.6183301210403442	29401907.344882917
1.6223233938217163	25819545.93063038
1.6263102293014526	22852292.548239022
1.6302905082702637	21313686.699717663
1.634264349937439	23452216.514594488
1.638231635093689	28422227.983702794
1.6421923637390137	28462883.25385495
1.646146535873413	22226871.65529849
1.6500942707061768	19830459.01033034
1.6540353298187256	23415031.08862314
1.6579699516296387	25418021.104784403
1.661897897720337	22989384.64479717
1.6658192873001099	16220342.99190877
1.6697341203689575	11463267.894373475
1.6736423969268799	13527380.716452245
1.677544116973877	15527147.67644912
1.6814392805099487	15073931.766026186
1.6853278875350952	14053897.956670415
1.6892099380493164	12031800.102711396
1.6930854320526123	9404053.95040618
1.696954369544983	7344826.896789369
1.7008168697357178	7071958.353772463
1.7046726942062378	7990189.963172033
1.708522081375122	9535497.277757226
1.712364912033081	11392633.272578316
1.7162011861801147	13000304.094186539
1.7200311422348022	13797094.98424755
1.723854422569275	13179956.512970816
1.7276713848114014	11900626.698222237
1.731481909751892	10812782.196100846
1.7352858781814575	9931264.156110883
1.7390835285186768	9177529.855197726
1.7428747415542603	8397965.47446321
1.7466596364974976	7736933.389425351
1.7504380941390991	6922603.864920093
1.7542102336883545	5493085.597650549
1.7579760551452637	4491509.838743385
1.7617355585098267	4357328.958577369
1.7654887437820435	3925285.222073303
1.7692357301712036	3092937.210401558
1.7729763984680176	2396342.846704804
1.776710867881775	1782797.3216586
1.7804391384124756	1432736.5098229283
1.7841613292694092	1324828.8558307232
1.7878772020339966	1042615.2889311418
1.7915871143341064	772044.9683434265
1.7952908277511597	755618.5808825678
1.7989884614944458	762032.8754519756
1.8026801347732544	525497.7429721919
1.806365728378296	275885.50378003647
1.8100452423095703	194201.04018604697
1.8137187957763672	155950.81504727123
1.817386507987976	140768.122078883
1.8210482597351074	141720.7376849965
1.8247040510177612	134278.8070789567
1.828354001045227	118753.92741107082
1.8319982290267944	117779.33765029791
1.8356364965438843	127184.08554837639
1.8392690420150757	213954.3788644236
1.8428958654403687	469199.2064181701
1.8465168476104736	651475.1856911889
1.8501322269439697	518382.6135172683
1.8537418842315674	329744.64326154086
1.8573459386825562	334285.1170841154
1.860944390296936	342602.3885494216
1.864537239074707	280365.0993795736
1.8681244850158691	263867.4706841207
1.871706247329712	253855.62298788084
1.8752825260162354	420125.49399377836
1.8788533210754395	884745.2032420409
1.8824186325073242	1118746.0043568595
1.8859784603118896	923239.3646533666
1.8895330429077148	867839.8199155201
1.8930821418762207	1347517.2549603018
1.8966259956359863	1596578.2892111521
1.9001644849777222	929680.8643027795
1.9036977291107178	408376.1369297487
1.9072256088256836	558823.8193416449
1.9107483625411987	561922.6787214287
1.9142658710479736	296248.4296003188
1.9177782535552979	154963.39028770456
1.9212853908538818	121932.3534397986
1.9247875213623047	126206.42152285801
1.9282845258712769	162543.35195939333
1.9317764043807983	211047.69500343935
1.9352631568908691	288858.55099775584
1.9387450218200684	392823.121354782
1.942221760749817	490814.38735446334
1.9456936120986938	521121.56182985567
1.9491604566574097	574704.1275953595
1.952622413635254	572123.4997443687
1.956079363822937	433217.1044580184
1.959531545639038	429606.7674510421
1.962978720664978	666098.5428984349
1.966421127319336	1167768.678091866
1.9698586463928223	1694763.236473663
1.9732913970947266	1732977.0658106944
1.9767193794250488	1513767.1327170648
1.9801424741744995	1689517.1368148343
1.9835609197616577	2454166.966891626
1.9869745969772339	2986199.800302094
1.990383505821228	2686483.4968298273
1.9937876462936401	2511919.333312177
1.9971871376037598	2894615.8893128145
2.000581979751587	3261741.8734877026
2.003972291946411	3362664.671174765
2.007357597351074	3835562.3521765526
2.0107386112213135	5006563.160691745
2.0141148567199707	5624575.542446044
2.017486572265625	5459385.232814926
2.0208535194396973	5806761.880286785
2.0242159366607666	6459117.60025509
2.027573823928833	6750357.45533379
2.0309269428253174	7030085.387252302
2.034275770187378	7454630.207320543
2.0376198291778564	7932590.288140569
2.040959596633911	8464642.260140644
2.044294595718384	9347853.449321158
2.0476250648498535	10483064.608004935
2.0509510040283203	10687586.839922868
2.054272413253784	10311324.68433049
2.057589530944824	10842757.17429889
2.0609018802642822	11610562.026195172
2.0642096996307373	11817473.933286972
2.0675129890441895	12028000.94763086
2.0708119869232178	12250004.897685735
2.074106216430664	12103911.69420998
2.0773961544036865	11862640.57604645
2.080681324005127	11820330.189554814
2.0839622020721436	11863781.798889205
2.087238311767578	11942338.305050194
2.090510129928589	12016391.771985779
2.0937774181365967	11969263.382018534
2.0970399379730225	11863560.164777474
2.1002981662750244	11672484.320592811
2.1035518646240234	11344747.970474975
2.1068007946014404	11008556.662469184
2.1100454330444336	10848956.952891782
2.1132853031158447	10845767.442451252
2.116520881652832	10762903.726745369
2.1197516918182373	10601030.013619889
2.1229779720306396	10492202.126268007
2.12619948387146	10387919.376725629
2.1294167041778564	10239490.588912722
2.132629156112671	10089039.954163527
2.1358368396759033	9828019.457967216
2.139039993286133	9466812.94666025
2.1422386169433594	9009659.431522427
2.145432472229004	8560706.685821135
2.1486217975616455	8306010.51273074
2.151806354522705	8015540.503936749
2.1549863815307617	7855470.894741285
2.1581614017486572	7791431.56443788
2.16133189201355	7528432.314053286
2.1644976139068604	7313391.845754972
2.167658567428589	7145468.388668667
2.1708147525787354	6923599.012273901
2.173966407775879	6681135.504477947
2.1771130561828613	6394840.0909761125
2.1802549362182617	6064382.832494056
2.183391809463501	5717382.932400763
2.1865241527557373	5342329.328911414
2.1896514892578125	4803523.561374986
2.1927738189697266	3935959.359149345
2.1958916187286377	2920306.916793111
2.1990041732788086	2080226.062002064
2.2021119594573975	1524061.3702092674
2.2052149772644043	1339932.799736742
2.208312749862671	1570368.3456630877
2.2114057540893555	1988443.0196032492
2.214493751525879	2246047.5425527752
2.217576742172241	2210588.6229505753
2.2206547260284424	2010828.9652251278
2.2237277030944824	1829874.815382519
2.2267956733703613	1667079.8590609306
2.2298583984375	1517544.4191861597
2.2329163551330566	1407634.1498841883
2.235969066619873	1303269.2331882329
2.2390167713165283	1201017.6469090027
2.2420592308044434	1035304.430598831
2.2450966835021973	809431.9747465468
2.248128890991211	759971.6431267789
2.2511560916900635	900045.4312941565
2.254178285598755	952217.4505134516
2.257194995880127	919764.2509718188
2.260206699371338	891963.9601799557
2.2632133960723877	821785.0877483736
2.266214609146118	789446.4812511441
2.2692108154296875	874001.37970122
2.2722020149230957	1023189.7586101011
2.2751877307891846	1115846.8855250494
2.278168201446533	1075897.523512234
2.2811436653137207	964466.1767573656
2.284113883972168	868045.1935840966
2.287078857421875	798032.3669284526
2.290038824081421	738364.4466794835
2.2929933071136475	717855.5848610895
2.295942783355713	735605.5231391839
2.298887014389038	746050.0160612054
2.301826238632202	799887.8210949553
2.304760217666626	1042421.8390548564
2.3076889514923096	1515688.6292152593
2.310612440109253	1989213.0889145797
2.3135311603546143	1975292.1570657585
2.3164443969726562	1335852.40567696
2.319352865219116	723434.171222814
2.322256088256836	584298.4493533155
2.3251543045043945	627920.5363004528
2.328047275543213	617204.6604601727
2.330935478210449	603283.083637086
2.3338186740875244	601741.9006873764
2.3366971015930176	578024.1219660052
2.3395702838897705	535874.0975142001
2.3424389362335205	482900.3225273194
2.3453025817871094	444852.66698084027
2.348161458969116	463287.4297095419
2.351015567779541	553889.1462227958
2.353865146636963	690284.7769260921
2.3567099571228027	836916.5414548197
2.3595502376556396	1011685.4833709736
2.3623859882354736	1172081.1378039997
2.3652172088623047	1119831.9705322727
2.368043899536133	793671.1403238602
2.370866537094116	457872.99155617534
2.3736846446990967	365940.46058330685
2.3764986991882324	467219.1950291781
2.3793084621429443	589559.6798811139
2.3821144104003906	657022.7655525835
2.384916305541992	706949.066968091
2.387714147567749	784316.8854193345
2.3905084133148193	852423.3033136238
2.393299102783203	875304.59062334
2.3960859775543213	881549.9235275494
2.398869514465332	926231.8573301923
2.4016497135162354	961571.5820657769
2.4044265747070312	937278.7169541478
2.407200336456299	966950.1814841962
2.409970998764038	1138727.856240629
2.4127390384674072	1320342.2826551134
2.415503978729248	1340993.5217613166
2.418266534805298	1278247.5976444539
2.4210267066955566	1287748.8774349173
2.4237842559814453	1332681.5380995506
2.426539897918701	1400775.7554652537
2.429293394088745	1617407.6753933905
2.4320452213287354	1856993.2076769082
2.4347951412200928	1832541.505462497
2.4375438690185547	1749718.4447608904
2.440291166305542	1942010.560988642
2.443037271499634	2033984.7579899675
2.445782423019409	1735800.7986014313
2.4485268592834473	1444676.82849664
2.451270818710327	1422856.5206094221
2.454014539718628	1587805.7338968737
2.4567582607269287	1760920.209050819
2.4595019817352295	1780877.0808327976
2.4622461795806885	1755215.142629504
2.4649908542633057	1699142.2454057182
2.4677364826202393	1503679.0736541958
2.4704833030700684	1280334.6540381336
2.473231554031372	1092855.3139117998
2.4759814739227295	941729.0437734956
2.4787333011627197	888284.0683823418
2.481487512588501	953724.7183558459
