#wavelength	surface flux
0.6450077295303345	279391.9748190818
0.6472567915916443	438506.7163241854
0.6494921445846558	568279.9144302668
0.6517150402069092	646990.3636209563
0.6539263725280762	727323.2301789997
0.6561272740364075	812278.3977900568
0.6583186388015747	901097.4676248083
0.6605015397071838	992011.7594890152
0.6626768708229065	1080591.6016193635
0.6648455858230591	1150197.8302093777
0.6670085787773132	1126473.0037606272
0.6691668033599854	926924.2955790916
0.6713210344314575	825984.0065022849
0.6734722256660461	1133911.8834270586
0.6756211519241333	1558394.3495332946
0.6777685880661011	1816478.1612732916
0.6799154281616211	1984146.7436207437
0.6820623278617859	2126411.7378114117
0.6842101216316223	2256807.767394817
0.6863595843315125	2376820.293002297
0.688511312007904	2486298.417109092
0.6906660795211792	2580670.7763632983
0.6928245425224304	2667500.932526895
0.6949873566627502	2766260.8598940843
0.6971551775932312	2868572.2209301493
0.6993286609649658	2951324.6434218376
0.7015084028244019	3010220.8499649735
0.7036949396133423	3054656.3335625767
0.7058889269828796	3089250.767007661
0.7080909013748169	3106991.208796804
0.710301399230957	3102592.357344378
0.712520956993103	3075151.1350104264
0.7147500514984131	3018535.1806333987
0.7169892191886902	2932385.3896924155
0.7192389369010925	2835594.617481821
0.7214996814727783	2733589.3559244866
0.723771870136261	2608936.3413071735
0.7260559797286987	2458443.823306464
0.7283523678779602	2290857.810813081
0.7306615710258484	2112006.3165403507
0.7329838871955872	1926572.5058662863
0.7353196740150452	1732328.0697634101
0.7376693487167358	1529483.68416622
0.7400332689285278	1326674.4410061445
0.7424117922782898	1126862.1369152318
0.7448052167892456	931695.6217848136
0.7472138404846191	746243.344682199
0.7496379613876343	574219.4682866362
0.7520779371261597	419626.1278820519
0.7545340061187744	286646.2910960047
0.7570064663887024	178593.01818301744
0.7594954967498779	97927.0389730555
0.7620013952255249	44757.454907427236
0.7645244002342224	15693.182604018668
0.7670646905899048	4388.082262427978
0.7696225643157959	4807.1348845251
0.7721980810165405	19591.249577486462
0.7747915983200073	58264.21994343128
0.7774031162261963	119677.68140821645
0.7800329327583313	217470.44994520256
0.7826811671257019	398504.19492445205
0.7853479981422424	655846.3096771145
0.7880334854125977	941313.2529044619
0.7907378077507019	1123598.167498571
0.7934610247612	1121193.5835002374
0.7962033748626709	1484924.7663670105
0.7989648580551147	2399429.8482980216
0.801745593547821	3270707.639376212
0.8045456409454346	3989325.0574836927
0.8073651194572449	4719375.47741816
0.8102040886878967	5472751.279739203
0.8130625486373901	6276498.859043115
0.8159406185150146	7091780.824372801
0.8188382983207703	7967514.743769278
0.8217556476593018	9170434.479351021
0.8246926665306091	10583681.107255355
0.8276493549346924	11937751.16388776
0.8306257724761963	13280554.111117797
0.8336219191551208	14653951.276606578
0.8366377949714661	16060728.635670511
0.8396733403205872	17535354.30970984
0.8427285552024841	19099979.653679032
0.8458034992218018	20476448.124221288
0.8488980531692505	20306260.713564653
0.8520121574401855	19518613.351443563
0.8551458716392517	22231833.038490776
0.8582990765571594	26009332.158878632
0.8614717125892639	26052653.5606258
0.8646637797355652	25472538.61568984
0.8678751587867737	27226782.826315183
0.8711057901382446	29405382.59313925
0.8743556141853333	31191237.32141638
0.87762451171875	33195195.831325796
0.8809124231338501	35135564.70552225
0.8842192888259888	37124929.158254296
0.8875449895858765	38464965.6537936
0.8908893465995789	37172158.80682982
0.894252359867096	36124190.02570902
0.8976338505744934	40881616.52461955
0.9010337591171265	48222072.0446293
0.9044519662857056	53024585.874817096
0.9078882932662964	55993542.80180177
0.9113426208496094	58313625.906387426
0.914814829826355	59913677.23831814
0.9183048605918884	61141361.49530829
0.9218124747276306	61933857.997943796
0.925337553024292	57218118.58801153
0.9288799166679382	47947003.35169657
0.9324395060539246	45525071.90691554
0.9360161423683167	51047726.70573786
0.9396095871925354	55903479.78193513
0.943219780921936	54667943.0269594
0.9468464851379395	51534218.45249765
0.9504896402359009	53291128.11915439
0.9541489481925964	58231311.804663606
0.9578243494033813	60144498.4619715
0.9615156054496765	57498435.83405562
0.9652225375175476	56413899.27108211
0.9689450263977051	61104087.782126695
0.9726828336715698	69666312.16314712
0.9764357805252075	75657287.8668256
0.9802037477493286	77655470.25789306
0.983986496925354	80422681.14057747
0.9877838492393494	84246108.35104473
0.9915955662727356	86883766.1003708
0.9954215884208679	87113116.67926851
0.9992615580558777	84890374.36156099
1.0031154155731201	84503550.65962599
1.0069829225540161	88510997.07469644
1.0108637809753418	94413105.25712816
1.0147579908370972	100066054.34936973
1.018665075302124	104245860.57621744
1.022585153579712	106568124.2931582
1.0265177488327026	108424064.54645757
1.0304628610610962	111773960.4978069
1.0344202518463135	116060406.22755402
1.0383895635604858	119369574.90802135
1.0423706769943237	121522248.498027
1.0463634729385376	123145833.32017554
1.0503677129745483	124355948.18721971
1.0543830394744873	125836178.59086081
1.058409333229065	127917073.64917676
1.0624464750289917	129991569.93848315
1.0664942264556885	131729383.00708549
1.0705522298812866	133330056.85733534
1.0746204853057861	135238343.77097702
1.0786986351013184	137180235.67436656
1.0827864408493042	138175082.6097959
1.086883783340454	136137872.88938743
1.0909905433654785	128778403.39062767
1.0951062440872192	117493871.05512246
1.0992310047149658	101830207.21114396
1.10336434841156	82963670.61281277
1.1075061559677124	71856538.57458596
1.1116561889648438	66375989.18865641
1.115814208984375	61036416.60262845
1.1199802160263062	56007978.239919275
1.124153733253479	52578035.85399061
1.1283347606658936	54424525.54756848
1.1325229406356812	52212672.62551496
1.1367181539535522	54016217.41289909
1.1409201622009277	64053713.47656284
1.145128846168518	69742826.45463502
1.1493438482284546	69441686.55830263
1.1535650491714478	61107344.053801
1.1577922105789185	54636187.86749946
1.1620250940322876	55959611.6414942
1.1662636995315552	57008645.39749166
1.170507550239563	56734803.269498445
1.174756646156311	60454230.27312177
1.1790107488632202	73212370.27546401
1.1832695007324219	93393620.24932206
1.1875330209732056	108715596.69072203
1.191800832748413	118102916.78157368
1.1960728168487549	127826350.71842843
1.2003488540649414	134957493.71256402
1.2046287059783936	140551143.22752547
1.2089121341705322	144394633.11156338
1.2131990194320679	147431118.63106954
1.2174891233444214	153141580.57265618
1.2217823266983032	159396804.39483798
1.2260783910751343	163904697.11741662
1.230377197265625	166751832.39244384
1.2346785068511963	168849563.69532272
1.238982081413269	168479389.17921755
1.2432878017425537	166162886.68641248
1.2475954294204712	164927576.05840027
1.2519049644470215	164028057.84777322
1.256216049194336	169514886.61872697
1.2605286836624146	177853076.55559117
1.2648425102233887	179970775.82559443
1.2691574096679688	180049226.7777273
1.2734732627868652	180309419.90142804
1.2777899503707886	179323298.10627827
1.2821072340011597	176473325.4691305
1.2864248752593994	172614921.7954202
1.2907428741455078	168033625.67543417
1.2950609922409058	165102876.44777697
1.2993791103363037	164190595.51428387
1.303696870803833	163844604.51921365
1.3080145120620728	163722927.86030793
1.3123314380645752	161610361.60067052
1.3166478872299194	158246581.12493503
1.3209635019302368	150411193.18357864
1.3252781629562378	130450763.62179822
1.3295916318893433	94731216.58623098
1.3339040279388428	49873907.025782585
1.3382149934768677	17755697.64967878
1.3425244092941284	7164724.273630466
1.3468321561813354	5547188.612945984
1.3511382341384888	3972031.39454131
1.3554422855377197	3284493.3795674494
1.3597444295883179	4200762.5291468995
1.3640443086624146	4870535.099228785
1.3683418035507202	5620127.22867682
1.3726370334625244	6863367.680488173
1.3769296407699585	6912050.070667931
1.381219506263733	4389840.051828368
1.3855066299438477	2391192.5554104326
1.3897908926010132	2883136.1754369456
1.3940720558166504	4073326.3521855143
1.3983501195907593	5066777.788977694
1.4026249647140503	7205346.976404096
1.4068963527679443	8686235.158737551
1.4111642837524414	6493181.971903489
1.4154287576675415	4189651.334494129
1.419689416885376	4195174.387523541
1.4239463806152344	5033319.230676609
1.4281994104385376	6364022.377361592
1.4324485063552856	6721189.090129248
1.436693549156189	6562375.118289149
1.440934419631958	8168670.928601079
1.4451709985733032	10775025.645301774
1.449403166770935	13288815.405137531
1.453631043434143	15709216.233781287
1.4578542709350586	18801266.302820306
1.4620729684829712	21690903.186813578
1.4662868976593018	22547320.604995564
1.4704961776733398	23063594.22911538
1.4747005701065063	24364038.52973428
1.4788999557495117	25153453.750005953
1.4830944538116455	26436669.691852156
1.4872838258743286	28204307.89589886
1.491468071937561	29573855.940371614
1.4956470727920532	33046854.055168834
1.4998208284378052	39961738.09004639
1.5039892196655273	45972708.67859288
1.5081522464752197	47522862.41968978
1.5123097896575928	50163835.79801082
1.5164618492126465	57086917.23160175
1.5206083059310913	66100445.746870585
1.5247491598129272	73010144.16970174
1.5288842916488647	75511249.81788754
1.5330137014389038	79832911.61246344
1.5371372699737549	84931842.80920665
1.541254997253418	87735686.20781651
1.545366883277893	92918041.89163005
1.5494728088378906	98623503.94156457
1.5535727739334106	101420846.00408365
1.5576666593551636	104648792.65553036
1.561754584312439	110140231.70089546
1.5658363103866577	115117315.9903125
1.5699119567871094	118092816.14119844
1.5739814043045044	119753314.28950071
1.5780447721481323	121777160.14429288
1.582101821899414	125073982.5958764
1.5861525535583496	128076616.09185205
1.5901970863342285	128671477.91408084
1.5942351818084717	127709470.49428691
1.5982669591903687	126961980.05925956
1.6022924184799194	125185873.35284035
1.606311559677124	122188454.0740159
1.6103241443634033	119849909.36331083
1.6143304109573364	117455576.3096504
1.6183301210403442	113280317.39390944
1.6223233938217163	108321007.85341784
1.6263102293014526	104079528.31017427
1.6302905082702637	101405277.81585525
1.634264349937439	103603846.86085908
1.638231635093689	109736725.98334777
1.6421923637390137	109822307.7973396
1.646146535873413	102060981.19245897
1.6500942707061768	98688651.37392762
1.6540353298187256	102385205.94095986
1.6579699516296387	103759470.96341315
1.661897897720337	97096723.63142882
1.6658192873001099	80665930.17944348
1.6697341203689575	70965869.31366724
1.6736423969268799	78784429.7907623
1.677544116973877	85586958.492533
1.6814392805099487	84427613.37171105
1.6853278875350952	80750261.58449431
1.6892099380493164	74812946.70222881
1.6930854320526123	66690839.85771023
1.696954369544983	59913023.065986805
1.7008168697357178	58658653.35762467
1.7046726942062378	60632549.942037255
1.708522081375122	63301495.15342567
1.712364912033081	65478674.43112105
1.7162011861801147	66433997.64647073
1.7200311422348022	65799790.50619232
1.723854422569275	62704798.56616974
1.7276713848114014	58388991.34064816
1.731481909751892	54094261.91956458
1.7352858781814575	50036709.99394699
1.7390835285186768	45926195.955142066
1.7428747415542603	41729527.78939262
1.7466596364974976	38673931.14342127
1.7504380941390991	35097859.414067514
1.7542102336883545	28780318.21198857
1.7579760551452637	24597744.133349575
1.7617355585098267	24754891.449124433
1.7654887437820435	23605762.12207225
1.7692357301712036	19837090.33430915
1.7729763984680176	16189922.516763085
1.776710867881775	12833377.215607444
1.7804391384124756	10755765.97744175
1.7841613292694092	9932917.415577993
1.7878772020339966	8394747.932850376
1.7915871143341064	7103466.493983746
1.7952908277511597	6942313.227908122
1.7989884614944458	6633738.887032736
1.8026801347732544	5102588.1019461155
1.806365728378296	3598243.7831816515
1.8100452423095703	2987305.3939102646
1.8137187957763672	2679911.6379759833
1.817386507987976	2612737.814980181
1.8210482597351074	2675891.2981914585
1.8247040510177612	2658959.738195495
1.828354001045227	2645886.814902667
1.8319982290267944	2826723.4953949424
1.8356364965438843	3019626.4308922337
1.8392690420150757	3973062.3282661256
1.8428958654403687	6058625.79584374
1.8465168476104736	6960167.772875967
1.8501322269439697	5614730.892872783
1.8537418842315674	4039670.4880459076
1.8573459386825562	3698237.6235453817
1.860944390296936	3645324.5182786295
1.864537239074707	3673402.6578850523
1.8681244850158691	4210437.773388552
1.871706247329712	4386508.207902287
1.8752825260162354	5385562.591333156
1.8788533210754395	7942629.262968313
1.8824186325073242	9341063.07335113
1.8859784603118896	9017080.074120441
1.8895330429077148	9153987.358327365
1.8930821418762207	11019910.202070821
1.8966259956359863	11791622.868339086
1.9001644849777222	8364386.707998373
1.9036977291107178	5865000.551990253
1.9072256088256836	7513087.030197101
1.9107483625411987	7596077.566298916
1.9142658710479736	4969767.629245837
1.9177782535552979	3309015.3362641446
1.9212853908538818	2644640.820985523
1.9247875213623047	2532090.53191037
1.9282845258712769	2947641.596123107
1.9317764043807983	3498793.0662655504
1.9352631568908691	4291161.671492178
1.9387450218200684	5042429.889785205
1.942221760749817	5498844.188424761
1.9456936120986938	5416601.182503741
1.9491604566574097	5465289.971594223
1.952622413635254	5261780.316482118
1.956079363822937	4314625.82684584
1.959531545639038	4296985.14892627
1.962978720664978	5612117.219058996
1.966421127319336	8162473.686939836
1.9698586463928223	10645311.698997548
1.9732913970947266	10744397.101766756
1.9767193794250488	10049572.26130411
1.9801424741744995	10879932.870137934
1.9835609197616577	13558150.549243184
1.9869745969772339	15585318.527135592
1.990383505821228	14805319.299475864
1.9937876462936401	14702023.956549887
1.9971871376037598	15713629.213623308
2.000581979751587	16591449.594937742
2.003972291946411	18635733.4465287
2.007357597351074	20433421.546645608
2.0107386112213135	21746097.449167103
2.0141148567199707	22704505.549485218
2.017486572265625	22710656.84545707
2.0208535194396973	24573462.3781934
2.0242159366607666	27606961.181343142
2.027573823928833	28228911.912782468
2.0309269428253174	28005931.050309997
2.034275770187378	29141743.455808192
2.0376198291778564	30418087.52293321
2.040959596633911	31166835.27835945
2.044294595718384	32838033.334762063
2.0476250648498535	35472425.43247245
2.0509510040283203	36192696.57575152
2.054272413253784	35834243.48808404
2.057589530944824	37504176.6951463
2.0609018802642822	39036693.2647012
2.0642096996307373	39100295.37511339
2.0675129890441895	39774725.210593686
2.0708119869232178	40637119.49323229
2.074106216430664	40245653.232196584
2.0773961544036865	39635060.864882566
2.080681324005127	39775147.94162848
2.0839622020721436	40080923.78622743
2.087238311767578	40313174.37882506
2.090510129928589	40634063.656945094
2.0937774181365967	40811684.80656178
2.0970399379730225	40790770.76603442
2.1002981662750244	40489662.77667315
2.1035518646240234	39816172.087437555
2.1068007946014404	39129580.92353682
2.1100454330444336	38963150.81060507
2.1132853031158447	39177117.42138886
2.116520881652832	39128998.8835694
2.1197516918182373	38921097.71598859
2.1229779720306396	38848833.87215646
2.12619948387146	38675307.731738046
2.1294167041778564	38307936.53773182
2.132629156112671	37935352.663157955
2.1358368396759033	37357988.52251837
2.139039993286133	36541661.743273616
2.1422386169433594	35635692.43038606
2.145432472229004	34837338.765909486
2.1486217975616455	34348160.43997794
2.151806354522705	33830672.560157314
2.1549863815307617	33577463.02112747
2.1581614017486572	33407452.788249876
2.16133189201355	32797983.586392116
2.1644976139068604	32256625.606305595
2.167658567428589	31723006.744088918
2.1708147525787354	30897186.7563218
2.173966407775879	29901974.0379335
2.1771130561828613	28903194.563142326
2.1802549362182617	27974284.21646377
2.183391809463501	27023285.167398825
2.1865241527557373	25966198.185254637
2.1896514892578125	24613023.87108779
2.1927738189697266	22465913.697935294
2.1958916187286377	19556727.056485686
2.1990041732788086	16561787.143885884
2.2021119594573975	13917901.40224274
2.2052149772644043	12196484.649606679
2.208312749862671	12376462.710007954
2.2114057540893555	14043178.515277842
2.214493751525879	15452246.532668592
2.217576742172241	15758431.284689069
2.2206547260284424	15433798.342249537
2.2237277030944824	15031926.551976897
2.2267956733703613	14288301.83879595
2.2298583984375	13396261.370974293
2.2329163551330566	12794222.027011326
2.235969066619873	12290951.640104692
2.2390167713165283	11777970.272860557
2.2420592308044434	11042155.049752297
2.2450966835021973	10184703.259989416
2.248128890991211	10058361.685229806
2.2511560916900635	10506157.14654044
2.254178285598755	10550708.9839451
2.257194995880127	10368056.730925087
2.260206699371338	10133524.31639121
2.2632133960723877	9515485.266324306
2.266214609146118	9100228.985952167
2.2692108154296875	9434004.825643418
2.2722020149230957	10133824.584901914
2.2751877307891846	10531571.597383471
2.278168201446533	10245575.556946363
2.2811436653137207	9586044.44884545
2.284113883972168	9000454.049115526
2.287078857421875	8545146.731172228
2.290038824081421	8174249.748751732
2.2929933071136475	8046930.444386453
2.295942783355713	8229343.1947917985
2.298887014389038	8635225.807436088
2.301826238632202	9429747.071804145
2.304760217666626	10774855.241754226
2.3076889514923096	12505365.285849208
2.310612440109253	13927438.505803045
2.3135311603546143	13502510.316382062
2.3164443969726562	10604779.34450403
2.319352865219116	7576609.116407705
2.322256088256836	6537468.226079379
2.3251543045043945	6476675.303344543
2.328047275543213	6305944.445131774
2.330935478210449	6198953.033355738
2.3338186740875244	6192288.027258097
2.3366971015930176	6208562.88224257
2.3395702838897705	6161093.926581699
2.3424389362335205	5960687.119120524
2.3453025817871094	5807640.62270713
2.348161458969116	6037779.7234129375
2.351015567779541	6733440.0666395705
2.353865146636963	7658574.494120553
2.3567099571228027	8490021.57001133
2.3595502376556396	9313957.670794459
2.3623859882354736	10092474.801056415
2.3652172088623047	9876558.465768069
2.368043899536133	8032407.908256521
2.370866537094116	5783641.277354509
2.3736846446990967	4998352.516694532
2.3764986991882324	5515978.871716607
2.3793084621429443	6006411.99079096
2.3821144104003906	6204189.1142187035
2.384916305541992	6599404.96868235
2.387714147567749	7289914.465647907
2.3905084133148193	7807835.232031569
2.393299102783203	8000038.813791299
2.3960859775543213	8156714.736547621
2.398869514465332	8481781.667235145
2.4016497135162354	8622672.367075736
2.4044265747070312	8395471.071318472
2.407200336456299	8429634.042765861
2.409970998764038	9066378.07995487
2.4127390384674072	9708602.102995463
2.415503978729248	9722569.199945385
2.418266534805298	9382462.203719309
2.4210267066955566	9291748.884657055
2.4237842559814453	9413487.173490688
2.426539897918701	9583137.248050665
2.429293394088745	10123687.442334073
2.4320452213287354	10757482.93660771
2.4347951412200928	10530035.316206839
2.4375438690185547	9986591.960860422
2.440291166305542	10273945.885948595
2.443037271499634	10241917.812644547
2.445782423019409	9112338.388886144
2.4485268592834473	8213966.265906345
2.451270818710327	7973186.036586626
2.454014539718628	8204261.47802439
2.4567582607269287	8683298.978767782
2.4595019817352295	8566970.106756423
2.4622461795806885	8358842.491534551
2.4649908542633057	8204133.410158015
2.4677364826202393	7378206.333097505
2.4704833030700684	6376607.502552639
2.473231554031372	5505203.8161061015
2.4759814739227295	4771627.330611201
2.4787333011627197	4506992.068075158
2.481487512588501	4870124.1943940865
