#wavelength	surface flux
0.6450077295303345	15147.547808670588
0.6472567915916443	23875.513122359316
0.6494921445846558	31224.273259045895
0.6517150402069092	35967.26342038489
0.6539263725280762	40903.205353434976
0.6561272740364075	46203.27906258034
0.6583186388015747	51897.257414830856
0.6605015397071838	58020.72109376546
0.6626768708229065	64522.88312464432
0.6648455858230591	71133.44578970144
0.6670085787773132	75247.28660006089
0.6691668033599854	72058.99765495968
0.6713210344314575	72310.55730309994
0.6734722256660461	89031.57684803766
0.6756211519241333	108578.13573745535
0.6777685880661011	120757.70375084557
0.6799154281616211	130721.135173017
0.6820623278617859	140515.5062836587
0.6842101216316223	150287.5074813235
0.6863595843315125	159959.9921328121
0.688511312007904	169151.61501065927
0.6906660795211792	176830.5639464951
0.6928245425224304	183746.83464568763
0.6949873566627502	192622.95806566018
0.6971551775932312	202688.28986522974
0.6993286609649658	210904.57913451202
0.7015084028244019	216997.73908431304
0.7036949396133423	222585.5326399064
0.7058889269828796	227806.3624603487
0.7080909013748169	231654.0731942407
0.710301399230957	233970.53425267985
0.712520956993103	234303.6827937763
0.7147500514984131	230926.26537835383
0.7169892191886902	223571.84526592743
0.7192389369010925	216512.24942751895
0.7214996814727783	211376.92252913176
0.723771870136261	204006.52093079357
0.7260559797286987	193349.36788064757
0.7283523678779602	181175.71999877263
0.7306615710258484	168111.86339424734
0.7329838871955872	154810.42440458204
0.7353196740150452	140529.09931616715
0.7376693487167358	124596.82427466485
0.7400332689285278	108301.26092712315
0.7424117922782898	92118.31135533674
0.7448052167892456	76131.57248108363
0.7472138404846191	61010.54218664078
0.7496379613876343	47165.04675815212
0.7520779371261597	34959.31464322114
0.7545340061187744	24716.196440670687
0.7570064663887024	16537.484585901864
0.7594954967498779	10320.238285036256
0.7620013952255249	5770.046017883617
0.7645244002342224	2637.085563118668
0.7670646905899048	1017.7213160028773
0.7696225643157959	1079.0046114438574
0.7721980810165405	3219.649003372175
0.7747915983200073	7707.9776729415435
0.7774031162261963	13796.282250307255
0.7800329327583313	22588.42953735292
0.7826811671257019	38276.630456881336
0.7853479981422424	61078.17117688055
0.7880334854125977	87779.48188720092
0.7907378077507019	106340.2019275369
0.7934610247612	109014.37516840007
0.7962033748626709	148068.6567439677
0.7989648580551147	241492.6540945362
0.801745593547821	333103.13644235313
0.8045456409454346	411875.414469654
0.8073651194572449	490623.92661869444
0.8102040886878967	566778.8119035917
0.8130625486373901	650724.5172407418
0.8159406185150146	759323.9571965471
0.8188382983207703	887738.0038641746
0.8217556476593018	1024313.5598173237
0.8246926665306091	1172695.4853525772
0.8276493549346924	1333532.9548675593
0.8306257724761963	1500067.7694786189
0.8336219191551208	1669996.239274403
0.8366377949714661	1848299.7666174576
0.8396733403205872	2048081.9142426027
0.8427285552024841	2280209.842658114
0.8458034992218018	2519803.673369951
0.8488980531692505	2598934.855005665
0.8520121574401855	2607567.43926721
0.8551458716392517	3047789.410118064
0.8582990765571594	3720093.4859795966
0.8614717125892639	4145232.82006046
0.8646637797355652	4482041.9990127515
0.8678751587867737	4896296.62133343
0.8711057901382446	5345031.007267855
0.8743556141853333	5790190.114470066
0.87762451171875	6224443.39338728
0.8809124231338501	6614659.388812314
0.8842192888259888	6959595.635516606
0.8875449895858765	7123258.862598267
0.8908893465995789	6668004.842463896
0.894252359867096	6142649.084080049
0.8976338505744934	7084566.659169098
0.9010337591171265	9006813.112765191
0.9044519662857056	10441761.387149796
0.9078882932662964	11273855.079457873
0.9113426208496094	11835726.922500703
0.914814829826355	12139278.955175329
0.9183048605918884	12329681.953434631
0.9218124747276306	12437143.669731596
0.925337553024292	10440544.380317364
0.9288799166679382	6663225.336714412
0.9324395060539246	5084878.111969433
0.9360161423683167	6292100.610860347
0.9396095871925354	7698295.7267667195
0.943219780921936	7036105.718368859
0.9468464851379395	5579668.10511897
0.9504896402359009	5967453.9730903525
0.9541489481925964	7683823.219738663
0.9578243494033813	8328403.3593228785
0.9615156054496765	7233256.893553515
0.9652225375175476	6799166.883787374
0.9689450263977051	8832699.418661768
0.9726828336715698	12547963.80555059
0.9764357805252075	14973396.518968359
0.9802037477493286	15641106.173485221
0.983986496925354	17059955.56127058
0.9877838492393494	19536887.370931145
0.9915955662727356	21912483.00943087
0.9954215884208679	23502271.602864623
0.9992615580558777	24227418.495376963
1.0031154155731201	25274784.3231149
1.0069829225540161	27610725.442110524
1.0108637809753418	30791471.522158887
1.0147579908370972	34056485.11198377
1.018665075302124	36579390.63200153
1.022585153579712	38003679.97603156
1.0265177488327026	39180263.58339901
1.0304628610610962	41410638.29107758
1.0344202518463135	44535383.748742566
1.0383895635604858	47165942.20451746
1.0423706769943237	48945541.44605526
1.0463634729385376	50275367.39334342
1.0503677129745483	51374346.75422617
1.0543830394744873	52865418.12439365
1.058409333229065	54809582.74251553
1.0624464750289917	56413889.40523409
1.0664942264556885	57223176.3217699
1.0705522298812866	57727589.63198153
1.0746204853057861	58839037.76230405
1.0786986351013184	60189232.203713484
1.0827864408493042	60280254.74619622
1.086883783340454	56378054.82496726
1.0909905433654785	46596848.36053729
1.0951062440872192	34609027.84058155
1.0992310047149658	23687100.834981162
1.10336434841156	14322932.979328124
1.1075061559677124	9717925.670760695
1.1116561889648438	8032553.5137249995
1.115814208984375	6215048.785382947
1.1199802160263062	4740222.9580576345
1.124153733253479	3809377.559664639
1.1283347606658936	4198747.834041892
1.1325229406356812	4627990.379506155
1.1367181539535522	6053470.785270333
1.1409201622009277	7791553.4162840545
1.145128846168518	7823878.724446294
1.1493438482284546	7135160.656072533
1.1535650491714478	5268914.160550701
1.1577922105789185	3855124.0644374965
1.1620250940322876	4329709.126821376
1.1662636995315552	5286549.635815119
1.170507550239563	6295478.995456904
1.174756646156311	8610919.855906637
1.1790107488632202	13282916.389650526
1.1832695007324219	19619349.047935333
1.1875330209732056	24794074.013920132
1.191800832748413	29827335.955805004
1.1960728168487549	36030085.91069892
1.2003488540649414	41037372.88297507
1.2046287059783936	45555847.32468071
1.2089121341705322	48563025.58595307
1.2131990194320679	51110792.932791844
1.2174891233444214	56484584.692904286
1.2217823266983032	62823880.813187234
1.2260783910751343	67754569.59801188
1.230377197265625	71003275.3037462
1.2346785068511963	73621631.9124018
1.238982081413269	74496806.61059402
1.2432878017425537	73649762.08859085
1.2475954294204712	73448409.1704036
1.2519049644470215	73836932.88266286
1.256216049194336	79167542.61870675
1.2605286836624146	85965703.2965965
1.2648425102233887	87294615.79460482
1.2691574096679688	87022917.20180085
1.2734732627868652	86919380.85857926
1.2777899503707886	84632616.46689984
1.2821072340011597	79212722.9620344
1.2864248752593994	72587576.21784322
1.2907428741455078	65468788.814990684
1.2950609922409058	60770743.48954364
1.2993791103363037	59068240.15283739
1.303696870803833	58285362.434535205
1.3080145120620728	57642738.03761009
1.3123314380645752	54715740.91229216
1.3166478872299194	51282712.42613869
1.3209635019302368	45722124.3728006
1.3252781629562378	34010516.913352706
1.3295916318893433	19999522.302936424
1.3339040279388428	8554728.778643021
1.3382149934768677	2328385.7761935364
1.3425244092941284	654482.4111429899
1.3468321561813354	394099.61121753114
1.3511382341384888	244614.4981776809
1.3554422855377197	151681.0447626054
1.3597444295883179	167341.26087348454
1.3640443086624146	159682.33692935295
1.3683418035507202	176811.57241334193
1.3726370334625244	245489.75028016188
1.3769296407699585	248271.04441748434
1.381219506263733	133912.74211783157
1.3855066299438477	60305.60653131877
1.3897908926010132	97844.29515886972
1.3940720558166504	178867.8587704413
1.3983501195907593	284056.64661396935
1.4026249647140503	480730.9815252318
1.4068963527679443	595232.829927833
1.4111642837524414	405585.9010394086
1.4154287576675415	204461.74310479529
1.419689416885376	196366.38462754438
1.4239463806152344	276102.2228154707
1.4281994104385376	412103.7207003421
1.4324485063552856	466180.53323777515
1.436693549156189	483784.6007585622
1.440934419631958	714993.2661074727
1.4451709985733032	1071945.590978364
1.449403166770935	1420594.9885626289
1.453631043434143	1802482.2607531531
1.4578542709350586	2358076.593882582
1.4620729684829712	2793698.3340704506
1.4662868976593018	2830798.200182739
1.4704961776733398	2926953.2907084883
1.4747005701065063	3139891.399526442
1.4788999557495117	3162111.1094128187
1.4830944538116455	3277291.229695499
1.4872838258743286	3455014.4982659277
1.491468071937561	3602730.764470032
1.4956470727920532	4258967.148731049
1.4998208284378052	5797033.032756769
1.5039892196655273	7379681.454083772
1.5081522464752197	7955160.557249488
1.5123097896575928	8896603.070911165
1.5164618492126465	11010954.58874317
1.5206083059310913	13580072.64203555
1.5247491598129272	15782428.530104069
1.5288842916488647	17147786.651998654
1.5330137014389038	18928587.03562404
1.5371372699737549	20804217.179007184
1.541254997253418	22255536.922344163
1.545366883277893	24507596.776087493
1.5494728088378906	26909336.4258465
1.5535727739334106	28400014.606667593
1.5576666593551636	30072984.717383727
1.561754584312439	32952184.246875226
1.5658363103866577	35916787.54210368
1.5699119567871094	37493391.849361464
1.5739814043045044	37811256.137244605
1.5780447721481323	38344871.85721067
1.582101821899414	40058022.54038621
1.5861525535583496	41769332.202029794
1.5901970863342285	41604183.303111576
1.5942351818084717	40333598.75729382
1.5982669591903687	39435101.019630946
1.6022924184799194	37920933.19246332
1.606311559677124	35661074.73887695
1.6103241443634033	33861825.83352523
1.6143304109573364	31902626.399828788
1.6183301210403442	28827464.394801594
1.6223233938217163	25293398.051500652
1.6263102293014526	22366000.49283602
1.6302905082702637	20850509.212981753
1.634264349937439	22963682.2391286
1.638231635093689	27870181.06275111
1.6421923637390137	27910095.33624339
1.646146535873413	21753395.052752297
1.6500942707061768	19389446.676797062
1.6540353298187256	22932766.710056923
1.6579699516296387	24917206.246885996
1.661897897720337	22536264.684275635
1.6658192873001099	15886921.433089066
1.6697341203689575	11207671.89984301
1.6736423969268799	13224584.265993044
1.677544116973877	15178755.875585655
1.6814392805099487	14732185.377372852
1.6853278875350952	13735377.570379049
1.6892099380493164	11753478.76607338
1.6930854320526123	9177179.876644133
1.696954369544983	7157756.703656792
1.7008168697357178	6889558.853752226
1.7046726942062378	7791039.302271703
1.708522081375122	9312784.266522266
1.712364912033081	11148042.959211402
1.7162011861801147	12742034.205132771
1.7200311422348022	13536630.717376815
1.723854422569275	12933623.298842747
1.7276713848114014	11675494.09610622
1.731481909751892	10608066.455271069
1.7352858781814575	9746000.304169307
1.7390835285186768	9011787.817471413
1.7428747415542603	8251266.392443653
1.7466596364974976	7603331.700286523
1.7504380941390991	6803013.193720086
1.7542102336883545	5397957.796681362
1.7579760551452637	4412778.5812289
1.7617355585098267	4278525.663122022
1.7654887437820435	3851113.723890528
1.7692357301712036	3032557.5487451293
1.7729763984680176	2348768.8943165787
1.776710867881775	1746539.6158839078
1.7804391384124756	1403170.1364684156
1.7841613292694092	1297574.0862322277
1.7878772020339966	1020386.883609749
1.7915871143341064	754355.9183654335
1.7952908277511597	738370.1724790727
1.7989884614944458	745283.3793078287
1.8026801347732544	513425.2286872877
1.806365728378296	268535.21574441815
1.8100452423095703	188586.41933522144
1.8137187957763672	151211.25738524107
1.817386507987976	136316.87716285244
1.8210482597351074	137184.68279922084
1.8247040510177612	129895.21068125287
1.828354001045227	114691.77030609583
1.8319982290267944	113614.64251662628
1.8356364965438843	122698.83364464575
1.8392690420150757	207150.66023737274
1.8428958654403687	456361.8052750603
1.8465168476104736	635003.2571973458
1.8501322269439697	505272.7009905055
1.8537418842315674	321076.25491760223
1.8573459386825562	326090.7880697051
1.860944390296936	334341.22424581303
1.864537239074707	272766.2219350153
1.8681244850158691	255879.97369844536
1.871706247329712	245889.6779330204
1.8752825260162354	408785.5961240541
1.8788533210754395	864405.2185762969
1.8824186325073242	1093589.82274669
1.8859784603118896	900439.6479400307
1.8895330429077148	845533.1113943366
1.8930821418762207	1317566.1846242456
1.8966259956359863	1562952.739480102
1.9001644849777222	908574.2196853276
1.9036977291107178	396588.97138097306
1.9072256088256836	542417.7038362323
1.9107483625411987	545375.8006721056
1.9142658710479736	286992.3908840739
1.9177782535552979	149759.21132134314
1.9212853908538818	117817.6221230321
1.9247875213623047	122038.77606537737
1.9282845258712769	157314.53878812274
1.9317764043807983	204354.7471557782
1.9352631568908691	279913.14942332194
1.9387450218200684	380991.8010418869
1.942221760749817	476185.1043761995
1.9456936120986938	506296.3655351517
1.9491604566574097	560114.6559342674
1.952622413635254	558205.1524305962
1.956079363822937	422026.6803326767
1.959531545639038	418278.8625490341
1.962978720664978	650233.7229799087
1.966421127319336	1141735.3440218547
1.9698586463928223	1658100.035678965
1.9732913970947266	1695667.5719990327
1.9767193794250488	1478739.7254941545
1.9801424741744995	1650056.8361399316
1.9835609197616577	2402721.8178585996
1.9869745969772339	2925809.2282233424
1.990383505821228	2628923.619935861
1.9937876462936401	2453184.413407102
1.9971871376037598	2832355.665072285
2.000581979751587	3198845.1859676344
2.003972291946411	3290550.622065152
2.007357597351074	3753162.9236424286
2.0107386112213135	4917293.56647319
2.0141148567199707	5529664.01850811
2.017486572265625	5362173.681030405
2.0208535194396973	5695799.2438777005
2.0242159366607666	6327871.218234247
2.027573823928833	6617835.859510287
2.0309269428253174	6902635.312822296
2.034275770187378	7319916.53824566
2.0376198291778564	7790701.401370638
2.040959596633911	8321501.708632086
2.044294595718384	9196976.583903577
2.0476250648498535	10317937.001106238
2.0509510040283203	10519973.863228798
2.054272413253784	10145790.864354
2.057589530944824	10666087.629689533
2.0609018802642822	11425579.416226255
2.0642096996307373	11633224.230757384
2.0675129890441895	11838880.03411325
2.0708119869232178	12054360.437011281
2.074106216430664	11910802.329694744
2.0773961544036865	11674331.882874954
2.080681324005127	11631470.818070868
2.0839622020721436	11673022.288982628
2.087238311767578	11750230.564436821
2.090510129928589	11822237.959829906
2.0937774181365967	11774233.404134646
2.0970399379730225	11668907.75635586
2.1002981662750244	11479997.209168786
2.1035518646240234	11157196.045785837
2.1068007946014404	10826020.860705372
2.1100454330444336	10667684.905468477
2.1132853031158447	10662968.901869044
2.116520881652832	10580370.706069905
2.1197516918182373	10420002.054327426
2.1229779720306396	10311678.510271454
2.12619948387146	10208364.56621319
2.1294167041778564	10062091.123857029
2.132629156112671	9913804.206201714
2.1358368396759033	9656558.940007443
2.139039993286133	9301055.122355964
2.1422386169433594	8850798.420244496
2.145432472229004	8408296.675635502
2.1486217975616455	8156995.004385357
2.151806354522705	7869432.340491922
2.1549863815307617	7710816.781273818
2.1581614017486572	7648232.196254754
2.16133189201355	7389528.302658998
2.1644976139068604	7177279.136927961
2.167658567428589	7011764.756402036
2.1708147525787354	6794943.054844156
2.173966407775879	6558748.2067163205
2.1771130561828613	6277706.28150695
2.1802549362182617	5951448.691044233
2.183391809463501	5609562.155851051
2.1865241527557373	5240455.968220672
2.1896514892578125	4707984.971190281
2.1927738189697266	3851151.042329632
2.1958916187286377	2852335.1246053874
2.1990041732788086	2029725.6674101371
2.2021119594573975	1486178.5276811703
2.2052149772644043	1307218.7896426148
2.208312749862671	1534064.9369324667
2.2114057540893555	1944042.3812558765
2.214493751525879	2196582.0088069495
2.217576742172241	2161353.021692137
2.2206547260284424	1963899.5828769174
2.2237277030944824	1784735.354198275
2.2267956733703613	1625256.8423749374
2.2298583984375	1480034.663594159
2.2329163551330566	1373101.7400238763
2.235969066619873	1271052.4493097751
2.2390167713165283	1170828.0594934663
2.2420592308044434	1007833.8521806325
2.2450966835021973	785200.1162964697
2.248128890991211	736007.9872476548
2.2511560916900635	873983.8221057901
2.254178285598755	925818.441084763
2.257194995880127	894053.0978679099
2.260206699371338	867293.7298795666
2.2632133960723877	799536.4766681402
2.266214609146118	768511.2144639299
2.2692108154296875	851514.7961463523
2.2722020149230957	997721.5945339489
2.2751877307891846	1088512.8537227728
2.278168201446533	1049308.4196700256
2.2811436653137207	940017.2697844019
2.284113883972168	845492.1915434671
2.287078857421875	776981.5069056685
2.290038824081421	718720.7926983628
2.2929933071136475	698823.2874593998
2.295942783355713	716045.0026566124
2.298887014389038	725231.0844545531
2.301826238632202	776247.1973966805
2.304760217666626	1013146.0282728601
2.3076889514923096	1477981.073510291
2.310612440109253	1943887.777932325
2.3135311603546143	1931419.0428161721
2.3164443969726562	1304618.9588090123
2.319352865219116	704558.1926441058
2.322256088256836	568985.8956475877
2.3251543045043945	611982.3237494746
2.328047275543213	601152.9204402752
2.330935478210449	587556.1848749478
2.3338186740875244	586473.8067352955
2.3366971015930176	563200.2996111948
2.3395702838897705	521634.60365609574
2.3424389362335205	469602.90608270897
2.3453025817871094	432273.0427960649
2.348161458969116	450242.4848849091
2.351015567779541	538829.6218147518
2.353865146636963	672274.4577335791
2.3567099571228027	815973.6116500619
2.3595502376556396	987563.8782784737
2.3623859882354736	1145026.9007628323
2.3652172088623047	1093700.4589664699
2.368043899536133	774015.9509735401
2.370866537094116	445417.06800834555
2.3736846446990967	355698.8153834392
2.3764986991882324	455044.351506876
2.3793084621429443	575219.3071065567
2.3821144104003906	641463.4499344777
2.384916305541992	690048.8131835783
2.387714147567749	765514.3260887454
2.3905084133148193	832234.4899262721
2.393299102783203	854670.0453286006
2.3960859775543213	860593.9888613664
2.398869514465332	904245.8263466266
2.4016497135162354	938988.7626106145
2.4044265747070312	915361.1396645893
2.407200336456299	944735.5472630574
2.409970998764038	1113810.368346465
2.4127390384674072	1292624.1484268853
2.415503978729248	1313063.0291339718
2.418266534805298	1251458.6178693487
2.4210267066955566	1260972.6599057515
2.4237842559814453	1305247.2583703143
2.426539897918701	1372493.0297575071
2.429293394088745	1586446.057185267
2.4320452213287354	1822949.0441747971
2.4347951412200928	1799082.582080472
2.4375438690185547	1718121.9209902852
2.440291166305542	1908812.903340647
2.443037271499634	2000340.8765851567
2.445782423019409	1706267.6783131543
2.4485268592834473	1418739.0262285923
2.451270818710327	1397786.5064124095
2.454014539718628	1561549.8438746468
2.4567582607269287	1732767.3100149343
2.4595019817352295	1753093.5761940763
2.4622461795806885	1728156.0958726068
2.4649908542633057	1672611.409030843
2.4677364826202393	1479916.2268632152
2.4704833030700684	1259938.3182242678
2.473231554031372	1075459.337807107
2.4759814739227295	926924.405613571
2.4787333011627197	874461.5326409544
2.481487512588501	938725.4786359338
