#wavelength	surface flux
0.6450077295303345	902.3734502626194
0.6472567915916443	1366.8927366327894
0.6494921445846558	1662.045805657121
0.6517150402069092	1757.8906147918808
0.6539263725280762	1843.946748654044
0.6561272740364075	1931.5112856740882
0.6583186388015747	2022.0705277823338
0.6605015397071838	2116.617383169679
0.6626768708229065	2214.6563956326668
0.6648455858230591	2315.2727062300364
0.6670085787773132	2413.3958795259487
0.6691668033599854	2498.9943081127203
0.6713210344314575	2596.565796698323
0.6734722256660461	2729.2299578098523
0.6756211519241333	2865.0792705467106
0.6777685880661011	2989.3203398461533
0.6799154281616211	3114.781479613502
0.6820623278617859	3244.096788812308
0.6842101216316223	3377.5093813307935
0.6863595843315125	3515.0522903724905
0.688511312007904	3655.202494148927
0.6906660795211792	3792.5129185262913
0.6928245425224304	3933.0585966292697
0.6949873566627502	4093.603951812828
0.6971551775932312	4265.226132816175
0.6993286609649658	4432.738164718589
0.7015084028244019	4600.834407672537
0.7036949396133423	4779.526449303028
0.7058889269828796	4968.815367588182
0.7080909013748169	5160.098322704155
0.710301399230957	5356.179352264882
0.712520956993103	5558.76381343456
0.7147500514984131	5753.595950516581
0.7169892191886902	5942.898210637108
0.7192389369010925	6155.909429284912
0.7214996814727783	6383.371168904077
0.723771870136261	6600.29783002942
0.7260559797286987	6819.599225907444
0.7283523678779602	7051.413007743135
0.7306615710258484	7304.7378209383205
0.7329838871955872	7584.31243036914
0.7353196740150452	7866.124474997463
0.7376693487167358	8145.192380107964
0.7400332689285278	8424.293313257562
0.7424117922782898	8689.884544319206
0.7448052167892456	8946.098299259296
0.7472138404846191	9183.43833297859
0.7496379613876343	9372.700803794387
0.7520779371261597	9476.735157406081
0.7545340061187744	9427.540055666937
0.7570064663887024	9093.196759313592
0.7594954967498779	8197.142341188013
0.7620013952255249	6299.57968189941
0.7645244002342224	3555.0471974747898
0.7670646905899048	1477.2156220000013
0.7696225643157959	1553.5623825942341
0.7721980810165405	4178.684649264078
0.7747915983200073	7998.392318596194
0.7774031162261963	10905.958776761969
0.7800329327583313	12665.92440849311
0.7826811671257019	14116.112027367059
0.7853479981422424	15405.897612898882
0.7880334854125977	16400.12155048208
0.7907378077507019	16764.29774364586
0.7934610247612	16073.252488549726
0.7962033748626709	16480.343734342954
0.7989648580551147	18795.170941899698
0.801745593547821	20544.557863151353
0.8045456409454346	21420.226637713113
0.8073651194572449	22216.127792161467
0.8102040886878967	22942.760334479746
0.8130625486373901	23726.83434970741
0.8159406185150146	24717.590097681048
0.8188382983207703	25766.11875831986
0.8217556476593018	26724.718776214828
0.8246926665306091	27706.061717549874
0.8276493549346924	28731.957793115158
0.8306257724761963	29743.492058941607
0.8336219191551208	30800.00193551225
0.8366377949714661	31892.182863476344
0.8396733403205872	33099.345528291815
0.8427285552024841	34491.88544152085
0.8458034992218018	35902.09430544509
0.8488980531692505	37258.45701594578
0.8520121574401855	38629.95643921804
0.8551458716392517	40067.87676834312
0.8582990765571594	41544.87779554389
0.8614717125892639	43022.80057053764
0.8646637797355652	44544.0642880666
0.8678751587867737	46147.450198804465
0.8711057901382446	47817.5151440342
0.8743556141853333	49479.74937577569
0.87762451171875	51077.83674437038
0.8809124231338501	52641.727995566514
0.8842192888259888	54232.75408966125
0.8875449895858765	55845.771773234526
0.8908893465995789	57309.697718466006
0.894252359867096	58792.047734054686
0.8976338505744934	61025.330674178374
0.9010337591171265	63900.09626075868
0.9044519662857056	66600.35979747146
0.9078882932662964	69019.8149265113
0.9113426208496094	71361.00277914332
0.914814829826355	73441.43336667649
0.9183048605918884	75619.16929675864
0.9218124747276306	77831.86324041725
0.925337553024292	77386.78334527301
0.9288799166679382	73979.72676702736
0.9324395060539246	73161.34214267785
0.9360161423683167	77280.07415318004
0.9396095871925354	82578.54301947312
0.943219780921936	84466.26361495901
0.9468464851379395	84911.59286774593
0.9504896402359009	88328.63845536565
0.9541489481925964	93257.86239907783
0.9578243494033813	96263.2594721896
0.9615156054496765	96745.5358761846
0.9652225375175476	98775.24590114402
0.9689450263977051	105015.75763157995
0.9726828336715698	113549.0144462251
0.9764357805252075	120311.86885098046
0.9802037477493286	125237.11050019405
0.983986496925354	130384.27947941597
0.9877838492393494	135852.51799534954
0.9915955662727356	141624.01479933408
0.9954215884208679	147181.34673611718
0.9992615580558777	152381.43562308306
1.0031154155731201	157409.44882262705
1.0069829225540161	162586.1054946009
1.0108637809753418	168008.4805933836
1.0147579908370972	173527.4218794045
1.018665075302124	178895.09092830744
1.022585153579712	183776.94635284814
1.0265177488327026	188326.00589481439
1.0304628610610962	193498.747321411
1.0344202518463135	200009.88935949144
1.0383895635604858	206729.2923848689
1.0423706769943237	212853.3329674516
1.0463634729385376	218760.75820131603
1.0503677129745483	224649.01494620004
1.0543830394744873	230928.69177915066
1.058409333229065	237556.21765421733
1.0624464750289917	244163.33494475766
1.0664942264556885	250666.40884525908
1.0705522298812866	257186.7976517186
1.0746204853057861	263995.4134391933
1.0786986351013184	271057.63860634784
1.0827864408493042	278114.45419965574
1.086883783340454	284640.8805820514
1.0909905433654785	290267.7593335505
1.0951062440872192	293553.23999064934
1.0992310047149658	287047.7391438042
1.10336434841156	272486.08255269774
1.1075061559677124	268676.47371846536
1.1116561889648438	268158.48681820167
1.115814208984375	257027.11823868606
1.1199802160263062	248805.17327592123
1.124153733253479	255958.71680513263
1.1283347606658936	267571.74545372056
1.1325229406356812	264252.4473643905
1.1367181539535522	275469.9206538936
1.1409201622009277	310675.4457907127
1.145128846168518	331771.16507634596
1.1493438482284546	310890.74520809023
1.1535650491714478	266405.8469088877
1.1577922105789185	257692.9875995436
1.1620250940322876	291414.0005736645
1.1662636995315552	336439.5961126819
1.170507550239563	370390.35328415723
1.174756646156311	401037.8792182938
1.1790107488632202	436204.86645923805
1.1832695007324219	462329.88503507356
1.1875330209732056	480051.83703120623
1.191800832748413	496834.2601371171
1.1960728168487549	514616.52433135913
1.2003488540649414	529576.2245318121
1.2046287059783936	541930.0308077198
1.2089121341705322	554453.2496198397
1.2131990194320679	567406.7642357465
1.2174891233444214	580778.8346368541
1.2217823266983032	594539.5268191207
1.2260783910751343	608155.5856374479
1.230377197265625	621085.1257023461
1.2346785068511963	633675.9800550337
1.238982081413269	646958.4042770664
1.2432878017425537	660285.6003344851
1.2475954294204712	673149.3723418702
1.2519049644470215	686191.670280898
1.256216049194336	699494.017896428
1.2605286836624146	712223.4158503902
1.2648425102233887	724538.1512454094
1.2691574096679688	736961.4646452133
1.2734732627868652	749803.8451094431
1.2777899503707886	762616.5851452372
1.2821072340011597	774398.5061990627
1.2864248752593994	783996.017563965
1.2907428741455078	791524.6373080912
1.2950609922409058	801651.5532210483
1.2993791103363037	812307.4267111814
1.303696870803833	819348.1957765374
1.3080145120620728	826940.2870174345
1.3123314380645752	839093.7539401449
1.3166478872299194	857475.0590800379
1.3209635019302368	864000.8353964488
1.3252781629562378	841854.0663229071
1.3295916318893433	774703.4161965149
1.3339040279388428	633471.5027921802
1.3382149934768677	431656.037343523
1.3425244092941284	303092.4750556373
1.3468321561813354	290247.3011856212
1.3511382341384888	240094.96067526314
1.3554422855377197	167250.82748989973
1.3597444295883179	147584.93032171865
1.3640443086624146	156031.69324305575
1.3683418035507202	196719.37351171486
1.3726370334625244	310019.46999326564
1.3769296407699585	415785.92916541273
1.381219506263733	329534.02421387174
1.3855066299438477	169813.73999591853
1.3897908926010132	123975.96929120054
1.3940720558166504	141013.0613236602
1.3983501195907593	183603.05464380825
1.4026249647140503	282447.65751719207
1.4068963527679443	352795.9557955055
1.4111642837524414	289337.4183731478
1.4154287576675415	239475.8418595819
1.419689416885376	250600.47333331406
1.4239463806152344	245869.11545525334
1.4281994104385376	286906.16658666555
1.4324485063552856	329851.94734551583
1.436693549156189	345911.2736326471
1.440934419631958	411652.5815305922
1.4451709985733032	559841.6540497055
1.449403166770935	750950.0976659827
1.453631043434143	871187.293242555
1.4578542709350586	920532.1880702318
1.4620729684829712	968952.847768466
1.4662868976593018	972592.1473350675
1.4704961776733398	925837.7051103109
1.4747005701065063	900643.0227770534
1.4788999557495117	931913.5834529304
1.4830944538116455	1043166.7103729721
1.4872838258743286	1173330.1327543193
1.491468071937561	1222897.0015884931
1.4956470727920532	1213814.7375973682
1.4998208284378052	1243466.0531685385
1.5039892196655273	1307606.3638061641
1.5081522464752197	1341289.1798256512
1.5123097896575928	1381066.8777263244
1.5164618492126465	1450454.4885686212
1.5206083059310913	1526987.0618480896
1.5247491598129272	1585002.9591949417
1.5288842916488647	1612172.0088407628
1.5330137014389038	1640435.9954189046
1.5371372699737549	1677645.3568895725
1.541254997253418	1703299.3950843958
1.545366883277893	1727011.1705715351
1.5494728088378906	1756514.1593084673
1.5535727739334106	1778722.8880697445
1.5576666593551636	1789477.669358231
1.561754584312439	1809970.493004079
1.5658363103866577	1848178.7740333197
1.5699119567871094	1876307.2367177368
1.5739814043045044	1867166.0400950979
1.5780447721481323	1833179.2899241124
1.582101821899414	1853009.24348307
1.5861525535583496	1929640.8998463915
1.5901970863342285	1973487.6984302336
1.5942351818084717	1974768.2726034094
1.5982669591903687	1963613.858294821
1.6022924184799194	1960478.6049771018
1.606311559677124	1975309.6669775995
1.6103241443634033	1981155.3928785704
1.6143304109573364	1965025.6015489493
1.6183301210403442	1935521.6891965037
1.6223233938217163	1890494.417776602
1.6263102293014526	1830055.1553409128
1.6302905082702637	1773934.1655172186
1.634264349937439	1822725.1388076881
1.638231635093689	1984308.3732230086
1.6421923637390137	2072073.8943734332
1.646146535873413	2001335.84314914
1.6500942707061768	1925061.7269210108
1.6540353298187256	1984682.264728304
1.6579699516296387	2070438.5557003717
1.661897897720337	2002399.4781455314
1.6658192873001099	1761094.6183365213
1.6697341203689575	1677904.7391106843
1.6736423969268799	1881530.7875021459
1.677544116973877	2002855.4309966115
1.6814392805099487	1981834.3904841891
1.6853278875350952	1964178.9974599774
1.6892099380493164	1929144.096967499
1.6930854320526123	1827818.9239057715
1.696954369544983	1695371.9390123698
1.7008168697357178	1659588.3871953757
1.7046726942062378	1724509.149382043
1.708522081375122	1833171.3810435866
1.712364912033081	1948041.6382615576
1.7162011861801147	2053541.7271525
1.7200311422348022	2146353.45493981
1.723854422569275	2178560.724243326
1.7276713848114014	2162179.314571831
1.731481909751892	2130733.717740369
1.7352858781814575	2103258.3762745084
1.7390835285186768	2106434.916228728
1.7428747415542603	2110227.738936802
1.7466596364974976	2072751.7503515696
1.7504380941390991	1993934.8657051884
1.7542102336883545	1937799.6700010144
1.7579760551452637	2031830.5368459255
1.7617355585098267	2138197.9779036506
1.7654887437820435	2062342.2083893686
1.7692357301712036	1855680.2986877975
1.7729763984680176	1532683.777354675
1.776710867881775	1168534.5370201776
1.7804391384124756	1022795.2505038122
1.7841613292694092	1026075.58763544
1.7878772020339966	946196.7996074649
1.7915871143341064	975523.1194958771
1.7952908277511597	1134461.2090079014
1.7989884614944458	1103913.8921655132
1.8026801347732544	784120.5111729462
1.806365728378296	452614.6138797164
1.8100452423095703	446050.44603678153
1.8137187957763672	549472.2264357974
1.817386507987976	488267.21287191624
1.8210482597351074	595285.1228330113
1.8247040510177612	670763.1757606193
1.828354001045227	416705.77610331174
1.8319982290267944	335109.59920172114
1.8356364965438843	541949.9757510279
1.8392690420150757	745259.2875124185
1.8428958654403687	809144.5833395277
1.8465168476104736	832605.6557614665
1.8501322269439697	851360.2756663626
1.8537418842315674	682142.6589568612
1.8573459386825562	546578.4230097191
1.860944390296936	515821.02355752734
1.864537239074707	374472.1195534495
1.8681244850158691	355743.2313256386
1.871706247329712	590147.1923741797
1.8752825260162354	895640.6457717064
1.8788533210754395	1269925.9347702826
1.8824186325073242	1579292.0690488995
1.8859784603118896	1508027.4595762733
1.8895330429077148	1323731.5315517911
1.8930821418762207	1441042.497314398
1.8966259956359863	1357093.236069507
1.9001644849777222	753671.7987422235
1.9036977291107178	340565.3396662241
1.9072256088256836	374447.90426117217
1.9107483625411987	379257.91163083
1.9142658710479736	239826.1870691753
1.9177782535552979	248658.4730597812
1.9212853908538818	376113.20979691873
1.9247875213623047	395582.78485141485
1.9282845258712769	420874.82825709175
1.9317764043807983	570404.8993799046
1.9352631568908691	657484.0448805644
1.9387450218200684	659487.5649081975
1.942221760749817	762378.2171891051
1.9456936120986938	876119.3226803212
1.9491604566574097	941075.1338798783
1.952622413635254	895648.594602892
1.956079363822937	769266.5232365741
1.959531545639038	800329.3171451105
1.962978720664978	905319.4217509757
1.966421127319336	1131804.9051545726
1.9698586463928223	1515075.6215930046
1.9732913970947266	1724545.2424019244
1.9767193794250488	1817807.2195806915
1.9801424741744995	2039493.4732353387
1.9835609197616577	2250895.951309972
1.9869745969772339	2245886.8438374377
1.990383505821228	2065361.6677345035
1.9937876462936401	2051891.1887431524
1.9971871376037598	2122136.276350524
2.000581979751587	2203246.952131013
2.003972291946411	2494787.9406258496
2.007357597351074	2768191.254101486
2.0107386112213135	2949416.6228860444
2.0141148567199707	2986246.7001380953
2.017486572265625	2860240.9288639687
2.0208535194396973	2923158.9530184316
2.0242159366607666	3135615.740640741
2.027573823928833	3248458.9796132836
2.0309269428253174	3327173.2545109685
2.034275770187378	3422007.121846847
2.0376198291778564	3498983.436263971
2.040959596633911	3576528.6852043667
2.044294595718384	3669202.9992955322
2.0476250648498535	3746927.2683827854
2.0509510040283203	3753132.1125767822
2.054272413253784	3721000.922112184
2.057589530944824	3748131.3062334657
2.0609018802642822	3813279.0408957754
2.0642096996307373	3860563.2703981055
2.0675129890441895	3892017.9226459796
2.0708119869232178	3914922.9371802066
2.074106216430664	3923400.7924942668
2.0773961544036865	3926541.7961525745
2.080681324005127	3942113.7215257837
2.0839622020721436	3955107.496734139
2.087238311767578	3962937.7420781087
2.090510129928589	3969689.464164713
2.0937774181365967	3966653.945103381
2.0970399379730225	3966209.910884873
2.1002981662750244	3968164.74200739
2.1035518646240234	3962117.5818931106
2.1068007946014404	3953771.293325938
2.1100454330444336	3954508.6468607215
2.1132853031158447	3948244.6565833753
2.116520881652832	3914530.009302636
2.1197516918182373	3883340.60194874
2.1229779720306396	3879680.0281367865
2.12619948387146	3892710.1618498964
2.1294167041778564	3903422.0397539493
2.132629156112671	3908278.7692619655
2.1358368396759033	3882445.685991353
2.139039993286133	3826742.9611774837
2.1422386169433594	3762271.373001047
2.145432472229004	3697176.943337
2.1486217975616455	3647758.2972079525
2.151806354522705	3590476.77659932
2.1549863815307617	3589846.659453428
2.1581614017486572	3609911.421548549
2.16133189201355	3544186.124984195
2.1644976139068604	3491012.2259190325
2.167658567428589	3504384.6674157153
2.1708147525787354	3559691.6771135624
2.173966407775879	3615913.252846901
2.1771130561828613	3624199.0344799175
2.1802549362182617	3577768.2026160457
2.183391809463501	3490216.8196199303
2.1865241527557373	3384776.811434092
2.1896514892578125	3238097.5604333216
2.1927738189697266	2935230.8672147803
2.1958916187286377	2445663.459115127
2.1990041732788086	1974883.8652587987
2.2021119594573975	1739324.6409151154
2.2052149772644043	1735739.2879390612
2.208312749862671	1863082.2483334772
2.2114057540893555	2037304.9751173994
2.214493751525879	2140579.9059175528
2.217576742172241	2096759.1148468973
2.2206547260284424	2011587.4537645576
2.2237277030944824	1953856.650714927
2.2267956733703613	1800852.6204877417
2.2298583984375	1565013.9733757454
2.2329163551330566	1400942.750447517
2.235969066619873	1342626.56507112
2.2390167713165283	1289027.896770911
2.2420592308044434	1147258.2554458724
2.2450966835021973	994826.4149897654
2.248128890991211	1027546.5645884009
2.2511560916900635	1192365.9047354932
2.254178285598755	1284185.857692112
2.257194995880127	1338796.7697046737
2.260206699371338	1340451.592496184
2.2632133960723877	1202429.6357823603
2.266214609146118	1047648.0843253501
2.2692108154296875	1010802.4607589494
2.2722020149230957	1114691.1187580526
2.2751877307891846	1238189.6787313528
2.278168201446533	1238492.4169587025
2.2811436653137207	1159247.5612848985
2.284113883972168	1101090.2607217557
2.287078857421875	1043335.7222405174
2.290038824081421	978527.1206015744
2.2929933071136475	976297.1001623565
2.295942783355713	1031572.1495653902
2.298887014389038	1088664.9900568682
2.301826238632202	1170410.467090762
2.304760217666626	1378728.098033313
2.3076889514923096	1718242.9776072179
2.310612440109253	1978078.2799853126
2.3135311603546143	1843563.7390973843
2.3164443969726562	1303770.677713601
2.319352865219116	860416.3378574945
2.322256088256836	788515.8954294387
2.3251543045043945	828057.1812388744
2.328047275543213	818987.3245831376
2.330935478210449	814095.2850160028
2.3338186740875244	810618.9041341093
2.3366971015930176	787484.7454082386
2.3395702838897705	762465.344851215
2.3424389362335205	718213.629833667
2.3453025817871094	650087.860787586
2.348161458969116	622478.0410295315
2.351015567779541	711999.9198516855
2.353865146636963	898198.3374971378
2.3567099571228027	1059572.488597619
2.3595502376556396	1168483.0389041402
2.3623859882354736	1256743.9782868212
2.3652172088623047	1198257.8443976108
2.368043899536133	905255.282532117
2.370866537094116	597515.8640334492
2.3736846446990967	532619.4177838862
2.3764986991882324	629107.9829015697
2.3793084621429443	721675.5143226075
2.3821144104003906	821975.7637419124
2.384916305541992	966688.3228001299
2.387714147567749	1067538.7447214685
2.3905084133148193	1039491.4162302868
2.393299102783203	996391.6553571147
2.3960859775543213	1028105.441021138
2.398869514465332	1094191.7783159476
2.4016497135162354	1104309.1142599632
2.4044265747070312	1078778.2091481844
2.407200336456299	1185309.939224151
2.409970998764038	1412379.3979512595
2.4127390384674072	1558383.516023448
2.415503978729248	1606140.6526793735
2.418266534805298	1724947.5812507146
2.4210267066955566	1842230.3790549382
2.4237842559814453	1733278.9040019054
2.426539897918701	1572829.461713138
2.429293394088745	1695505.854616046
2.4320452213287354	1964318.7353559125
2.4347951412200928	2049281.231055498
2.4375438690185547	1997219.8090440785
2.440291166305542	2009531.6509747142
2.443037271499634	2003849.7906484257
2.445782423019409	1824140.3987082099
2.4485268592834473	1570732.8745149402
2.451270818710327	1510119.5186418095
2.454014539718628	1726319.3539750788
2.4567582607269287	1917409.8679645946
2.4595019817352295	1914706.8902167592
2.4622461795806885	1999556.1246909276
2.4649908542633057	2045154.1556832113
2.4677364826202393	1745186.7124108905
2.4704833030700684	1344580.9014659622
2.473231554031372	1065262.7520593253
2.4759814739227295	881981.6754806791
2.4787333011627197	806372.5445610923
