#wavelength	surface flux
0.6450077295303345	58529.58112335174
0.6472567915916443	88685.23483188958
0.6494921445846558	107915.46969565218
0.6517150402069092	114177.45622569963
0.6539263725280762	119619.37591769324
0.6561272740364075	124970.92147245706
0.6583186388015747	130407.37118071057
0.6605015397071838	136036.0913713019
0.6626768708229065	141749.58253652556
0.6648455858230591	147275.9505869833
0.6670085787773132	149881.33872116066
0.6691668033599854	144416.85275040468
0.6713210344314575	143241.94411512846
0.6734722256660461	158998.13068297572
0.6756211519241333	175657.9008948604
0.6777685880661011	184260.13066585353
0.6799154281616211	191061.61915660533
0.6820623278617859	197778.46130481808
0.6842101216316223	204577.01279738903
0.6863595843315125	211409.81249951868
0.688511312007904	218022.69901684197
0.6906660795211792	223703.20032241032
0.6928245425224304	229425.10161503748
0.6949873566627502	237361.4271609023
0.6971551775932312	246110.49353508366
0.6993286609649658	253709.53989290958
0.7015084028244019	260783.8103741318
0.7036949396133423	268469.3465718145
0.7058889269828796	276759.3735010831
0.7080909013748169	284643.96590014
0.710301399230957	292429.2246666822
0.712520956993103	300271.6142277402
0.7147500514984131	306455.4912793925
0.7169892191886902	311250.7304522793
0.7192389369010925	317975.1602138376
0.7214996814727783	325631.4804156057
0.723771870136261	331536.6503884214
0.7260559797286987	336782.1823124978
0.7283523678779602	342003.0046865825
0.7306615710258484	347810.0371504672
0.7329838871955872	354702.94789687847
0.7353196740150452	360496.39403227007
0.7376693487167358	364477.67635353614
0.7400332689285278	366495.6633059588
0.7424117922782898	364774.4305820347
0.7448052167892456	359303.1792449965
0.7472138404846191	348948.1461720602
0.7496379613876343	330985.7144806295
0.7520779371261597	303027.6560921395
0.7545340061187744	262691.85971255123
0.7570064663887024	208959.2783943532
0.7594954967498779	144616.6474226757
0.7620013952255249	79510.32453966931
0.7645244002342224	30256.835188672056
0.7670646905899048	7529.020500504917
0.7696225643157959	8829.995863460203
0.7721980810165405	38744.165203415454
0.7747915983200073	104082.15057983006
0.7774031162261963	184340.6245813118
0.7800329327583313	264971.8725362942
0.7826811671257019	360181.45945629565
0.7853479981422424	455460.6813068374
0.7880334854125977	526477.067990234
0.7907378077507019	545776.477317335
0.7934610247612	495189.65588825697
0.7962033748626709	523054.6441029935
0.7989648580551147	666558.4809946795
0.801745593547821	764548.335803335
0.8045456409454346	805139.5709813781
0.8073651194572449	836025.0055821278
0.8102040886878967	858234.3316161818
0.8130625486373901	883512.3253984998
0.8159406185150146	923333.029117044
0.8188382983207703	964807.4119848702
0.8217556476593018	997293.2224464027
0.8246926665306091	1029906.8015046547
0.8276493549346924	1063361.248331602
0.8306257724761963	1093158.4839215863
0.8336219191551208	1123904.2075067358
0.8366377949714661	1154487.4237586472
0.8396733403205872	1191641.4793998906
0.8427285552024841	1241249.0919696693
0.8458034992218018	1289313.7213968965
0.8488980531692505	1327221.8829612534
0.8520121574401855	1362888.5641898348
0.8551458716392517	1408811.492152731
0.8582990765571594	1455868.9189049285
0.8614717125892639	1489440.7444872956
0.8646637797355652	1523312.2836366512
0.8678751587867737	1569185.63798304
0.8711057901382446	1617780.3630377066
0.8743556141853333	1660226.890230839
0.87762451171875	1694861.9145378317
0.8809124231338501	1727190.4173814864
0.8842192888259888	1762713.4835212766
0.8875449895858765	1792174.0504051466
0.8908893465995789	1798775.2884160944
0.894252359867096	1806255.7300404187
0.8976338505744934	1869830.9282844423
0.9010337591171265	1973069.4353612289
0.9044519662857056	2060092.210595201
0.9078882932662964	2124221.296414077
0.9113426208496094	2175471.4796913504
0.914814829826355	2203483.25352761
0.9183048605918884	2234452.1187528046
0.9218124747276306	2261998.7036829027
0.925337553024292	2125835.0414412343
0.9288799166679382	1842452.072851562
0.9324395060539246	1722772.2426468397
0.9360161423683167	1849465.6858615442
0.9396095871925354	2028991.2654524683
0.943219780921936	2047261.72461121
0.9468464851379395	1986025.6919777694
0.9504896402359009	2058153.7454476557
0.9541489481925964	2201880.1850103987
0.9578243494033813	2238306.7059413744
0.9615156054496765	2136266.0120158936
0.9652225375175476	2107803.9416736746
0.9689450263977051	2294107.5646826173
0.9726828336715698	2615961.8327043233
0.9764357805252075	2853919.3113445863
0.9802037477493286	2983827.5420687
0.983986496925354	3115634.8207739056
0.9877838492393494	3264041.153487299
0.9915955662727356	3427852.6892278017
0.9954215884208679	3572542.25327818
0.9992615580558777	3688451.5171744847
1.0031154155731201	3791177.0405495283
1.0069829225540161	3907293.6922027995
1.0108637809753418	4040171.4396450277
1.0147579908370972	4172780.7359287734
1.018665075302124	4283564.661058215
1.022585153579712	4350297.258177602
1.0265177488327026	4388961.048691915
1.0304628610610962	4466184.801067333
1.0344202518463135	4622386.964741546
1.0383895635604858	4780252.766685799
1.0423706769943237	4891874.3740893835
1.0463634729385376	4981763.411502584
1.0503677129745483	5064113.87080589
1.0543830394744873	5168682.004084594
1.058409333229065	5287321.843987212
1.0624464750289917	5393336.957973842
1.0664942264556885	5485633.171565197
1.0705522298812866	5573236.849315674
1.0746204853057861	5673033.769990375
1.0786986351013184	5781338.731099292
1.0827864408493042	5879532.30053914
1.086883783340454	5930599.101701375
1.0909905433654785	5909355.086262379
1.0951062440872192	5773910.904463558
1.0992310047149658	5216487.42617832
1.10336434841156	4361114.740112962
1.1075061559677124	4023763.920472525
1.1116561889648438	3952942.1106576403
1.115814208984375	3610580.0292719393
1.1199802160263062	3338731.543396193
1.124153733253479	3426740.790100118
1.1283347606658936	3603655.033121396
1.1325229406356812	3438632.450372293
1.1367181539535522	3655167.1948031974
1.1409201622009277	4410733.718460643
1.145128846168518	4842214.911425113
1.1493438482284546	4305566.568525376
1.1535650491714478	3128186.328748685
1.1577922105789185	2699227.7014606576
1.1620250940322876	3268982.723776758
1.1662636995315552	4157075.7182363993
1.170507550239563	4802596.691234141
1.174756646156311	5493240.372324087
1.1790107488632202	6447425.975132144
1.1832695007324219	7169471.465359912
1.1875330209732056	7579970.887448441
1.191800832748413	7960671.1280257935
1.1960728168487549	8405075.544784632
1.2003488540649414	8706116.612667603
1.2046287059783936	8865497.65160199
1.2089121341705322	9033182.178510716
1.2131990194320679	9244008.078536624
1.2174891233444214	9485107.893859548
1.2217823266983032	9724824.638211254
1.2260783910751343	9936764.408458022
1.230377197265625	10111585.394301787
1.2346785068511963	10264427.40400355
1.238982081413269	10436558.486574192
1.2432878017425537	10599668.251464335
1.2475954294204712	10717480.543266572
1.2519049644470215	10822992.691819921
1.256216049194336	10980543.92032008
1.2605286836624146	11124769.957752166
1.2648425102233887	11208634.28001244
1.2691574096679688	11286587.646093115
1.2734732627868652	11384589.27128981
1.2777899503707886	11480321.608475275
1.2821072340011597	11530176.905393766
1.2864248752593994	11490563.414825706
1.2907428741455078	11365711.386201726
1.2950609922409058	11352751.416867932
1.2993791103363037	11370295.779918723
1.303696870803833	11244086.757473875
1.3080145120620728	11184540.246191602
1.3123314380645752	11314038.12100479
1.3166478872299194	11569220.198973058
1.3209635019302368	11371014.238133796
1.3252781629562378	10337936.745416386
1.3295916318893433	8353937.315149724
1.3339040279388428	5340942.692831442
1.3382149934768677	2483586.2412789282
1.3425244092941284	1152988.2350771064
1.3468321561813354	1010552.5571462961
1.3511382341384888	811973.036362903
1.3554422855377197	512799.6583044606
1.3597444295883179	438107.8330676479
1.3640443086624146	464439.1676384916
1.3683418035507202	644374.3882112446
1.3726370334625244	1287474.913065405
1.3769296407699585	2005063.1114953542
1.381219506263733	1589554.7660591984
1.3855066299438477	624478.480422073
1.3897908926010132	298362.02966627764
1.3940720558166504	367044.20644514787
1.3983501195907593	545141.09440724
1.4026249647140503	993473.666938326
1.4068963527679443	1330447.1668113566
1.4111642837524414	1008159.96386077
1.4154287576675415	703870.8194281061
1.419689416885376	682224.8178396499
1.4239463806152344	647738.8801487202
1.4281994104385376	856024.8901135667
1.4324485063552856	1101016.9472215218
1.436693549156189	1201968.8029533525
1.440934419631958	1470667.8016850569
1.4451709985733032	2273275.2363215294
1.449403166770935	3623328.4683459466
1.453631043434143	4574721.520103949
1.4578542709350586	5023122.21159457
1.4620729684829712	5564514.9198365975
1.4662868976593018	5606836.85095614
1.4704961776733398	5068159.17594245
1.4747005701065063	4774269.355086252
1.4788999557495117	5108709.2560633095
1.4830944538116455	6342546.826237948
1.4872838258743286	7747413.4503906155
1.491468071937561	8179187.485909365
1.4956470727920532	8048107.779586333
1.4998208284378052	8619133.621705022
1.5039892196655273	9555991.820998421
1.5081522464752197	9815171.344557447
1.5123097896575928	10209729.436540833
1.5164618492126465	11352463.326406771
1.5206083059310913	12901528.565303007
1.5247491598129272	14018981.562777465
1.5288842916488647	14254396.67330564
1.5330137014389038	14640230.679156322
1.5371372699737549	15320456.408668041
1.541254997253418	15616989.213227626
1.545366883277893	15930945.670691902
1.5494728088378906	16481942.576016601
1.5535727739334106	16787013.864741433
1.5576666593551636	16698338.434674373
1.561754584312439	16905769.75732401
1.5658363103866577	17683053.707635082
1.5699119567871094	18157631.620983932
1.5739814043045044	17720623.149060845
1.5780447721481323	16928658.630234513
1.582101821899414	17281661.60351795
1.5861525535583496	18592712.032632858
1.5901970863342285	19163045.597311474
1.5942351818084717	18873887.934700757
1.5982669591903687	18379358.747329976
1.6022924184799194	18137419.414830238
1.606311559677124	18240653.84496139
1.6103241443634033	18148009.06759464
1.6143304109573364	17670944.02941303
1.6183301210403442	17036958.590002924
1.6223233938217163	16300853.997814223
1.6263102293014526	15458067.57641504
1.6302905082702637	14658705.760174751
1.634264349937439	15313295.744776148
1.638231635093689	17582656.539395165
1.6421923637390137	18739771.624635532
1.646146535873413	17617566.528601427
1.6500942707061768	16372266.079714425
1.6540353298187256	16934475.35110362
1.6579699516296387	17857547.555896025
1.661897897720337	16852160.04131258
1.6658192873001099	13683931.397505874
1.6697341203689575	12294836.94232715
1.6736423969268799	14632829.138075504
1.677544116973877	16204045.381242359
1.6814392805099487	15862394.368660273
1.6853278875350952	15452980.59901768
1.6892099380493164	14710364.332147319
1.6930854320526123	13103098.30641042
1.696954369544983	11343708.782186212
1.7008168697357178	10943401.827805791
1.7046726942062378	11659576.493990354
1.708522081375122	12638591.007933853
1.712364912033081	13571179.308512062
1.7162011861801147	14554624.093146658
1.7200311422348022	15554563.820007596
1.723854422569275	15773680.969695296
1.7276713848114014	15228966.498929158
1.731481909751892	14295150.782981345
1.7352858781814575	13318259.156742252
1.7390835285186768	12796785.330909606
1.7428747415542603	12286847.259798223
1.7466596364974976	11278865.707270054
1.7504380941390991	10011242.104128623
1.7542102336883545	9336027.578202648
1.7579760551452637	10746017.616590448
1.7617355585098267	12356482.056045739
1.7654887437820435	11222851.62071452
1.7692357301712036	8400095.19296896
1.7729763984680176	5546782.944437483
1.776710867881775	3274955.47916416
1.7804391384124756	2448967.652427389
1.7841613292694092	2530660.9076060667
1.7878772020339966	2251864.0961095626
1.7915871143341064	2452163.417123866
1.7952908277511597	3654858.819204415
1.7989884614944458	4164200.3973814985
1.8026801347732544	2732675.7011500597
1.806365728378296	1129477.7703369241
1.8100452423095703	1133900.6779387721
1.8137187957763672	1515681.9046517771
1.817386507987976	1261729.6024159016
1.8210482597351074	1499565.8543216458
1.8247040510177612	1666073.3263557905
1.828354001045227	893813.0549033162
1.8319982290267944	599756.2278015153
1.8356364965438843	1200991.3767276558
1.8392690420150757	1842206.4772836054
1.8428958654403687	1856514.7176898303
1.8465168476104736	1839610.755805516
1.8501322269439697	2154438.1674353867
1.8537418842315674	1778842.4015241612
1.8573459386825562	1122348.4586173259
1.860944390296936	863621.7433043309
1.864537239074707	569595.8187394663
1.8681244850158691	548998.151839069
1.871706247329712	1084449.1930628524
1.8752825260162354	1969333.7550510422
1.8788533210754395	3472436.3382209092
1.8824186325073242	4652466.72121476
1.8859784603118896	4241142.261196654
1.8895330429077148	3777215.767696813
1.8930821418762207	4812660.656071567
1.8966259956359863	4801070.376384281
1.9001644849777222	2347299.927760105
1.9036977291107178	661977.0010236222
1.9072256088256836	666109.7096656711
1.9107483625411987	657145.2300952626
1.9142658710479736	360789.02701997914
1.9177782535552979	344380.8938180621
1.9212853908538818	540224.580580969
1.9247875213623047	562847.997731709
1.9282845258712769	601777.6656240118
1.9317764043807983	861732.2257579061
1.9352631568908691	1014272.4102025763
1.9387450218200684	1026982.5224965214
1.942221760749817	1262597.508618595
1.9456936120986938	1581118.500409826
1.9491604566574097	1949543.7909438787
1.952622413635254	1920759.3747355186
1.956079363822937	1403447.2691986056
1.959531545639038	1273261.0688361668
1.962978720664978	1459009.576021467
1.966421127319336	2099295.4578377586
1.9698586463928223	3293239.8728967835
1.9732913970947266	3951184.6454744055
1.9767193794250488	4365522.0964583745
1.9801424741744995	5381284.086185262
1.9835609197616577	6435433.57886174
1.9869745969772339	6546676.847416008
1.990383505821228	5587069.657733964
1.9937876462936401	5309779.431192815
1.9971871376037598	5552014.884562089
2.000581979751587	6137064.223326298
2.003972291946411	7937263.605931552
2.007357597351074	9608116.449472724
2.0107386112213135	11105338.906541472
2.0141148567199707	11505062.876255741
2.017486572265625	10315410.254761254
2.0208535194396973	10814094.72796977
2.0242159366607666	12888142.283367362
2.027573823928833	14088968.971019382
2.0309269428253174	14954673.948879123
2.034275770187378	16179552.52006699
2.0376198291778564	17220824.077461395
2.040959596633911	18191501.829793952
2.044294595718384	19498398.750094842
2.0476250648498535	20802455.792733677
2.0509510040283203	20950521.325308487
2.054272413253784	20202866.9906515
2.057589530944824	20447463.997594718
2.0609018802642822	21515822.39368492
2.0642096996307373	22361305.055368304
2.0675129890441895	22914913.75309019
2.0708119869232178	23176295.39635544
2.074106216430664	23044871.901811644
2.0773961544036865	22882166.430022363
2.080681324005127	23093563.920397706
2.0839622020721436	23352086.130006947
2.087238311767578	23489141.746562645
2.090510129928589	23442485.149134923
2.0937774181365967	23156959.809822753
2.0970399379730225	23020326.940549318
2.1002981662750244	22973861.720253363
2.1035518646240234	22711487.156181816
2.1068007946014404	22380197.18081203
2.1100454330444336	22440603.428117372
2.1132853031158447	22582724.566142034
2.116520881652832	22142047.56656371
2.1197516918182373	21665603.67106246
2.1229779720306396	21663188.148477904
2.12619948387146	21843446.73683117
2.1294167041778564	21907281.728025556
2.132629156112671	21885808.14650557
2.1358368396759033	21484393.586192258
2.139039993286133	20685262.806203887
2.1422386169433594	19857756.16424282
2.145432472229004	19102553.25012399
2.1486217975616455	18560964.35751948
2.151806354522705	17982075.207280755
2.1549863815307617	17900950.944364768
2.1581614017486572	18030691.41306116
2.16133189201355	17356413.492638342
2.1644976139068604	16737603.988539532
2.167658567428589	16661062.452033073
2.1708147525787354	16855160.88476372
2.173966407775879	16980328.676523626
2.1771130561828613	16753891.182795135
2.1802549362182617	16194665.532483594
2.183391809463501	15328283.367692152
2.1865241527557373	14304001.619361147
2.1896514892578125	13050406.901669238
2.1927738189697266	10913835.431848375
2.1958916187286377	7893635.959826344
2.1990041732788086	5355153.99382127
2.2021119594573975	4167260.2903175005
2.2052149772644043	3946050.338342637
2.208312749862671	4265410.637446539
2.2114057540893555	4963865.549000096
2.214493751525879	5545990.425352425
2.217576742172241	5466696.03174977
2.2206547260284424	5124309.921904838
2.2237277030944824	4883282.5625921115
2.2267956733703613	4244856.021866268
2.2298583984375	3333911.700630497
2.2329163551330566	2765917.435204711
2.235969066619873	2593185.402583738
2.2390167713165283	2453977.2088848427
2.2420592308044434	2083133.200068569
2.2450966835021973	1701716.2935682423
2.248128890991211	1791639.1208455649
2.2511560916900635	2186457.034997129
2.254178285598755	2397587.4223849927
2.257194995880127	2557391.9105600105
2.260206699371338	2579594.655249906
2.2632133960723877	2183319.5806031213
2.266214609146118	1735364.9017043663
2.2692108154296875	1619126.2190732493
2.2722020149230957	1858239.2843145668
2.2751877307891846	2147988.2295394912
2.278168201446533	2136549.8471954456
2.2811436653137207	1924130.648296672
2.284113883972168	1763262.1080954745
2.287078857421875	1623341.111030613
2.290038824081421	1482500.301589169
2.2929933071136475	1469411.6116660635
2.295942783355713	1569110.2031695778
2.298887014389038	1680237.5577048769
2.301826238632202	1856182.5657211875
2.304760217666626	2312070.4524245355
2.3076889514923096	3087941.029721859
2.310612440109253	3756020.460528055
2.3135311603546143	3530756.057515482
2.3164443969726562	2307433.6504167407
2.319352865219116	1272772.4850370944
2.322256088256836	1056518.2968567351
2.3251543045043945	1097537.1299312909
2.328047275543213	1077786.7683788252
2.330935478210449	1073633.878938276
2.3338186740875244	1073694.9784006525
2.3366971015930176	1042248.0720361328
2.3395702838897705	1007474.7696488594
2.3424389362335205	942365.2526791692
2.3453025817871094	840713.7583291556
2.348161458969116	802236.4711490173
2.351015567779541	950217.7118573062
2.353865146636963	1264796.7140018414
2.3567099571228027	1553222.9314093725
2.3595502376556396	1773961.0441448682
2.3623859882354736	1974214.9957286473
2.3652172088623047	1887047.4270139835
2.368043899536133	1355013.5332576358
2.370866537094116	810690.225869125
2.3736846446990967	677534.282038959
2.3764986991882324	797204.5460953336
2.3793084621429443	917305.1339070027
2.3821144104003906	1067990.638795084
2.384916305541992	1322442.925680821
2.387714147567749	1515607.054344355
2.3905084133148193	1473594.8493029443
2.393299102783203	1393855.110442191
2.3960859775543213	1441238.8832540605
2.398869514465332	1549507.4473969354
2.4016497135162354	1559183.33833785
2.4044265747070312	1510790.348486923
2.407200336456299	1718495.1726494464
2.409970998764038	2163495.4227257697
2.4127390384674072	2456262.187449543
2.415503978729248	2573192.683416945
2.418266534805298	2879536.586658746
2.4210267066955566	3180658.0781342816
2.4237842559814453	2916732.0993660768
2.426539897918701	2495410.3373537026
2.429293394088745	2732402.0205942844
2.4320452213287354	3334159.4104742752
2.4347951412200928	3535985.052832958
2.4375438690185547	3407027.305932192
2.440291166305542	3380755.7129852683
2.443037271499634	3300578.879671948
2.445782423019409	2874441.1640271014
2.4485268592834473	2333563.82966947
2.451270818710327	2205830.046822773
2.454014539718628	2699535.0752269365
2.4567582607269287	3178835.370087608
2.4595019817352295	3182955.6289797914
2.4622461795806885	3364772.6921694824
2.4649908542633057	3438616.9672562857
2.4677364826202393	2716190.141194261
2.4704833030700684	1863026.7152421668
2.473231554031372	1357595.9333702456
2.4759814739227295	1071181.900573716
