#wavelength	surface flux
0.6450077295303345	31202.373174885342
0.6472567915916443	49293.77616646597
0.6494921445846558	64749.4887935238
0.6517150402069092	74964.25502317176
0.6539263725280762	85558.9278566522
0.6561272740364075	96892.78729497928
0.6583186388015747	108977.84483148386
0.6605015397071838	121781.23419842243
0.6626768708229065	135202.23471570824
0.6648455858230591	148465.7507506241
0.6670085787773132	154909.10206564388
0.6691668033599854	143278.04684478586
0.6713210344314575	140041.29855842204
0.6734722256660461	177485.7658604645
0.6756211519241333	223334.3725050804
0.6777685880661011	251264.7839776596
0.6799154281616211	272647.4656617268
0.6820623278617859	293009.8524002411
0.6842101216316223	313024.5810722703
0.6863595843315125	332684.9824427041
0.688511312007904	351474.052351971
0.6906660795211792	367988.95458009164
0.6928245425224304	382779.52813479875
0.6949873566627502	399817.16674752254
0.6971551775932312	417997.08409208624
0.6993286609649658	433402.7046629931
0.7015084028244019	446810.63735890336
0.7036949396133423	458060.0431549829
0.7058889269828796	465882.13157246413
0.7080909013748169	470547.5754079336
0.710301399230957	472874.6017116028
0.712520956993103	472241.10682966886
0.7147500514984131	466572.0657136105
0.7169892191886902	455708.24895863445
0.7192389369010925	441068.34500271874
0.7214996814727783	422417.1376731484
0.723771870136261	399309.3960483817
0.7260559797286987	373246.5663313412
0.7283523678779602	344941.6792913673
0.7306615710258484	318980.54446377855
0.7329838871955872	297353.0327723922
0.7353196740150452	270349.0416297063
0.7376693487167358	236281.16046722454
0.7400332689285278	201415.66827492643
0.7424117922782898	167512.6081629988
0.7448052167892456	135779.48749601515
0.7472138404846191	106421.16446458708
0.7496379613876343	79672.19738187052
0.7520779371261597	56664.12179432712
0.7545340061187744	38010.58840363884
0.7570064663887024	23854.549525214123
0.7594954967498779	13882.28724635439
0.7620013952255249	7273.574897422814
0.7645244002342224	3173.650356793537
0.7670646905899048	1215.3735183741067
0.7696225643157959	1298.2421951933086
0.7721980810165405	3904.8449985838274
0.7747915983200073	9716.783044259064
0.7774031162261963	18263.452898546806
0.7800329327583313	31935.880297711934
0.7826811671257019	57906.051251500685
0.7853479981422424	97130.64095511337
0.7880334854125977	144673.79666053053
0.7907378077507019	179629.4930082444
0.7934610247612	188159.7927769776
0.7962033748626709	260202.08232437677
0.7989648580551147	428282.4462664669
0.801745593547821	594720.2849368248
0.8045456409454346	739561.1248354869
0.8073651194572449	887041.0503739915
0.8102040886878967	1038020.9055333247
0.8130625486373901	1213687.9393504942
0.8159406185150146	1422136.2256555634
0.8188382983207703	1654629.808390069
0.8217556476593018	1923767.3793928516
0.8246926665306091	2205921.1329077105
0.8276493549346924	2469707.829785434
0.8306257724761963	2765082.4029223616
0.8336219191551208	3129511.0383999045
0.8366377949714661	3497828.8531722804
0.8396733403205872	3854122.1273033977
0.8427285552024841	4253139.7972333655
0.8458034992218018	4640996.57279091
0.8488980531692505	4703323.418202002
0.8520121574401855	4655449.307177414
0.8551458716392517	5434285.532193279
0.8582990765571594	6585103.968838711
0.8614717125892639	7127667.469108839
0.8646637797355652	7517855.824141807
0.8678751587867737	8208805.795959586
0.8711057901382446	8960300.582685594
0.8743556141853333	9668940.971572937
0.87762451171875	10408307.19460516
0.8809124231338501	11085196.380352551
0.8842192888259888	11683254.632001132
0.8875449895858765	12067768.108492656
0.8908893465995789	11581429.185021957
0.894252359867096	10839230.71378045
0.8976338505744934	12309318.026957126
0.9010337591171265	15667589.461046744
0.9044519662857056	18447626.941243146
0.9078882932662964	20229777.13590302
0.9113426208496094	21352414.508974344
0.914814829826355	21885685.12063645
0.9183048605918884	22419746.5332986
0.9218124747276306	21893963.94346041
0.925337553024292	18112804.87503134
0.9288799166679382	14418420.42842469
0.9324395060539246	14107490.43873463
0.9360161423683167	15197071.809401324
0.9396095871925354	15940809.481009832
0.943219780921936	15737013.301338946
0.9468464851379395	14228522.517882073
0.9504896402359009	15114493.57348683
0.9541489481925964	19975846.705109835
0.9578243494033813	21694613.19689404
0.9615156054496765	17826222.260846008
0.9652225375175476	14293670.665300086
0.9689450263977051	17369305.73349115
0.9726828336715698	24955548.468286823
0.9764357805252075	28802452.454133738
0.9802037477493286	30330052.24014901
0.983986496925354	34946599.925516166
0.9877838492393494	39574519.67736914
0.9915955662727356	41219039.50879698
0.9954215884208679	40775596.74189248
0.9992615580558777	37997626.266486526
1.0031154155731201	35801451.14261934
1.0069829225540161	38013908.485280246
1.0108637809753418	43656034.04664281
1.0147579908370972	49891677.583179705
1.018665075302124	54151636.17691228
1.022585153579712	55522477.39300084
1.0265177488327026	57056049.35195546
1.0304628610610962	61515855.813968815
1.0344202518463135	66714183.00180718
1.0383895635604858	70523207.26693296
1.0423706769943237	73479815.0477055
1.0463634729385376	75738816.27391133
1.0503677129745483	77795083.23879853
1.0543830394744873	81768210.88371335
1.058409333229065	86646853.85537113
1.0624464750289917	89998806.53671136
1.0664942264556885	91560655.47807847
1.0705522298812866	92386521.87097117
1.0746204853057861	93904747.64148562
1.0786986351013184	95166694.74698552
1.0827864408493042	95686210.99558733
1.086883783340454	90206174.34497003
1.0909905433654785	74610054.58799718
1.0951062440872192	59290759.12492045
1.0992310047149658	43793714.5261785
1.10336434841156	24625812.398035306
1.1075061559677124	15077693.682368532
1.1116561889648438	13018813.954937657
1.115814208984375	10072390.447570955
1.1199802160263062	9500020.602714995
1.124153733253479	10399214.528257865
1.1283347606658936	8834368.665629452
1.1325229406356812	6862606.033504981
1.1367181539535522	10605518.220249083
1.1409201622009277	18407984.329745114
1.145128846168518	22458364.441111673
1.1493438482284546	19109648.69399893
1.1535650491714478	12853183.551447865
1.1577922105789185	10190387.989175238
1.1620250940322876	11032411.434919603
1.1662636995315552	14824933.810025502
1.170507550239563	19600013.084235113
1.174756646156311	24973726.325999558
1.1790107488632202	33298639.388862044
1.1832695007324219	38176077.21351397
1.1875330209732056	36638656.14027081
1.191800832748413	43811443.179715365
1.1960728168487549	60255419.95937037
1.2003488540649414	69971482.3448548
1.2046287059783936	73706073.43706575
1.2089121341705322	75593925.26055229
1.2131990194320679	79144544.30487308
1.2174891233444214	87887633.2744891
1.2217823266983032	95427497.15739402
1.2260783910751343	99981098.73387107
1.230377197265625	105112535.09936912
1.2346785068511963	108313438.91945405
1.238982081413269	106099797.30653015
1.2432878017425537	102651584.08019736
1.2475954294204712	102072492.65234877
1.2519049644470215	102255848.39750887
1.256216049194336	112228414.36999255
1.2605286836624146	123524440.19506192
1.2648425102233887	122748469.31345534
1.2691574096679688	124667967.21727447
1.2734732627868652	132218720.41505413
1.2777899503707886	131063435.89206222
1.2821072340011597	121572734.43322162
1.2864248752593994	117834122.69097064
1.2907428741455078	118028133.68851294
1.2950609922409058	114481886.66932859
1.2993791103363037	99801511.24056555
1.303696870803833	85972403.41378948
1.3080145120620728	84622702.47189507
1.3123314380645752	86578153.566629
1.3166478872299194	88548304.82263546
1.3209635019302368	78878453.90775019
1.3252781629562378	60320199.754024744
1.3295916318893433	41392324.82532378
1.3339040279388428	19652796.843215525
1.3382149934768677	5617014.96729074
1.3425244092941284	2337922.9919082755
1.3468321561813354	1843239.7899656747
1.3511382341384888	1595389.258118694
1.3554422855377197	1183721.6278620122
1.3597444295883179	1343494.658920294
1.3640443086624146	1976010.9202015407
1.3683418035507202	1823881.8364706438
1.3726370334625244	1388140.987321209
1.3769296407699585	1694987.881973743
1.381219506263733	1606130.6393026782
1.3855066299438477	904920.2998205051
1.3897908926010132	959937.6356029855
1.3940720558166504	1603116.277347962
1.3983501195907593	1501356.9503865873
1.4026249647140503	1316768.8906192682
1.4068963527679443	1608942.0001296261
1.4111642837524414	1609085.212801672
1.4154287576675415	1517623.7009124302
1.419689416885376	1447618.6456018798
1.4239463806152344	1402528.9011856741
1.4281994104385376	1117257.6581604471
1.4324485063552856	827104.1203439591
1.436693549156189	1314939.0773068587
1.440934419631958	2521014.1000588005
1.4451709985733032	4534029.872767454
1.449403166770935	6748128.917180531
1.453631043434143	6838201.318043888
1.4578542709350586	6136801.748172667
1.4620729684829712	7876236.803421715
1.4662868976593018	9745386.04809169
1.4704961776733398	7117637.564655186
1.4747005701065063	3518356.198410727
1.4788999557495117	4723252.7725289725
1.4830944538116455	8797051.436089829
1.4872838258743286	10053611.834258016
1.491468071937561	7948195.035541905
1.4956470727920532	8081369.505552649
1.4998208284378052	11862041.549180793
1.5039892196655273	13535602.771664526
1.5081522464752197	11265786.671474932
1.5123097896575928	11770600.570122665
1.5164618492126465	18452909.219207868
1.5206083059310913	25926967.24258285
1.5247491598129272	28139501.58520203
1.5288842916488647	27981523.343989696
1.5330137014389038	30556715.042943437
1.5371372699737549	32906154.27990988
1.541254997253418	32790369.17446182
1.545366883277893	34805791.65884099
1.5494728088378906	37783756.82497962
1.5535727739334106	39179403.566554695
1.5576666593551636	41565519.26317216
1.561754584312439	45669269.46378119
1.5658363103866577	50018904.73493555
1.5699119567871094	51979424.13465804
1.5739814043045044	51427046.612105586
1.5780447721481323	52372390.46931602
1.582101821899414	56116065.4056463
1.5861525535583496	59293362.05719062
1.5901970863342285	58295752.92181169
1.5942351818084717	54307858.044318
1.5982669591903687	52750525.51367001
1.6022924184799194	52166742.634146854
1.606311559677124	49349504.73144601
1.6103241443634033	48196562.38250561
1.6143304109573364	46300565.282310806
1.6183301210403442	41044003.019839525
1.6223233938217163	37253557.202007614
1.6263102293014526	35564612.543159716
1.6302905082702637	36280333.79949013
1.634264349937439	40539075.82810259
1.638231635093689	45533689.134415664
1.6421923637390137	46428132.4422045
1.646146535873413	39820592.749325156
1.6500942707061768	33678001.5398676
1.6540353298187256	34870052.143935636
1.6579699516296387	36595033.51224808
1.661897897720337	33989972.956893586
1.6658192873001099	24776007.75995616
1.6697341203689575	17215931.71638876
1.6736423969268799	20200670.292958498
1.677544116973877	24079757.11189733
1.6814392805099487	23900607.98695384
1.6853278875350952	21781167.218394555
1.6892099380493164	18463334.457351178
1.6930854320526123	15723942.634026503
1.696954369544983	13863898.406241411
1.7008168697357178	13099743.999786906
1.7046726942062378	13211570.553631976
1.708522081375122	14621185.587712703
1.712364912033081	15608297.264575215
1.7162011861801147	15527124.981921792
1.7200311422348022	16722490.873657627
1.723854422569275	17066536.17697745
1.7276713848114014	15013310.73637781
1.731481909751892	12950268.441804843
1.7352858781814575	12432728.48754117
1.7390835285186768	13176316.000029398
1.7428747415542603	13304403.063178733
1.7466596364974976	10993611.556339806
1.7504380941390991	8400080.001091935
1.7542102336883545	8847914.073833168
1.7579760551452637	11377845.778996164
1.7617355585098267	13602116.95561725
1.7654887437820435	13479946.507798249
1.7692357301712036	10257029.301112557
1.7729763984680176	6727550.196839901
1.776710867881775	4352338.661180927
1.7804391384124756	3360174.1801082077
1.7841613292694092	3423603.2850611648
1.7878772020339966	3563510.485410817
1.7915871143341064	4996966.002559834
1.7952908277511597	6392844.43749426
1.7989884614944458	5752451.307230817
1.8026801347732544	4206924.865458512
1.806365728378296	3170164.200894109
1.8100452423095703	2807270.850616727
1.8137187957763672	2377027.7841206435
1.817386507987976	1759143.1594004205
1.8210482597351074	3020920.867656915
1.8247040510177612	5376063.4879501965
1.828354001045227	4876762.081602833
1.8319982290267944	2661516.621757849
1.8356364965438843	2634389.673603278
1.8392690420150757	4298715.406392535
1.8428958654403687	4994049.687883596
1.8465168476104736	4355284.180043109
1.8501322269439697	3456473.1607049988
1.8537418842315674	2895845.804312206
1.8573459386825562	2960731.851656037
1.860944390296936	2389350.721158267
1.864537239074707	1096713.0155486348
1.8681244850158691	605657.2683999419
1.871706247329712	1167021.6641003361
1.8752825260162354	2204516.6221346427
1.8788533210754395	2730595.3816003385
1.8824186325073242	3136839.3681122926
1.8859784603118896	4971807.280649612
1.8895330429077148	6745310.0094535
1.8930821418762207	5504753.615713369
1.8966259956359863	3635810.939431612
1.9001644849777222	3333816.639341553
1.9036977291107178	2857445.844800535
1.9072256088256836	3505397.5543605033
1.9107483625411987	4466220.194076441
1.9142658710479736	3217986.069822953
1.9177782535552979	2528797.506270614
1.9212853908538818	2417711.032496148
1.9247875213623047	1214487.9235039728
1.9282845258712769	713619.248451778
1.9317764043807983	1955757.52134177
1.9352631568908691	4168451.3544978807
1.9387450218200684	4488117.104114585
1.942221760749817	2608127.8269771333
1.9456936120986938	1362997.8457140978
1.9491604566574097	1202133.489880014
1.952622413635254	1712516.6161533308
1.956079363822937	3404232.64980029
1.959531545639038	5220492.858408166
1.962978720664978	4713732.9280119985
1.966421127319336	3459281.3359788186
1.9698586463928223	4003486.941552489
1.9732913970947266	4685298.943964586
1.9767193794250488	4940753.961784098
1.9801424741744995	5442743.588920527
1.9835609197616577	5639852.189926562
1.9869745969772339	6473214.272935229
1.990383505821228	7329072.192921199
1.9937876462936401	7150025.536811924
1.9971871376037598	6069502.084285273
2.000581979751587	4894381.870188032
2.003972291946411	5928880.868688743
2.007357597351074	7799708.798550296
2.0107386112213135	8560024.652088383
2.0141148567199707	8179188.38924892
2.017486572265625	7035966.463471931
2.0208535194396973	7197019.388511665
2.0242159366607666	8353159.15726271
2.027573823928833	8558106.33878375
2.0309269428253174	8315433.121143646
2.034275770187378	9327513.302342026
2.0376198291778564	11791183.661354734
2.040959596633911	13895959.496929884
2.044294595718384	14533273.321711645
2.0476250648498535	14356075.930646192
2.0509510040283203	13385331.298781186
2.054272413253784	12261010.703556774
2.057589530944824	12734306.49166117
2.0609018802642822	14349103.922105849
2.0642096996307373	15477533.052309694
2.0675129890441895	15858977.078282973
2.0708119869232178	15798822.54740123
2.074106216430664	15476993.236413699
2.0773961544036865	15546228.276086293
2.080681324005127	15913002.421638666
2.0839622020721436	15856929.179062232
2.087238311767578	15445107.157135565
2.090510129928589	15162293.315152422
2.0937774181365967	15196511.495065061
2.0970399379730225	15084993.2466956
2.1002981662750244	14423961.527877148
2.1035518646240234	13920795.166208178
2.1068007946014404	14013569.52000205
2.1100454330444336	14114339.519470256
2.1132853031158447	13813687.580624579
2.116520881652832	13059488.52581106
2.1197516918182373	12299529.2748266
2.1229779720306396	11923420.144263381
2.12619948387146	11668159.65165437
2.1294167041778564	11579057.13415413
2.132629156112671	11714368.630363442
2.1358368396759033	11315149.142699718
2.139039993286133	10580027.095645938
2.1422386169433594	10016405.261046445
2.145432472229004	9480686.579897013
2.1486217975616455	9067469.176861705
2.151806354522705	8547611.377976583
2.1549863815307617	8454901.558942294
2.1581614017486572	8971189.528099054
2.16133189201355	9236367.990814831
2.1644976139068604	9050095.26018032
2.167658567428589	8348078.786144399
2.1708147525787354	7699597.4356436245
2.173966407775879	7863656.001441529
2.1771130561828613	8376768.449077366
2.1802549362182617	8294452.264403452
2.183391809463501	7536800.581006718
2.1865241527557373	6812510.697160974
2.1896514892578125	6324367.438131308
2.1927738189697266	5509442.302907613
2.1958916187286377	4007420.345975122
2.1990041732788086	2431324.682586455
2.2021119594573975	1652937.8348374893
2.2052149772644043	1662677.266712317
2.208312749862671	2005136.6150170583
2.2114057540893555	2569475.0361358034
2.214493751525879	3011682.7394488016
2.217576742172241	2756573.2443261365
2.2206547260284424	2211186.448036072
2.2237277030944824	1878637.8036707228
2.2267956733703613	1561118.1205141644
2.2298583984375	1294200.4067128252
2.2329163551330566	1214762.997929632
2.235969066619873	1291344.871893971
2.2390167713165283	1305107.1235004852
2.2420592308044434	1142645.071750155
2.2450966835021973	980541.0764105499
2.248128890991211	937910.5001719715
2.2511560916900635	1003671.8962367509
2.254178285598755	1239440.6841453947
2.257194995880127	1671130.1458443643
2.260206699371338	1668306.0742725874
2.2632133960723877	1035224.929310628
2.266214609146118	760009.8699175937
2.2692108154296875	1224106.6089565163
2.2722020149230957	1695187.8552979778
2.2751877307891846	1623692.3543939039
2.278168201446533	1361451.6240527981
2.2811436653137207	1315668.2814199016
2.284113883972168	1267160.1734234183
2.287078857421875	1023205.5029871545
2.290038824081421	825210.0158425652
2.2929933071136475	823699.8544756914
2.295942783355713	865932.263177745
2.298887014389038	930571.1584786018
2.301826238632202	1130601.2268984313
2.304760217666626	1536254.9908303039
2.3076889514923096	2110433.899920825
2.310612440109253	2709253.564913849
2.3135311603546143	3173881.884236341
2.3164443969726562	2875282.6028933055
2.319352865219116	1668771.308041674
2.322256088256836	788020.0133211367
2.3251543045043945	641715.3650435529
2.328047275543213	625758.0438800727
2.330935478210449	586939.1764292303
2.3338186740875244	522219.3598209656
2.3366971015930176	438180.14762140304
2.3395702838897705	383501.6622620165
2.3424389362335205	361909.8350130637
2.3453025817871094	344266.14269274933
2.348161458969116	336819.27493548696
2.351015567779541	480065.92619191564
2.353865146636963	921073.9181501104
2.3567099571228027	1499788.2578875276
2.3595502376556396	1891733.6062455415
2.3623859882354736	1861194.3650882924
2.3652172088623047	1346323.3587069453
2.368043899536133	708743.680250307
2.370866537094116	370987.4466666379
2.3736846446990967	339947.9035261269
2.3764986991882324	387222.2045299709
2.3793084621429443	421259.3831677407
2.3821144104003906	529568.6565666188
2.384916305541992	729609.6578638324
2.387714147567749	852597.8791945372
2.3905084133148193	790304.5150698225
2.393299102783203	682945.9421689046
2.3960859775543213	609855.136533941
2.398869514465332	618722.0009200989
2.4016497135162354	822702.1389987502
2.4044265747070312	1208737.8438863354
2.407200336456299	1506366.4800172597
2.409970998764038	1501141.8291844362
2.4127390384674072	1383397.5251279958
2.415503978729248	1393169.442782042
2.418266534805298	1530908.1324973686
2.4210267066955566	1619862.1755001482
2.4237842559814453	1526290.910799736
2.426539897918701	1491909.1555217637
2.429293394088745	1804093.7750902846
2.4320452213287354	2129553.4237977425
2.4347951412200928	2053228.1458183702
2.4375438690185547	1854445.2068328997
2.440291166305542	1864353.1662815681
2.443037271499634	1895260.8768866586
2.445782423019409	1851281.4949816593
2.4485268592834473	1908415.0517580623
2.451270818710327	2063798.7068233716
2.454014539718628	2205465.0402513263
2.4567582607269287	2266094.610083526
2.4595019817352295	2306570.917028348
2.4622461795806885	2621331.430990659
2.4649908542633057	3035954.515452767
2.4677364826202393	2936613.921689542
2.4704833030700684	2271337.8629361046
2.473231554031372	1513957.905056563
2.4759814739227295	1026302.532593396
2.4787333011627197	810592.0572091135
