#wavelength	surface flux
0.6450077295303345	25941.910745316512
0.6472567915916443	41036.140888721086
0.6494921445846558	54017.48622170483
0.6517150402069092	62699.25692327528
0.6539263725280762	71770.04755499736
0.6561272740364075	81535.55581924654
0.6583186388015747	92002.01564082102
0.6605015397071838	103139.05421673213
0.6626768708229065	114861.38239609751
0.6648455858230591	126507.66275174875
0.6670085787773132	132402.25078991588
0.6691668033599854	122923.13365050069
0.6713210344314575	120621.81769896124
0.6734722256660461	153094.9410555419
0.6756211519241333	192807.8941157679
0.6777685880661011	217275.24512403682
0.6799154281616211	236211.2018666211
0.6820623278617859	254319.93835898343
0.6842101216316223	272155.5859765446
0.6863595843315125	289708.74708916165
0.688511312007904	306558.9936474852
0.6906660795211792	321572.6713663422
0.6928245425224304	335149.4253383745
0.6949873566627502	350364.21952808445
0.6971551775932312	366320.57851228846
0.6993286609649658	379901.795649328
0.7015084028244019	391652.61598880094
0.7036949396133423	401428.99863264366
0.7058889269828796	408211.4613300249
0.7080909013748169	412162.41663761984
0.710301399230957	413878.1465476111
0.712520956993103	412845.25704445614
0.7147500514984131	407443.4768810196
0.7169892191886902	397557.40865884983
0.7192389369010925	384288.63391582057
0.7214996814727783	367457.7462299286
0.723771870136261	346867.5895365807
0.7260559797286987	323768.6444794398
0.7283523678779602	298610.8129346636
0.7306615710258484	274900.5737760229
0.7329838871955872	254322.9629742584
0.7353196740150452	229710.69087461123
0.7376693487167358	199959.6615784547
0.7400332689285278	169915.64368503814
0.7424117922782898	140944.28844223695
0.7448052167892456	114011.20540646782
0.7472138404846191	89353.3777248782
0.7496379613876343	67153.75163054385
0.7520779371261597	48186.91913317349
0.7545340061187744	32809.56653056443
0.7570064663887024	21021.30838225413
0.7594954967498779	12521.165757995945
0.7620013952255249	6688.530528989864
0.7645244002342224	2950.9055135841154
0.7670646905899048	1137.6952356161435
0.7696225643157959	1215.5242485856706
0.7721980810165405	3629.54621184261
0.7747915983200073	8945.630295526104
0.7774031162261963	16602.74269995621
0.7800329327583313	28421.175282088592
0.7826811671257019	50331.57190944053
0.7853479981422424	83148.17904224497
0.7880334854125977	122897.96383837854
0.7907378077507019	152313.00635829897
0.7934610247612	159964.96107572125
0.7962033748626709	221769.030114751
0.7989648580551147	365823.094898388
0.801745593547821	510446.5291387125
0.8045456409454346	638851.5457483098
0.8073651194572449	771972.9247935809
0.8102040886878967	911029.8165358988
0.8130625486373901	1072601.4610307976
0.8159406185150146	1263042.1069489908
0.8188382983207703	1476229.510440361
0.8217556476593018	1723247.53028099
0.8246926665306091	1985243.9487094996
0.8276493549346924	2236637.2718857587
0.8306257724761963	2517538.7302516513
0.8336219191551208	2858228.0150580443
0.8366377949714661	3206443.3210789557
0.8396733403205872	3549213.033397059
0.8427285552024841	3930104.4301366163
0.8458034992218018	4298690.792977407
0.8488980531692505	4359552.266174303
0.8520121574401855	4317010.426544253
0.8551458716392517	5065021.672166992
0.8582990765571594	6175358.052385078
0.8614717125892639	6717146.968349596
0.8646637797355652	7111624.806118837
0.8678751587867737	7780738.095317617
0.8711057901382446	8507693.901991442
0.8743556141853333	9198888.98818477
0.87762451171875	9927092.065537127
0.8809124231338501	10618213.300871411
0.8842192888259888	11250747.319446677
0.8875449895858765	11667784.656179735
0.8908893465995789	11213197.008507442
0.894252359867096	10510793.208421037
0.8976338505744934	11971250.428498903
0.9010337591171265	15218996.04977033
0.9044519662857056	17876749.721459705
0.9078882932662964	19604736.6880949
0.9113426208496094	20742850.1329625
0.914814829826355	21347500.66561946
0.9183048605918884	21941177.7511881
0.9218124747276306	21527166.68796812
0.925337553024292	18021092.751514237
0.9288799166679382	14508476.833179222
0.9324395060539246	14208316.622611145
0.9360161423683167	15365419.354981963
0.9396095871925354	16234436.45454592
0.943219780921936	16086390.519737873
0.9468464851379395	14597807.733292993
0.9504896402359009	15454438.18900807
0.9541489481925964	20189490.749308437
0.9578243494033813	21950560.896626893
0.9615156054496765	18286747.07818041
0.9652225375175476	14865705.353822876
0.9689450263977051	17866745.58044645
0.9726828336715698	25257178.26988422
0.9764357805252075	29029259.161124203
0.9802037477493286	30544018.129290048
0.983986496925354	34990378.103914835
0.9877838492393494	39447073.87394251
0.9915955662727356	41052432.82398837
0.9954215884208679	40617512.47655431
0.9992615580558777	37919274.75061583
1.0031154155731201	35827538.16503859
1.0069829225540161	37995367.98019536
1.0108637809753418	43448675.4207573
1.0147579908370972	49489470.99714352
1.018665075302124	53642852.32456876
1.022585153579712	55001953.80721153
1.0265177488327026	56513914.61524653
1.0304628610610962	60863012.11688759
1.0344202518463135	65943922.72709606
1.0383895635604858	69679287.23531076
1.0423706769943237	72573012.28406234
1.0463634729385376	74785415.88535722
1.0503677129745483	76799353.17957358
1.0543830394744873	80699053.72251205
1.058409333229065	85492299.6776512
1.0624464750289917	88785334.37525898
1.0664942264556885	90358635.47177726
1.0705522298812866	91235187.59963924
1.0746204853057861	92765133.31072132
1.0786986351013184	94049343.8544935
1.0827864408493042	94576344.77638723
1.086883783340454	89322978.15790896
1.0909905433654785	74373060.26578891
1.0951062440872192	59556677.63860483
1.0992310047149658	44291017.300532736
1.10336434841156	25353484.316024315
1.1075061559677124	15809712.513452066
1.1116561889648438	13636480.425210388
1.115814208984375	10767964.296459446
1.1199802160263062	10379527.261907019
1.124153733253479	11420438.746050825
1.1283347606658936	9834277.072050687
1.1325229406356812	7691056.21183943
1.1367181539535522	11404821.329538282
1.1409201622009277	19311488.15075738
1.145128846168518	23486744.110583335
1.1493438482284546	20252103.57068525
1.1535650491714478	14013152.41666538
1.1577922105789185	11374235.641421277
1.1620250940322876	12269941.026310392
1.1662636995315552	16133496.051594783
1.170507550239563	20929858.582903653
1.174756646156311	26196107.172090475
1.1790107488632202	34379539.78761126
1.1832695007324219	39331784.84847597
1.1875330209732056	37985409.2984663
1.191800832748413	44988023.38400516
1.1960728168487549	60972099.0860706
1.2003488540649414	70350238.14611308
1.2046287059783936	73929233.2615949
1.2089121341705322	75817407.295785
1.2131990194320679	79341943.68909548
1.2174891233444214	87842547.47955732
1.2217823266983032	95170657.12174997
1.2260783910751343	99602542.31426193
1.230377197265625	104575048.03197348
1.2346785068511963	107691522.70021483
1.238982081413269	105487985.03013949
1.2432878017425537	102014126.70363626
1.2475954294204712	101388162.220474
1.2519049644470215	101553491.00423506
1.256216049194336	111388849.16015078
1.2605286836624146	122740653.25185259
1.2648425102233887	122344878.19425082
1.2691574096679688	124325392.23849615
1.2734732627868652	131635779.36493912
1.2777899503707886	130739570.4322765
1.2821072340011597	121890412.2736499
1.2864248752593994	118310804.94884108
1.2907428741455078	118408191.15049437
1.2950609922409058	114966544.04719998
1.2993791103363037	100933374.97525543
1.303696870803833	87869952.76162335
1.3080145120620728	86786216.79043207
1.3123314380645752	88653925.79162742
1.3166478872299194	90225319.16322361
1.3209635019302368	80530391.51066908
1.3252781629562378	62265186.35199368
1.3295916318893433	43158185.571030036
1.3339040279388428	20773923.200309783
1.3382149934768677	6155183.892169716
1.3425244092941284	2650628.030384109
1.3468321561813354	2131623.647029376
1.3511382341384888	1866712.094273418
1.3554422855377197	1403084.2566188925
1.3597444295883179	1605072.7635124964
1.3640443086624146	2347081.438349979
1.3683418035507202	2177729.876473615
1.3726370334625244	1698515.645500599
1.3769296407699585	2062239.426321732
1.381219506263733	1922889.8673167266
1.3855066299438477	1085556.326702179
1.3897908926010132	1121489.0516808215
1.3940720558166504	1804516.812748293
1.3983501195907593	1698489.68258512
1.4026249647140503	1547156.251598756
1.4068963527679443	1899884.079507782
1.4111642837524414	1898565.723225767
1.4154287576675415	1801196.4652967604
1.419689416885376	1719073.887306659
1.4239463806152344	1645715.055139678
1.4281994104385376	1321784.919610622
1.4324485063552856	1002565.6860451355
1.436693549156189	1545186.1174371843
1.440934419631958	2860644.6249262136
1.4451709985733032	5043138.652649048
1.449403166770935	7462989.813447567
1.453631043434143	7608323.059941704
1.4578542709350586	6885766.836945108
1.4620729684829712	8658836.825895784
1.4662868976593018	10487654.817783175
1.4704961776733398	7702466.665229648
1.4747005701065063	4002765.9405521336
1.4788999557495117	5295052.330093185
1.4830944538116455	9569467.933766818
1.4872838258743286	10925920.554359451
1.491468071937561	8763501.253486173
1.4956470727920532	8900778.810493656
1.4998208284378052	12825545.392520715
1.5039892196655273	14617952.798634877
1.5081522464752197	12327319.553426962
1.5123097896575928	12756043.19197727
1.5164618492126465	19347470.194098942
1.5206083059310913	26780254.08136658
1.5247491598129272	29118767.748679213
1.5288842916488647	29064938.454309817
1.5330137014389038	31466508.020322356
1.5371372699737549	33568282.90426031
1.541254997253418	33304437.490189623
1.545366883277893	35073555.907310165
1.5494728088378906	37910863.61786709
1.5535727739334106	39333021.198913194
1.5576666593551636	41546762.29045185
1.561754584312439	45414023.02949098
1.5658363103866577	49773585.51430266
1.5699119567871094	51792684.35874546
1.5739814043045044	51271722.33770743
1.5780447721481323	52279928.42047445
1.582101821899414	55873607.31157367
1.5861525535583496	58745658.976784796
1.5901970863342285	57740553.087070055
1.5942351818084717	53967974.23154625
1.5982669591903687	52504919.90420212
1.6022924184799194	52226322.36814177
1.606311559677124	49841165.60863347
1.6103241443634033	48843053.091237515
1.6143304109573364	47382697.89248552
1.6183301210403442	42898005.088548504
1.6223233938217163	39623774.6458245
1.6263102293014526	38169557.40396657
1.6302905082702637	38721067.867507845
1.634264349937439	42366011.56870714
1.638231635093689	46676705.504254125
1.6421923637390137	47427308.82205108
1.646146535873413	41678311.80938119
1.6500942707061768	36227097.343200654
1.6540353298187256	37041938.59608226
1.6579699516296387	38353540.89433019
1.661897897720337	35638267.417408094
1.6658192873001099	26506730.332881313
1.6697341203689575	19455324.86698815
1.6736423969268799	23006301.537818577
1.677544116973877	27177482.949953463
1.6814392805099487	27004830.037754826
1.6853278875350952	24795025.46795019
1.6892099380493164	21369492.53733865
1.6930854320526123	18412514.178165525
1.696954369544983	16524323.894076098
1.7008168697357178	15900930.209177857
1.7046726942062378	15975479.806900354
1.708522081375122	17148571.920855235
1.712364912033081	17910316.94914264
1.7162011861801147	17714202.09104481
1.7200311422348022	18770383.94314722
1.723854422569275	19053761.60665834
1.7276713848114014	17023355.690644655
1.731481909751892	14807437.172806015
1.7352858781814575	14086615.667322231
1.7390835285186768	14718318.961675026
1.7428747415542603	14701225.4255321
1.7466596364974976	12163302.329976765
1.7504380941390991	9412113.75058088
1.7542102336883545	9825443.093122996
1.7579760551452637	12413642.64571473
1.7617355585098267	14729211.769353384
1.7654887437820435	14618760.875284398
1.7692357301712036	11252645.394574074
1.7729763984680176	7478126.003007883
1.776710867881775	4882279.58582613
1.7804391384124756	3822901.527385767
1.7841613292694092	3902488.983101561
1.7878772020339966	4044186.1993679316
1.7915871143341064	5596619.033094678
1.7952908277511597	7093276.555935289
1.7989884614944458	6355146.436704199
1.8026801347732544	4634413.259750633
1.806365728378296	3480136.9657128067
1.8100452423095703	3064797.957934866
1.8137187957763672	2586622.4538237257
1.817386507987976	1916979.6209239007
1.8210482597351074	3220842.737637925
1.8247040510177612	5671614.099962093
1.828354001045227	5184389.986085881
1.8319982290267944	2914191.730610361
1.8356364965438843	2893289.9463591124
1.8392690420150757	4649605.2504060455
1.8428958654403687	5421358.801694998
1.8465168476104736	4789293.992906607
1.8501322269439697	3840271.337807569
1.8537418842315674	3202633.1402407777
1.8573459386825562	3223428.3488448565
1.860944390296936	2595155.0546998796
1.864537239074707	1212480.838869914
1.8681244850158691	690430.6078700895
1.871706247329712	1316978.065562155
1.8752825260162354	2466418.6956648864
1.8788533210754395	3049974.3642707625
1.8824186325073242	3438626.810220123
1.8859784603118896	5207879.897543483
1.8895330429077148	6960544.800669105
1.8930821418762207	5768533.065400779
1.8966259956359863	3881713.9030998116
1.9001644849777222	3488228.181700033
1.9036977291107178	2970354.184784194
1.9072256088256836	3666770.9442197625
1.9107483625411987	4646784.701980016
1.9142658710479736	3362618.478837932
1.9177782535552979	2695340.9172206204
1.9212853908538818	2581812.524691623
1.9247875213623047	1302654.6127432468
1.9282845258712769	777729.9643934316
1.9317764043807983	2031206.068632978
1.9352631568908691	4229468.3369424995
1.9387450218200684	4565634.868527333
1.942221760749817	2734561.951877134
1.9456936120986938	1504167.8922819644
1.9491604566574097	1333861.0996268135
1.952622413635254	1826774.9704148674
1.956079363822937	3461799.3030628343
1.959531545639038	5250583.228893741
1.962978720664978	4813975.903413546
1.966421127319336	3633825.611226367
1.9698586463928223	4191083.0776189207
1.9732913970947266	4867582.346402196
1.9767193794250488	5114011.060775004
1.9801424741744995	5627237.38989594
1.9835609197616577	5834479.920158921
1.9869745969772339	6572742.248925259
1.990383505821228	7327010.269431235
1.9937876462936401	7144082.425409852
1.9971871376037598	6087903.158755012
2.000581979751587	4968930.714451474
2.003972291946411	6040491.250965837
2.007357597351074	7926187.191093716
2.0107386112213135	8707548.43615641
2.0141148567199707	8355554.123024625
2.017486572265625	7226433.1798450835
2.0208535194396973	7193460.153675399
2.0242159366607666	8092735.954090098
2.027573823928833	8329928.533828426
2.0309269428253174	8224000.861648499
2.034275770187378	9203002.132200295
2.0376198291778564	11442936.930044321
2.040959596633911	13266861.723989831
2.044294595718384	13794278.475236198
2.0476250648498535	13640513.13324564
2.0509510040283203	12828622.830927547
2.054272413253784	11916295.561498944
2.057589530944824	12313280.960898718
2.0609018802642822	13605255.436641306
2.0642096996307373	14488426.015511012
2.0675129890441895	14772485.460898725
2.0708119869232178	14706819.05059293
2.074106216430664	14444053.747071715
2.0773961544036865	14486300.423643816
2.080681324005127	14755608.91745948
2.0839622020721436	14701502.87014997
2.087238311767578	14377528.973679282
2.090510129928589	14154893.665084431
2.0937774181365967	14183198.589295704
2.0970399379730225	14104854.920651086
2.1002981662750244	13581611.695441142
2.1035518646240234	13173852.642982304
2.1068007946014404	13247623.088731753
2.1100454330444336	13328494.814989729
2.1132853031158447	13116363.371281233
2.116520881652832	12576895.958933158
2.1197516918182373	12010712.120829089
2.1229779720306396	11716025.448336957
2.12619948387146	11511408.368491398
2.1294167041778564	11429339.126785655
2.132629156112671	11515113.76465358
2.1358368396759033	11186990.358057162
2.139039993286133	10591461.971235713
2.1422386169433594	10130573.546486415
2.145432472229004	9714726.17680834
2.1486217975616455	9386459.721865915
2.151806354522705	8938916.192892198
2.1549863815307617	8839434.232707798
2.1581614017486572	9248910.571058542
2.16133189201355	9461562.031964539
2.1644976139068604	9308514.068163639
2.167658567428589	8728953.282680651
2.1708147525787354	8179370.670141361
2.173966407775879	8290298.502961996
2.1771130561828613	8700619.775043117
2.1802549362182617	8624579.67973256
2.183391809463501	7957717.024346598
2.1865241527557373	7293993.941964976
2.1896514892578125	6853501.253854633
2.1927738189697266	6098493.628729275
2.1958916187286377	4608692.422353237
2.1990041732788086	2976484.7253419776
2.2021119594573975	2146042.4969656677
2.2052149772644043	2151247.838175688
2.208312749862671	2519631.229791028
2.2114057540893555	3138508.6386237456
2.214493751525879	3624423.681943177
2.217576742172241	3344296.0328162555
2.2206547260284424	2741493.5951130046
2.2237277030944824	2356884.882064439
2.2267956733703613	1983523.5495839773
2.2298583984375	1676832.4790677594
2.2329163551330566	1588965.9588077452
2.235969066619873	1683470.3708201398
2.2390167713165283	1699012.1568491163
2.2420592308044434	1498378.1355608576
2.2450966835021973	1295302.5032295887
2.248128890991211	1239570.1551899335
2.2511560916900635	1322943.599980897
2.254178285598755	1605637.9633911138
2.257194995880127	2096253.9117270424
2.260206699371338	2060407.82040379
2.2632133960723877	1299630.64663901
2.266214609146118	982308.8920144073
2.2692108154296875	1544912.6354857814
2.2722020149230957	2113612.4338325253
2.2751877307891846	2041011.0622970513
2.278168201446533	1743986.6899873423
2.2811436653137207	1692392.5522946785
2.284113883972168	1624237.542690778
2.287078857421875	1321460.3174878976
2.290038824081421	1082309.4700033613
2.2929933071136475	1083381.252613022
2.295942783355713	1131730.0309663555
2.298887014389038	1202721.2977406022
2.301826238632202	1397461.0735641415
2.304760217666626	1712286.886539015
2.3076889514923096	2217206.104786113
2.310612440109253	2956331.39382566
2.3135311603546143	3612700.647967137
2.3164443969726562	3303108.1917826603
2.319352865219116	1936853.8833522717
2.322256088256836	925368.7133118566
2.3251543045043945	697735.4876997686
2.328047275543213	652589.5189989252
2.330935478210449	669086.0183019411
2.3338186740875244	655790.9453709438
2.3366971015930176	567276.1774357938
2.3395702838897705	494958.63190222095
2.3424389362335205	467245.2759337892
2.3453025817871094	449140.7650684702
2.348161458969116	442680.55490185315
2.351015567779541	622877.5493957086
2.353865146636963	1169007.7791463148
2.3567099571228027	1871879.8720368673
2.3595502376556396	2322472.595793201
2.3623859882354736	2258651.107966382
2.3652172088623047	1643795.9322766408
2.368043899536133	889086.4808610984
2.370866537094116	480458.8497187555
2.3736846446990967	447244.9479874829
2.3764986991882324	510691.6969683015
2.3793084621429443	537722.0815814973
2.3821144104003906	627287.1152015055
2.384916305541992	851806.1251056299
2.387714147567749	1042174.8306303726
2.3905084133148193	1008713.8373031572
2.393299102783203	886314.62652693
2.3960859775543213	791126.1074602528
2.398869514465332	797083.9039439524
2.4016497135162354	1042345.133965878
2.4044265747070312	1499589.359726474
2.407200336456299	1832394.4288265782
2.409970998764038	1770847.2009890762
2.4127390384674072	1559517.45504556
2.415503978729248	1522981.028464783
2.418266534805298	1661452.0582981326
2.4210267066955566	1778629.9518994037
2.4237842559814453	1744886.8117891815
2.426539897918701	1768321.4671479377
2.429293394088745	2088364.7510983823
2.4320452213287354	2399732.205504467
2.4347951412200928	2335495.954301835
2.4375438690185547	2153568.192510473
2.440291166305542	2165520.9118614653
2.443037271499634	2198546.1064684307
2.445782423019409	2169252.6526253214
2.4485268592834473	2242826.653364565
2.451270818710327	2382993.349693702
2.454014539718628	2499432.5001220354
2.4567582607269287	2561417.2612006846
2.4595019817352295	2604392.511613163
2.4622461795806885	2943981.1797893997
2.4649908542633057	3391865.266524849
2.4677364826202393	3249124.072004361
2.4704833030700684	2480175.9642625125
2.473231554031372	1633942.4165179303
2.4759814739227295	1100107.7571748318
2.4787333011627197	868086.5851591594
2.481487512588501	797607.3831388364
