#wavelength	surface flux
0.6450077295303345	188752.706412936
0.6472567915916443	283641.50621128373
0.6494921445846558	339729.259191684
0.6517150402069092	352743.7223813849
0.6539263725280762	363421.7716081997
0.6561272740364075	374196.22094759316
0.6583186388015747	385270.76167634316
0.6605015397071838	396640.5722215684
0.6626768708229065	408002.6132008892
0.6648455858230591	419625.20408285235
0.6670085787773132	430861.36173379817
0.6691668033599854	439563.8955943785
0.6713210344314575	449699.022021438
0.6734722256660461	465341.05136909394
0.6756211519241333	481292.0751383892
0.6777685880661011	494787.0593762634
0.6799154281616211	507628.82899405475
0.6820623278617859	521059.73035731394
0.6842101216316223	535463.5695236623
0.6863595843315125	549897.6485004805
0.688511312007904	563969.9273677018
0.6906660795211792	577709.9770764568
0.6928245425224304	592277.9926578958
0.6949873566627502	608456.0522904457
0.6971551775932312	624849.777684481
0.6993286609649658	640845.2969427607
0.7015084028244019	656989.5702908334
0.7036949396133423	673548.0422782963
0.7058889269828796	690511.4098696582
0.7080909013748169	707665.9646306612
0.710301399230957	725105.1149663083
0.712520956993103	743037.9432017872
0.7147500514984131	761270.5871532109
0.7169892191886902	779721.9905613076
0.7192389369010925	798763.5008933762
0.7214996814727783	818250.8762017121
0.723771870136261	837938.225734961
0.7260559797286987	858058.692821561
0.7283523678779602	878653.3526527816
0.7306615710258484	899884.1312125779
0.7329838871955872	921923.9169088491
0.7353196740150452	944371.0531758319
0.7376693487167358	967177.6324427432
0.7400332689285278	990474.4508444904
0.7424117922782898	1014002.7394374581
0.7448052167892456	1037915.8430108782
0.7472138404846191	1062252.148727607
0.7496379613876343	1086677.5273607047
0.7520779371261597	1110715.3296944082
0.7545340061187744	1133433.9775182537
0.7570064663887024	1152531.01714587
0.7594954967498779	1158409.3437474822
0.7620013952255249	1094322.4575550258
0.7645244002342224	856920.4613879714
0.7670646905899048	555382.0658661667
0.7696225643157959	518060.4713504121
0.7721980810165405	851283.9454443665
0.7747915983200073	1217820.463223599
0.7774031162261963	1370850.2750506322
0.7800329327583313	1423861.1293681576
0.7826811671257019	1467516.2026520174
0.7853479981422424	1509642.7528469618
0.7880334854125977	1549099.5738078929
0.7907378077507019	1577946.0449227314
0.7934610247612	1584231.8510871262
0.7962033748626709	1612245.6435776986
0.7989648580551147	1683166.2130260353
0.801745593547821	1744360.6501864234
0.8045456409454346	1786849.662298773
0.8073651194572449	1828239.5350317366
0.8102040886878967	1869169.186413735
0.8130625486373901	1911547.9778940857
0.8159406185150146	1956926.5449767231
0.8188382983207703	2003203.2564016576
0.8217556476593018	2049311.5326519583
0.8246926665306091	2096866.1834166683
0.8276493549346924	2145725.983880613
0.8306257724761963	2195088.4942006078
0.8336219191551208	2245366.911764336
0.8366377949714661	2296147.806363913
0.8396733403205872	2348614.3465739996
0.8427285552024841	2403875.6225325996
0.8458034992218018	2459954.118924326
0.8488980531692505	2516142.208352597
0.8520121574401855	2573442.083676358
0.8551458716392517	2632232.1792415604
0.8582990765571594	2690506.2246367214
0.8614717125892639	2745345.9917431404
0.8646637797355652	2802462.5462140525
0.8678751587867737	2866259.139089197
0.8711057901382446	2931588.876514911
0.8743556141853333	2997144.3474316853
0.87762451171875	3063221.6322478834
0.8809124231338501	3129759.216696862
0.8842192888259888	3198467.5000727694
0.8875449895858765	3266648.1753863217
0.8908893465995789	3332019.284245475
0.894252359867096	3401044.364259842
0.8976338505744934	3478364.376919357
0.9010337591171265	3558630.834880926
0.9044519662857056	3637508.2221774464
0.9078882932662964	3715361.667593134
0.9113426208496094	3792436.310257152
0.914814829826355	3867988.235215942
0.9183048605918884	3945737.391283893
0.9218124747276306	4023069.5115696746
0.925337553024292	4074586.4768578843
0.9288799166679382	4103987.253148409
0.9324395060539246	4166457.7766177044
0.9360161423683167	4271360.499704886
0.9396095871925354	4380156.001228084
0.943219780921936	4465784.676754664
0.9468464851379395	4541785.491642372
0.9504896402359009	4635430.508376231
0.9541489481925964	4738515.834217727
0.9578243494033813	4825096.727478767
0.9615156054496765	4891638.90895246
0.9652225375175476	4970829.716739243
0.9689450263977051	5083642.375524808
0.9726828336715698	5222496.72929581
0.9764357805252075	5352512.578582657
0.9802037477493286	5463964.010809786
0.983986496925354	5574418.323869228
0.9877838492393494	5685660.500859371
0.9915955662727356	5798130.738452492
0.9954215884208679	5912772.387698903
0.9992615580558777	6025432.330354781
1.0031154155731201	6135112.205409356
1.0069829225540161	6251537.806839399
1.0108637809753418	6375280.015167217
1.0147579908370972	6500210.231607561
1.018665075302124	6622399.994097064
1.022585153579712	6736386.8299878575
1.0265177488327026	6846961.922954691
1.0304628610610962	6966781.806561702
1.0344202518463135	7097029.244515494
1.0383895635604858	7226750.264250731
1.0423706769943237	7352274.415541919
1.0463634729385376	7477302.802499651
1.0503677129745483	7602633.649236182
1.0543830394744873	7729834.449892868
1.058409333229065	7857326.25563967
1.0624464750289917	7983226.75035151
1.0664942264556885	8109515.875021608
1.0705522298812866	8237654.547890294
1.0746204853057861	8369206.676694513
1.0786986351013184	8503477.149492376
1.0827864408493042	8636599.07346518
1.086883783340454	8761748.63853029
1.0909905433654785	8875119.967567677
1.0951062440872192	8972735.14832423
1.0992310047149658	9005876.79763419
1.10336434841156	8986692.79671169
1.1075061559677124	9049017.996082338
1.1116561889648438	9166019.153182553
1.115814208984375	9253207.736414159
1.1199802160263062	9364113.925660372
1.124153733253479	9537340.764442634
1.1283347606658936	9682836.597108265
1.1325229406356812	9709313.32948219
1.1367181539535522	9847204.920485804
1.1409201622009277	10152148.412850166
1.145128846168518	10376686.780842498
1.1493438482284546	10409151.961622955
1.1535650491714478	10338169.68223026
1.1577922105789185	10397507.178585231
1.1620250940322876	10622514.73521774
1.1662636995315552	10897148.350459797
1.170507550239563	11116146.080335176
1.174756646156311	11328640.172243563
1.1790107488632202	11593645.143657703
1.1832695007324219	11826524.445686162
1.1875330209732056	12007741.156766905
1.191800832748413	12185078.063810313
1.1960728168487549	12376038.980526622
1.2003488540649414	12549914.541732745
1.2046287059783936	12704679.024683084
1.2089121341705322	12857670.45502268
1.2131990194320679	13020655.628039371
1.2174891233444214	13193444.827679211
1.2217823266983032	13361480.439962657
1.2260783910751343	13519612.029034926
1.230377197265625	13671361.750980467
1.2346785068511963	13820577.40918044
1.238982081413269	13974138.138888936
1.2432878017425537	14131383.133809855
1.2475954294204712	14285789.084816966
1.2519049644470215	14437218.10225935
1.256216049194336	14594305.678248651
1.2605286836624146	14747882.45744893
1.2648425102233887	14890579.150932841
1.2691574096679688	15032263.977313
1.2734732627868652	15176469.5367389
1.2777899503707886	15320292.529539283
1.2821072340011597	15460377.076118302
1.2864248752593994	15593595.779296134
1.2907428741455078	15719639.90743827
1.2950609922409058	15857709.630227257
1.2993791103363037	15998255.439521201
1.303696870803833	16121430.857840687
1.3080145120620728	16254534.42144929
1.3123314380645752	16409340.931811191
1.3166478872299194	16562507.504170572
1.3209635019302368	16657136.42345214
1.3252781629562378	16637567.711378187
1.3295916318893433	16316382.121163005
1.3339040279388428	15280013.15138737
1.3382149934768677	13567192.781017559
1.3425244092941284	12674054.420168128
1.3468321561813354	13135691.11915821
1.3511382341384888	13003378.76526058
1.3554422855377197	12237531.260427715
1.3597444295883179	12107936.712386744
1.3640443086624146	12601710.665737018
1.3683418035507202	13551363.523961175
1.3726370334625244	14766356.672924906
1.3769296407699585	15494848.661128221
1.381219506263733	14509499.715344427
1.3855066299438477	12937591.983431876
1.3897908926010132	12432965.673445273
1.3940720558166504	12449398.297352126
1.3983501195907593	12729404.929747496
1.4026249647140503	13905798.260159243
1.4068963527679443	14881253.671616523
1.4111642837524414	14073133.67378941
1.4154287576675415	13568197.779027825
1.419689416885376	14058267.740749763
1.4239463806152344	14087151.994659914
1.4281994104385376	14407111.93140888
1.4324485063552856	14514440.75170049
1.436693549156189	14369162.075638086
1.440934419631958	15149153.460879806
1.4451709985733032	16468052.268977614
1.449403166770935	17623567.940132264
1.453631043434143	18229184.725519408
1.4578542709350586	18539021.374266338
1.4620729684829712	18854449.24437035
1.4662868976593018	18994981.838207632
1.4704961776733398	18986669.791214466
1.4747005701065063	19117951.251194607
1.4788999557495117	19400422.295793436
1.4830944538116455	19800409.51795089
1.4872838258743286	20188359.989539146
1.491468071937561	20371771.611012146
1.4956470727920532	20511322.670963433
1.4998208284378052	20823014.029532477
1.5039892196655273	21160242.488864627
1.5081522464752197	21301074.829286482
1.5123097896575928	21420956.60470541
1.5164618492126465	21682406.56702028
1.5206083059310913	22031298.169995233
1.5247491598129272	22296488.638939757
1.5288842916488647	22404802.264744904
1.5330137014389038	22544509.918464508
1.5371372699737549	22741787.569463793
1.541254997253418	22893386.22302609
1.545366883277893	23057348.357815497
1.5494728088378906	23244581.90259875
1.5535727739334106	23378498.849267725
1.5576666593551636	23459493.929257255
1.561754584312439	23583385.405565627
1.5658363103866577	23774939.365558885
1.5699119567871094	23934379.72129012
1.5739814043045044	24006915.678103786
1.5780447721481323	24043541.61111266
1.582101821899414	24171816.858790632
1.5861525535583496	24378801.828455873
1.5901970863342285	24531290.48075561
1.5942351818084717	24628896.16430226
1.5982669591903687	24717759.992966708
1.6022924184799194	24826790.00249034
1.606311559677124	24952736.68297705
1.6103241443634033	25059343.386354502
1.6143304109573364	25153053.46301491
1.6183301210403442	25247641.851009887
1.6223233938217163	25351872.97744229
1.6263102293014526	25466576.102972545
1.6302905082702637	25561077.27701978
1.634264349937439	25644910.40005071
1.638231635093689	25741799.99671153
1.6421923637390137	25840539.711458616
1.646146535873413	25934731.76088329
1.6500942707061768	26015810.789884884
1.6540353298187256	26090192.948067617
1.6579699516296387	26163389.913460564
1.661897897720337	26232259.443133872
1.6658192873001099	26302908.924284317
1.6697341203689575	26380085.68071392
1.6736423969268799	26497497.08440084
1.677544116973877	26626612.478085697
1.6814392805099487	26720045.350931156
1.6853278875350952	26793344.366576303
1.6892099380493164	26829234.241230883
1.6930854320526123	26815332.427467834
1.696954369544983	26830156.69613684
1.7008168697357178	26923994.15022647
1.7046726942062378	27001442.599384334
1.708522081375122	27006517.534044363
1.712364912033081	26994207.12104479
1.7162011861801147	27025250.38736324
1.7200311422348022	27092942.784605775
1.723854422569275	27130587.954820253
1.7276713848114014	27100810.50749982
1.731481909751892	26983897.120256953
1.7352858781814575	26830312.3698495
1.7390835285186768	26713945.58756254
1.7428747415542603	26552999.060671665
1.7466596364974976	26299901.639955178
1.7504380941390991	25958852.49615492
1.7542102336883545	25727313.626429837
1.7579760551452637	26150272.672602113
1.7617355585098267	26768450.90610523
1.7654887437820435	26598616.660772994
1.7692357301712036	25743580.57213199
1.7729763984680176	24467892.00154264
1.776710867881775	22910508.706794538
1.7804391384124756	22256181.069857188
1.7841613292694092	22328411.86089589
1.7878772020339966	21929426.59147683
1.7915871143341064	22006550.154001895
1.7952908277511597	22317818.239028707
1.7989884614944458	21346565.85468684
1.8026801347732544	19298733.294595666
1.806365728378296	17278837.286072265
1.8100452423095703	17312337.79683969
1.8137187957763672	18685024.49835211
1.817386507987976	18602541.6468348
1.8210482597351074	19185405.26092631
1.8247040510177612	19792421.815089215
1.828354001045227	18405364.360988185
1.8319982290267944	18618196.12000276
1.8356364965438843	20591741.478493217
1.8392690420150757	22061783.06711391
1.8428958654403687	22471687.696419634
1.8465168476104736	22263852.42195371
1.8501322269439697	21390924.200636756
1.8537418842315674	19076880.784868702
1.8573459386825562	17821479.8361753
1.860944390296936	17840075.796993062
1.864537239074707	17617068.358642552
1.8681244850158691	19069687.421992637
1.871706247329712	21498805.814596422
1.8752825260162354	22880803.282511935
1.8788533210754395	23719835.15974466
1.8824186325073242	24166006.367238875
1.8859784603118896	23861543.763212197
1.8895330429077148	23807419.834656842
1.8930821418762207	24600975.36824835
1.8966259956359863	24508711.74256141
1.9001644849777222	22273842.810434353
1.9036977291107178	20074435.981886305
1.9072256088256836	20286144.728359096
1.9107483625411987	20287311.2313466
1.9142658710479736	18493052.92294845
1.9177782535552979	18372112.5745181
1.9212853908538818	19744133.075309295
1.9247875213623047	19756502.49680899
1.9282845258712769	19916870.218722966
1.9317764043807983	21300477.284363784
1.9352631568908691	21776624.792337008
1.9387450218200684	21013012.079601035
1.942221760749817	20702653.62504144
1.9456936120986938	20854820.176031608
1.9491604566574097	20845713.919733908
1.952622413635254	20375277.674204968
1.956079363822937	19836859.94940361
1.959531545639038	20357865.056899536
1.962978720664978	21041354.563470833
1.966421127319336	21862529.317901604
1.9698586463928223	23217793.483653486
1.9732913970947266	23779046.084996153
1.9767193794250488	23972692.54094533
1.9801424741744995	24811664.302682243
1.9835609197616577	25617785.448024254
1.9869745969772339	25625678.794989713
1.990383505821228	24873184.720532313
1.9937876462936401	24548574.267210774
1.9971871376037598	24618824.796101104
2.000581979751587	24950894.249920815
2.003972291946411	25993596.2128854
2.007357597351074	26740972.9419085
2.0107386112213135	27249837.88239545
2.0141148567199707	27557270.515932314
2.017486572265625	27214209.970370144
2.0208535194396973	27271844.30603246
2.0242159366607666	27938793.138284784
2.027573823928833	28397306.13328634
2.0309269428253174	28650494.00223842
2.034275770187378	28922947.799200732
2.0376198291778564	29121891.45581598
2.040959596633911	29293883.462257918
2.044294595718384	29522153.91758707
2.0476250648498535	29764081.747840352
2.0509510040283203	29857771.31015217
2.054272413253784	29765743.537102725
2.057589530944824	29795267.71568655
2.0609018802642822	29983497.485748816
2.0642096996307373	30148651.51134205
2.0675129890441895	30263689.942427043
2.0708119869232178	30312968.95233736
2.074106216430664	30291750.518218093
2.0773961544036865	30286058.91690314
2.080681324005127	30344390.277142026
2.0839622020721436	30422003.83995657
2.087238311767578	30487671.883198336
2.090510129928589	30503510.349750627
2.0937774181365967	30484681.990963183
2.0970399379730225	30506609.98623194
2.1002981662750244	30545416.043376382
2.1035518646240234	30550722.366646376
2.1068007946014404	30556937.784872804
2.1100454330444336	30639632.15171135
2.1132853031158447	30743394.021661043
2.116520881652832	30764292.989349183
2.1197516918182373	30770920.63354494
2.1229779720306396	30819558.558556437
2.12619948387146	30862324.3904212
2.1294167041778564	30882483.00344184
2.132629156112671	30907612.857279256
2.1358368396759033	30921039.669651046
2.139039993286133	30907968.677592967
2.1422386169433594	30909605.844215237
2.145432472229004	30928718.9839353
2.1486217975616455	30931178.761614043
2.151806354522705	30919439.800261214
2.1549863815307617	30920661.359899983
2.1581614017486572	30944596.410261422
2.16133189201355	30967975.456510343
2.1644976139068604	30975163.59578424
2.167658567428589	30966441.02252073
2.1708147525787354	30939369.878454175
2.173966407775879	30899808.276813734
2.1771130561828613	30884428.724856254
2.1802549362182617	30916917.84256846
2.183391809463501	30955886.382579837
2.1865241527557373	30972200.50933003
2.1896514892578125	30978632.023454636
2.1927738189697266	30959948.91260551
2.1958916187286377	30897913.91990622
2.1990041732788086	30848349.808060125
2.2021119594573975	30856197.736827992
2.2052149772644043	30883451.154783618
2.208312749862671	30904559.18553956
2.2114057540893555	30912914.515121866
2.214493751525879	30892752.054792468
2.217576742172241	30858565.35080597
2.2206547260284424	30848415.744341984
2.2237277030944824	30855508.256683506
2.2267956733703613	30840621.82119579
2.2298583984375	30815342.799735807
2.2329163551330566	30809176.70457098
2.235969066619873	30825495.57329614
2.2390167713165283	30826182.471607905
2.2420592308044434	30745041.903528605
2.2450966835021973	30610765.073798005
2.248128890991211	30539500.45852553
2.2511560916900635	30574178.81588145
2.254178285598755	30643089.804597396
2.257194995880127	30677372.24337502
2.260206699371338	30655633.896681573
2.2632133960723877	30536512.811169665
2.266214609146118	30364550.72260958
2.2692108154296875	30281137.452551264
2.2722020149230957	30332167.62115061
2.2751877307891846	30426126.925831523
2.278168201446533	30415896.606690034
2.2811436653137207	30303599.64983708
2.284113883972168	30273415.77351477
2.287078857421875	30337809.241426874
2.290038824081421	30167256.76042793
2.2929933071136475	29388085.47383361
2.295942783355713	28034722.2744462
2.298887014389038	26523738.37495789
2.301826238632202	25214060.477635656
2.304760217666626	24135763.085973356
2.3076889514923096	23350160.818622887
2.310612440109253	23347285.927229106
2.3135311603546143	23950868.27751655
2.3164443969726562	24212757.76894853
2.319352865219116	23990198.813115034
2.322256088256836	23716730.505810738
2.3251543045043945	23619960.630642846
2.328047275543213	23721650.800171003
2.330935478210449	24017048.31518877
2.3338186740875244	24495969.132832818
2.3366971015930176	25055406.401283152
2.3395702838897705	25654393.428113386
2.3424389362335205	26351750.73116814
2.3453025817871094	27178269.747115612
2.348161458969116	27664455.454307277
2.351015567779541	27345880.067374725
2.353865146636963	26608210.023917817
2.3567099571228027	26009117.809696693
2.3595502376556396	25931821.4650797
2.3623859882354736	26474120.107394867
2.3652172088623047	26655517.816063073
2.368043899536133	25985679.991270944
2.370866537094116	25960904.28542445
2.3736846446990967	26774741.628223967
2.3764986991882324	26340025.873095825
2.3793084621429443	24782960.39053062
2.3821144104003906	24140877.47203624
2.384916305541992	25012126.449471015
2.387714147567749	26611095.569842547
2.3905084133148193	27803185.68236606
2.393299102783203	27878335.812085357
2.3960859775543213	26777023.036943596
2.398869514465332	25367332.181313302
2.4016497135162354	24575364.70279399
2.4044265747070312	24467155.759166446
2.407200336456299	24749625.527182393
2.409970998764038	25024051.250630654
2.4127390384674072	25092769.726947494
2.415503978729248	25218597.8847395
2.418266534805298	25598465.791167226
2.4210267066955566	25937406.171132203
2.4237842559814453	25937205.036481883
2.426539897918701	25653947.43030292
2.429293394088745	25218962.09787727
2.4320452213287354	24907023.7165942
2.4347951412200928	24973231.97889022
2.4375438690185547	25093398.06246968
2.440291166305542	24785894.88452796
2.443037271499634	24081255.40411762
2.445782423019409	23377414.19501448
2.4485268592834473	22832260.28750194
2.451270818710327	22530493.124596506
2.454014539718628	23161285.631201852
2.4567582607269287	24163756.90940133
2.4595019817352295	23994475.39350894
2.4622461795806885	23855631.39675831
2.4649908542633057	23957883.285572305
2.4677364826202393	22613934.01876865
2.4704833030700684	20311976.912404217
2.473231554031372	17919299.10676826
2.4759814739227295	15905945.220409725
