#wavelength	surface flux
0.6450077295303345	4104.405912521
0.6472567915916443	6434.270525539901
0.6494921445846558	8353.48798895166
0.6517150402069092	9560.768421242508
0.6539263725280762	10802.532565367437
0.6561272740364075	12128.554620077117
0.6583186388015747	13551.012272846203
0.6605015397071838	15079.798605642254
0.6626768708229065	16724.352789565753
0.6648455858230591	18470.883660919
0.6670085787773132	19913.214798023375
0.6691668033599854	20195.282497110402
0.6713210344314575	21077.920108970455
0.6734722256660461	24679.40333159569
0.6756211519241333	28681.559012411475
0.6777685880661011	31511.653079488293
0.6799154281616211	34076.37012647967
0.6820623278617859	36663.25825528209
0.6842101216316223	39285.04175777604
0.6863595843315125	41923.9053647882
0.688511312007904	44500.68860242552
0.6906660795211792	46769.40809701615
0.6928245425224304	48772.21174354064
0.6949873566627502	51213.24548239758
0.6971551775932312	53967.79325631247
0.6993286609649658	56342.269664878164
0.7015084028244019	58473.88496773099
0.7036949396133423	60372.15043002596
0.7058889269828796	61821.443539145366
0.7080909013748169	62871.28343539514
0.710301399230957	63659.531384862436
0.712520956993103	64059.73691635265
0.7147500514984131	63686.69655773022
0.7169892191886902	62510.20486288775
0.7192389369010925	60827.16005314832
0.7214996814727783	58566.343592159756
0.723771870136261	55531.490301166086
0.7260559797286987	52073.36314722636
0.7283523678779602	48424.24072539411
0.7306615710258484	45488.36640465173
0.7329838871955872	43618.63150005687
0.7353196740150452	40786.08402862436
0.7376693487167358	36583.72834084483
0.7400332689285278	32182.470779586674
0.7424117922782898	27877.86035865183
0.7448052167892456	23859.312451695812
0.7472138404846191	20058.142851194603
0.7496379613876343	16400.624068342244
0.7520779371261597	13022.677888497608
0.7545340061187744	9988.332630843997
0.7570064663887024	7326.8157083219985
0.7594954967498779	5042.282363451628
0.7620013952255249	3095.9528347934865
0.7645244002342224	1542.8433723574844
0.7670646905899048	662.5345959085832
0.7696225643157959	702.6211035090116
0.7721980810165405	1877.7549759321982
0.7747915983200073	4160.744283387219
0.7774031162261963	6999.359406730403
0.7800329327583313	10548.787689117144
0.7826811671257019	16058.42665382141
0.7853479981422424	23520.156147215774
0.7880334854125977	31958.65911445298
0.7907378077507019	38066.29881267975
0.7934610247612	39586.51237734444
0.7962033748626709	51355.35340690165
0.7989648580551147	78767.00463670005
0.801745593547821	105854.07166874004
0.8045456409454346	129689.51117010653
0.8073651194572449	154175.91376511843
0.8102040886878967	178925.36623270993
0.8130625486373901	208410.03985710244
0.8159406185150146	246386.0618172169
0.8188382983207703	291045.55836137716
0.8217556476593018	341171.7910140096
0.8246926665306091	392939.2696864156
0.8276493549346924	442878.9489042459
0.8306257724761963	500011.46618730266
0.8336219191551208	571761.436094436
0.8366377949714661	645868.7487414867
0.8396733403205872	719609.5263051593
0.8427285552024841	804581.6407442444
0.8458034992218018	893387.045351491
0.8488980531692505	930524.8894374707
0.8520121574401855	949046.0318982103
0.8551458716392517	1113497.6789573506
0.8582990765571594	1361289.9760843064
0.8614717125892639	1542696.6663104566
0.8646637797355652	1700136.4920985464
0.8678751587867737	1879360.6150339518
0.8711057901382446	2075395.9615458846
0.8743556141853333	2272376.489168932
0.87762451171875	2458801.28863283
0.8809124231338501	2619043.5840252717
0.8842192888259888	2756753.1506461585
0.8875449895858765	2858852.770935142
0.8908893465995789	2761221.008420425
0.894252359867096	2562208.4589650882
0.8976338505744934	2912610.691273649
0.9010337591171265	3801213.3179160035
0.9044519662857056	4571176.040003136
0.9078882932662964	5048746.462636011
0.9113426208496094	5310972.3387879785
0.914814829826355	5410318.337831506
0.9183048605918884	5553548.475462283
0.9218124747276306	5460879.186596596
0.925337553024292	4360582.839225939
0.9288799166679382	3091215.1540969214
0.9324395060539246	2815531.28293538
0.9360161423683167	3110765.3935586764
0.9396095871925354	3374012.002242927
0.943219780921936	3290562.3927683895
0.9468464851379395	2792712.5000628666
0.9504896402359009	3032382.773238583
0.9541489481925964	4390357.831032586
0.9578243494033813	4837721.576101773
0.9615156054496765	3787395.9471695577
0.9652225375175476	2988106.5310131595
0.9689450263977051	4048165.632277862
0.9726828336715698	6265070.794634862
0.9764357805252075	7418898.161259839
0.9802037477493286	7998856.051840772
0.983986496925354	9480952.875856016
0.9877838492393494	11104528.727405936
0.9915955662727356	12236227.892566089
0.9954215884208679	13058538.577667601
0.9992615580558777	13279396.983459396
1.0031154155731201	13331696.071384104
1.0069829225540161	14387384.78253537
1.0108637809753418	16408504.024990052
1.0147579908370972	18492008.246920515
1.018665075302124	19930204.14225053
1.022585153579712	20561972.41856382
1.0265177488327026	21202452.822568156
1.0304628610610962	22512030.136824798
1.0344202518463135	24004914.058091227
1.0383895635604858	25196188.677187562
1.0423706769943237	26107632.63782286
1.0463634729385376	26586982.108607568
1.0503677129745483	27019372.444623824
1.0543830394744873	28157374.657161143
1.058409333229065	29528281.69037117
1.0624464750289917	30428515.602864314
1.0664942264556885	30565693.96191259
1.0705522298812866	30228781.91399495
1.0746204853057861	30211924.653773505
1.0786986351013184	30233351.907767277
1.0827864408493042	30143855.476582605
1.086883783340454	28365729.609218266
1.0909905433654785	23317056.135702856
1.0951062440872192	17973487.729183488
1.0992310047149658	12644279.078923715
1.10336434841156	6688560.772813847
1.1075061559677124	3785569.052730314
1.1116561889648438	3092425.165487653
1.115814208984375	2202309.8734825496
1.1199802160263062	1984276.179349923
1.124153733253479	2176629.827628577
1.1283347606658936	1865553.3588468642
1.1325229406356812	1509258.2173495467
1.1367181539535522	2555398.5216036728
1.1409201622009277	4557877.535846528
1.145128846168518	5461323.213036981
1.1493438482284546	4446364.212069221
1.1535650491714478	2652365.793220955
1.1577922105789185	1851241.4685769605
1.1620250940322876	2185162.0872593285
1.1662636995315552	3429907.2998234984
1.170507550239563	5214030.334792799
1.174756646156311	7596168.403473198
1.1790107488632202	10809961.885008147
1.1832695007324219	12548653.7440551
1.1875330209732056	12260252.634622652
1.191800832748413	15115728.86745547
1.1960728168487549	21180162.467253868
1.2003488540649414	25098222.94645143
1.2046287059783936	26964973.534182955
1.2089121341705322	28007596.278472632
1.2131990194320679	29378635.506287973
1.2174891233444214	32498176.05311571
1.2217823266983032	35457217.61116675
1.2260783910751343	37605816.76023636
1.230377197265625	39906678.30838802
1.2346785068511963	41662045.105978005
1.238982081413269	42514388.96212293
1.2432878017425537	43443954.37359884
1.2475954294204712	44533416.12474428
1.2519049644470215	45228806.4363183
1.256216049194336	47831529.38014026
1.2605286836624146	49879844.97911686
1.2648425102233887	48648583.93800764
1.2691574096679688	48888952.28456203
1.2734732627868652	51335069.070513114
1.2777899503707886	50574031.90595535
1.2821072340011597	46446988.19141523
1.2864248752593994	44459479.41982724
1.2907428741455078	43929618.113998264
1.2950609922409058	42126141.68805796
1.2993791103363037	36043547.34500126
1.303696870803833	30281709.98704059
1.3080145120620728	29381311.761621032
1.3123314380645752	30104531.06094613
1.3166478872299194	31893281.366702173
1.3209635019302368	28859418.77919476
1.3252781629562378	21356152.8360699
1.3295916318893433	13930871.738075487
1.3339040279388428	6276528.348889511
1.3382149934768677	1652036.402097319
1.3425244092941284	580209.0883959982
1.3468321561813354	380453.0149944062
1.3511382341384888	285299.6723601207
1.3554422855377197	191738.06262293647
1.3597444295883179	206613.2829795389
1.3640443086624146	303168.41931052774
1.3683418035507202	287478.17023441184
1.3726370334625244	221988.5576353132
1.3769296407699585	283321.1103276969
1.381219506263733	281403.34071436373
1.3855066299438477	156393.50652112113
1.3897908926010132	170295.60788258168
1.3940720558166504	304188.2831601416
1.3983501195907593	286498.60763044807
1.4026249647140503	255907.96748814703
1.4068963527679443	309759.22833802516
1.4111642837524414	260557.55546773807
1.4154287576675415	201262.42009866252
1.419689416885376	194969.2030209048
1.4239463806152344	196890.35702241355
1.4281994104385376	154575.5998449102
1.4324485063552856	125179.74377000508
1.436693549156189	265019.62937273004
1.440934419631958	637463.7302054093
1.4451709985733032	1331436.5774685857
1.449403166770935	2138254.5570934233
1.453631043434143	2287644.1634314302
1.4578542709350586	2196868.0960403704
1.4620729684829712	2881928.7482043784
1.4662868976593018	3491633.8501202613
1.4704961776733398	2400165.9967893683
1.4747005701065063	966694.5935921171
1.4788999557495117	1349932.1063492717
1.4830944538116455	2741189.367970865
1.4872838258743286	3095086.935994227
1.491468071937561	2340967.712492259
1.4956470727920532	2574502.6728276294
1.4998208284378052	4354643.113869186
1.5039892196655273	5179340.024664092
1.5081522464752197	4171777.54418958
1.5123097896575928	4150349.9751682477
1.5164618492126465	6568975.664218612
1.5206083059310913	9662728.465364778
1.5247491598129272	11220229.267847309
1.5288842916488647	11677915.74793781
1.5330137014389038	12674478.653900433
1.5371372699737549	13689775.115747074
1.541254997253418	13882495.911263824
1.545366883277893	14715135.346581584
1.5494728088378906	16154116.821149563
1.5535727739334106	17292340.26202644
1.5576666593551636	18704541.05799983
1.561754584312439	20738304.400208466
1.5658363103866577	22923960.576630123
1.5699119567871094	23955236.346231453
1.5739814043045044	23552878.20497996
1.5780447721481323	23612787.094831526
1.582101821899414	25008724.87208716
1.5861525535583496	26231104.34457028
1.5901970863342285	25640131.004389122
1.5942351818084717	23509297.38171589
1.5982669591903687	22074320.6025347
1.6022924184799194	21166281.86693935
1.606311559677124	19715521.250146974
1.6103241443634033	19084161.969951708
1.6143304109573364	17802707.32735487
1.6183301210403442	14939116.880692625
1.6223233938217163	12746731.45250695
1.6263102293014526	11554735.514620308
1.6302905082702637	11891827.586917229
1.634264349937439	14186618.022450704
1.638231635093689	16669048.53732192
1.6421923637390137	16839472.493118804
1.646146535873413	13253680.34568553
1.6500942707061768	10196466.88731948
1.6540353298187256	11032504.865353538
1.6579699516296387	12192542.977657447
1.661897897720337	11431943.758531576
1.6658192873001099	8051008.435494409
1.6697341203689575	5012638.508288304
1.6736423969268799	5545615.080530285
1.677544116973877	6340320.092936905
1.6814392805099487	6045759.190113046
1.6853278875350952	5414482.669209745
1.6892099380493164	4516201.0058564115
1.6930854320526123	3902021.318819243
1.696954369544983	3272633.132276586
1.7008168697357178	2767687.4707823894
1.7046726942062378	2713182.2758735744
1.708522081375122	3334207.2778607607
1.712364912033081	3979598.741724798
1.7162011861801147	4263225.931732386
1.7200311422348022	4883367.722992899
1.723854422569275	4943007.950873321
1.7276713848114014	4105868.937581122
1.731481909751892	3624918.6607466284
1.7352858781814575	3733732.028972858
1.7390835285186768	4072794.4019394503
1.7428747415542603	4206564.093462319
1.7466596364974976	3484308.4799925606
1.7504380941390991	2528052.4967219573
1.7542102336883545	2664685.826577327
1.7579760551452637	3514037.3978859684
1.7617355585098267	3892921.018483084
1.7654887437820435	3501358.6520003006
1.7692357301712036	2585843.853657245
1.7729763984680176	1699905.808436441
1.776710867881775	1095082.7663680657
1.7804391384124756	859146.0148390841
1.7841613292694092	880270.4459972046
1.7878772020339966	932239.3605079401
1.7915871143341064	1324825.1448548252
1.7952908277511597	1628976.5302201828
1.7989884614944458	1367485.6554272722
1.8026801347732544	962801.3276457762
1.806365728378296	789167.3359202009
1.8100452423095703	722084.2784286765
1.8137187957763672	548411.7078141501
1.817386507987976	358784.4702672036
1.8210482597351074	617979.6966579332
1.8247040510177612	1140548.7509787623
1.828354001045227	1060974.67623041
1.8319982290267944	564581.3781512725
1.8356364965438843	523294.5885256366
1.8392690420150757	977437.4245034511
1.8428958654403687	1332850.5615770274
1.8465168476104736	1229485.998465019
1.8501322269439697	860578.4658155467
1.8537418842315674	671450.062595487
1.8573459386825562	763856.1923272999
1.860944390296936	619712.9424270336
1.864537239074707	243657.76043221072
1.8681244850158691	89994.9836035626
1.871706247329712	179859.2250114491
1.8752825260162354	417451.23215890577
1.8788533210754395	643182.002692546
1.8824186325073242	873554.6304174864
1.8859784603118896	1400471.4433568271
1.8895330429077148	1835988.6286865915
1.8930821418762207	1414538.029723087
1.8966259956359863	818303.0997258312
1.9001644849777222	702887.9333798469
1.9036977291107178	612509.5591870975
1.9072256088256836	805711.3113075955
1.9107483625411987	1066540.2510370116
1.9142658710479736	735606.4110037129
1.9177782535552979	498374.34033193276
1.9212853908538818	471922.35749361734
1.9247875213623047	237115.93202927988
1.9282845258712769	135897.0251799691
1.9317764043807983	407624.9606237581
1.9352631568908691	895396.7964416787
1.9387450218200684	970539.4546612523
1.942221760749817	574723.4461558745
1.9456936120986938	307443.44864492776
1.9491604566574097	256106.89689009776
1.952622413635254	321407.91058470675
1.956079363822937	609661.8501454338
1.959531545639038	1045044.4143507179
1.962978720664978	1087983.6801211708
1.966421127319336	885202.7107823513
1.9698586463928223	1035735.779118806
1.9732913970947266	1256087.7047388763
1.9767193794250488	1400828.0795926815
1.9801424741744995	1618431.6785707239
1.9835609197616577	1730790.9000301224
1.9869745969772339	1929760.8311206345
1.990383505821228	2122273.9648324894
1.9937876462936401	2049382.283553043
1.9971871376037598	1654282.7182334128
2.000581979751587	1268251.5383184662
2.003972291946411	1658892.1720252999
2.007357597351074	2402532.2543430123
2.0107386112213135	2759365.4262944204
2.0141148567199707	2636721.6374228233
2.017486572265625	2240459.18910786
2.0208535194396973	2061567.6856808157
2.0242159366607666	2126752.2480278434
2.027573823928833	2207192.7158724363
2.0309269428253174	2250340.926271208
2.034275770187378	2619617.1118541816
2.0376198291778564	3441611.4464817327
2.040959596633911	4028745.258489064
2.044294595718384	4169228.4090247354
2.0476250648498535	4086432.027251888
2.0509510040283203	3784066.19923689
2.054272413253784	3573329.2626877
2.057589530944824	3749545.01294941
2.0609018802642822	4052637.6106682965
2.0642096996307373	4228699.649437864
2.0675129890441895	4274038.9280331135
2.0708119869232178	4222325.16925967
2.074106216430664	4131005.788451173
2.0773961544036865	4113474.8459029556
2.080681324005127	4142386.3104776447
2.0839622020721436	4100577.8489995925
2.087238311767578	4011055.5238452917
2.090510129928589	3957494.355707733
2.0937774181365967	3942836.770531155
2.0970399379730225	3876980.8303287835
2.1002981662750244	3711500.77132753
2.1035518646240234	3596325.006072114
2.1068007946014404	3605217.0319618746
2.1100454330444336	3607846.702892633
2.1132853031158447	3515791.95061745
2.116520881652832	3307994.2612965666
2.1197516918182373	3080708.1299183164
2.1229779720306396	2936170.4607971096
2.12619948387146	2837220.454245881
2.1294167041778564	2811712.0086520175
2.132629156112671	2856628.9313704967
2.1358368396759033	2745441.8847196093
2.139039993286133	2539534.785136597
2.1422386169433594	2374415.457004048
2.145432472229004	2207441.6509591765
2.1486217975616455	2063163.9882733964
2.151806354522705	1872622.352103742
2.1549863815307617	1840725.1777324416
2.1581614017486572	2025089.5194061294
2.16133189201355	2119814.8169135093
2.1644976139068604	2058952.1073308573
2.167658567428589	1843199.1817208442
2.1708147525787354	1692563.6828689415
2.173966407775879	1855346.7519294913
2.1771130561828613	2121473.9067568844
2.1802549362182617	2147800.499489714
2.183391809463501	1917878.3755066984
2.1865241527557373	1687800.0938710622
2.1896514892578125	1553308.2529395216
2.1927738189697266	1329274.7051006174
2.1958916187286377	892870.4831975112
2.1990041732788086	449410.2608105353
2.2021119594573975	247207.39789979177
2.2052149772644043	277916.74834144284
2.208312749862671	419635.80960657995
2.2114057540893555	602668.0469386467
2.214493751525879	708586.9710865816
2.217576742172241	593677.7696658076
2.2206547260284424	389550.0425260788
2.2237277030944824	284585.17042094684
2.2267956733703613	235032.0374764719
2.2298583984375	196200.3538022156
2.2329163551330566	180509.66825066844
2.235969066619873	192758.1980668991
2.2390167713165283	194916.47168482112
2.2420592308044434	164111.932596352
2.2450966835021973	133670.52891103283
2.248128890991211	124932.26058724959
2.2511560916900635	136268.68409043463
2.254178285598755	186989.3021095805
2.257194995880127	292709.7713254195
2.260206699371338	307701.7803369204
2.2632133960723877	171967.43850721966
2.266214609146118	108368.2265631129
2.2692108154296875	219633.87775045345
2.2722020149230957	338644.41524951626
2.2751877307891846	312246.56246649765
2.278168201446533	225933.50287863487
2.2811436653137207	210679.9028223451
2.284113883972168	214841.4782432719
2.287078857421875	164992.29330451193
2.290038824081421	112604.57460746553
2.2929933071136475	105095.80457131946
2.295942783355713	109782.48700908598
2.298887014389038	114808.12025490109
2.301826238632202	142736.38187391133
2.304760217666626	216048.70028971165
2.3076889514923096	341060.80002705014
2.310612440109253	496817.7637408765
2.3135311603546143	648610.9456704895
2.3164443969726562	624292.6838941929
2.319352865219116	350541.7505785576
2.322256088256836	129010.46524763016
2.3251543045043945	87000.01728743565
2.328047275543213	81020.60010591103
2.330935478210449	71890.38607288986
2.3338186740875244	61916.12329536392
2.3366971015930176	48918.12940784126
2.3395702838897705	39487.45736558823
2.3424389362335205	35036.85564334019
2.3453025817871094	31658.79639194043
2.348161458969116	31279.507314289192
2.351015567779541	57719.893869693646
2.353865146636963	140474.30249503057
2.3567099571228027	256865.97491719798
2.3595502376556396	347425.71114294353
2.3623859882354736	349705.36113792047
2.3652172088623047	236467.68367141692
2.368043899536133	101000.96401448309
2.370866537094116	37975.89540602415
2.3736846446990967	31370.578877146174
2.3764986991882324	37001.432277940585
2.3793084621429443	44604.16087761035
2.3821144104003906	69272.96151648695
2.384916305541992	110639.64439765397
2.387714147567749	130288.65436979555
2.3905084133148193	109118.49475026975
2.393299102783203	85031.05841385348
2.3960859775543213	73353.00775664613
2.398869514465332	76180.57355935445
2.4016497135162354	122378.01806449042
2.4044265747070312	222788.4707315105
2.407200336456299	303175.5458619095
2.409970998764038	291021.520872367
2.4127390384674072	242239.79151478218
2.415503978729248	239437.43044641402
2.418266534805298	287773.64326196467
2.4210267066955566	326419.5623007105
2.4237842559814453	305107.35706345853
2.426539897918701	288969.79045962705
2.429293394088745	364825.86682598985
2.4320452213287354	452232.3842269446
2.4347951412200928	443552.1848519264
2.4375438690185547	418824.0256384372
2.440291166305542	460978.77128873474
2.443037271499634	478697.222214479
2.445782423019409	430456.8369760261
2.4485268592834473	414752.1292815259
2.451270818710327	492546.7655240655
2.454014539718628	608412.9040900964
2.4567582607269287	668118.0088944641
2.4595019817352295	692876.2101818552
2.4622461795806885	786737.5655820065
2.4649908542633057	920777.8171882966
2.4677364826202393	937827.1927253704
2.4704833030700684	770562.4961489991
2.473231554031372	522793.2641082697
2.4759814739227295	336022.29623547255
2.4787333011627197	238210.8416411042
