#wavelength	surface flux
0.6450077295303345	222583.05158908296
0.6472567915916443	348727.95186367485
0.6494921445846558	450813.35709387326
0.6517150402069092	511972.0521619638
0.6539263725280762	573787.9078354484
0.6561272740364075	638688.026869352
0.6583186388015747	706170.402597228
0.6605015397071838	774884.9963918908
0.6626768708229065	841831.0893775889
0.6648455858230591	895284.4436812673
0.6670085787773132	879890.8154141115
0.6691668033599854	731865.5254214425
0.6713210344314575	657103.8432359956
0.6734722256660461	889513.9992713259
0.6756211519241333	1208247.0003421067
0.6777685880661011	1401997.0372445937
0.6799154281616211	1529129.495691497
0.6820623278617859	1637766.6211759723
0.6842101216316223	1738790.4548460273
0.6863595843315125	1833916.9362190238
0.688511312007904	1920116.8508748182
0.6906660795211792	1992617.4209089102
0.6928245425224304	2059547.3073364506
0.6949873566627502	2139254.1233487073
0.6971551775932312	2223933.557368939
0.6993286609649658	2292790.272354271
0.7015084028244019	2347081.9973309995
0.7036949396133423	2388984.683799946
0.7058889269828796	2414979.3845083076
0.7080909013748169	2426167.77619364
0.710301399230957	2425444.673446897
0.712520956993103	2410844.4657401647
0.7147500514984131	2375597.428214597
0.7169892191886902	2319172.6724935146
0.7192389369010925	2245997.680645942
0.7214996814727783	2156076.7880348684
0.723771870136261	2050110.5218018845
0.7260559797286987	1931983.1906746733
0.7283523678779602	1801844.821215893
0.7306615710258484	1675465.1447055254
0.7329838871955872	1560376.117099869
0.7353196740150452	1425247.3674840813
0.7376693487167358	1265167.1856672224
0.7400332689285278	1101142.5676308905
0.7424117922782898	938521.351126597
0.7448052167892456	781343.4047578226
0.7472138404846191	630527.2052306979
0.7496379613876343	487321.5575670622
0.7520779371261597	356946.62588371907
0.7545340061187744	243560.8706227267
0.7570064663887024	150861.23117477613
0.7594954967498779	81755.57478658309
0.7620013952255249	36620.419864576754
0.7645244002342224	12472.093645591236
0.7670646905899048	3401.0302598262556
0.7696225643157959	3775.339012704183
0.7721980810165405	15751.909710658003
0.7747915983200073	48046.72964237509
0.7774031162261963	100910.91623805526
0.7800329327583313	186014.11340710035
0.7826811671257019	341556.28189068846
0.7853479981422424	561684.8413105682
0.7880334854125977	806615.1733742672
0.7907378077507019	969311.6736302854
0.7934610247612	980390.8039136706
0.7962033748626709	1283375.1815708326
0.7989648580551147	2030983.6796055508
0.801745593547821	2738007.9004745875
0.8045456409454346	3312304.6936032
0.8073651194572449	3885654.0276516313
0.8102040886878967	4473396.300930937
0.8130625486373901	5129442.6128506875
0.8159406185150146	5812877.546301798
0.8188382983207703	6536577.073325605
0.8217556476593018	7518655.650512826
0.8246926665306091	8621843.210612241
0.8276493549346924	9608752.128653813
0.8306257724761963	10663532.490378415
0.8336219191551208	11916590.84999187
0.8366377949714661	13184805.12983957
0.8396733403205872	14420579.231186803
0.8427285552024841	15763360.949417226
0.8458034992218018	16971718.163654134
0.8488980531692505	16827300.560012
0.8520121574401855	16250552.074539656
0.8551458716392517	18895829.450260706
0.8582990765571594	22207575.8401613
0.8614717125892639	21314070.805661466
0.8646637797355652	19729313.39896766
0.8678751587867737	20958456.496511847
0.8711057901382446	22729067.57181425
0.8743556141853333	24364259.024913754
0.87762451171875	26676007.985663135
0.8809124231338501	28777281.23933645
0.8842192888259888	30465398.48482396
0.8875449895858765	31331804.242188185
0.8908893465995789	30188740.145220026
0.894252359867096	29768214.235451072
0.8976338505744934	34629195.10093467
0.9010337591171265	43160102.9127775
0.9044519662857056	50609546.96784658
0.9078882932662964	55974845.21576607
0.9113426208496094	59887675.469595686
0.914814829826355	61920087.35904416
0.9183048605918884	63561079.54295826
0.9218124747276306	62900478.95928008
0.925337553024292	55656568.70873789
0.9288799166679382	49698521.93749038
0.9324395060539246	50846251.89865954
0.9360161423683167	54243529.15200794
0.9396095871925354	56216213.62747076
0.943219780921936	55630038.89751328
0.9468464851379395	52734274.708990045
0.9504896402359009	55925265.1958188
0.9541489481925964	68263888.69376788
0.9578243494033813	73442357.11999069
0.9615156054496765	64216547.1789796
0.9652225375175476	53935898.96003119
0.9689450263977051	60758446.49848037
0.9726828336715698	80224530.22383523
0.9764357805252075	89862815.2133388
0.9802037477493286	92141928.91352777
0.983986496925354	100256400.89619882
0.9877838492393494	103847933.81714287
0.9915955662727356	96440964.2043152
0.9954215884208679	87618281.74758092
0.9992615580558777	76955878.17138056
1.0031154155731201	68927555.97112794
1.0069829225540161	71994020.24361007
1.0108637809753418	82874156.7509345
1.0147579908370972	96011716.27813512
1.018665075302124	104916593.24743162
1.022585153579712	105876993.67846349
1.0265177488327026	106871821.51029794
1.0304628610610962	116694199.79584381
1.0344202518463135	130012992.88452406
1.0383895635604858	138911550.5021906
1.0423706769943237	143990185.12558803
1.0463634729385376	149336002.93825442
1.0503677129745483	154815082.29259565
1.0543830394744873	162661810.0457375
1.058409333229065	171980805.30649316
1.0624464750289917	178112160.69649535
1.0664942264556885	182777366.28242505
1.0705522298812866	188368522.79490802
1.0746204853057861	194639375.24922627
1.0786986351013184	199430090.19822487
1.0827864408493042	202395553.55679
1.086883783340454	194410558.86621696
1.0909905433654785	169353793.26273522
1.0951062440872192	144732163.27270266
1.0992310047149658	114339646.84421846
1.10336434841156	71852546.43401293
1.1075061559677124	49850498.995339826
1.1116561889648438	44799295.172601156
1.115814208984375	38241869.83667058
1.1199802160263062	38278552.9879131
1.124153733253479	41556940.085547306
1.1283347606658936	35851649.29768977
1.1325229406356812	27140533.748254705
1.1367181539535522	34631051.271567844
1.1409201622009277	55657454.021220185
1.145128846168518	69640392.55546302
1.1493438482284546	63607854.83899221
1.1535650491714478	48956781.013293125
1.1577922105789185	43229031.32932295
1.1620250940322876	43832432.89985345
1.1662636995315552	49836739.36555501
1.170507550239563	56797553.9071997
1.174756646156311	63309760.046280466
1.1790107488632202	78226471.94749688
1.1832695007324219	90905668.28674933
1.1875330209732056	91020884.85009937
1.191800832748413	106348224.85342771
1.1960728168487549	138052055.11183918
1.2003488540649414	154191854.4994173
1.2046287059783936	159828271.80561918
1.2089121341705322	163644128.525132
1.2131990194320679	170837766.16970274
1.2174891233444214	187819323.60996228
1.2217823266983032	201587040.87046725
1.2260783910751343	208549918.34591576
1.230377197265625	216043814.96524557
1.2346785068511963	219144073.74788788
1.238982081413269	207352170.6634441
1.2432878017425537	190584243.2879068
1.2475954294204712	184487580.59796035
1.2519049644470215	183948954.8257702
1.256216049194336	208791040.84373924
1.2605286836624146	240998928.80635083
1.2648425102233887	246115044.57102427
1.2691574096679688	253176580.8205249
1.2734732627868652	268435224.61164835
1.2777899503707886	267980848.13247406
1.2821072340011597	254267988.93251687
1.2864248752593994	249217443.59857255
1.2907428741455078	250341174.68895358
1.2950609922409058	245147513.50926557
1.2993791103363037	221546056.4011143
1.303696870803833	200281569.1736498
1.3080145120620728	199864892.45699772
1.3123314380645752	203305212.78770277
1.3166478872299194	202666614.1709243
1.3209635019302368	180663841.6667617
1.3252781629562378	144918450.09096006
1.3295916318893433	104552727.26258627
1.3339040279388428	52352823.026136935
1.3382149934768677	16907380.56459622
1.3425244092941284	8313073.877750049
1.3468321561813354	7361208.035047436
1.3511382341384888	6881337.842192116
1.3554422855377197	5476445.46146372
1.3597444295883179	6511005.483220324
1.3640443086624146	9430978.976762252
1.3683418035507202	8693421.596854564
1.3726370334625244	6906371.0046334965
1.3769296407699585	7925841.183966433
1.381219506263733	6976546.341012036
1.3855066299438477	4145314.4858818687
1.3897908926010132	4322084.3192817625
1.3940720558166504	6338869.790013835
1.3983501195907593	6064098.977791467
1.4026249647140503	5687231.442797228
1.4068963527679443	6934808.5280297715
1.4111642837524414	7664258.453594586
1.4154287576675415	7931970.824152804
1.419689416885376	7435414.937570946
1.4239463806152344	6899385.6309247175
1.4281994104385376	5718679.109961848
1.4324485063552856	4357623.793176161
1.436693549156189	5557411.351830545
1.440934419631958	8679618.464274855
1.4451709985733032	13514039.76695244
1.449403166770935	18798477.69263735
1.453631043434143	18741027.19048383
1.4578542709350586	16626387.93600852
1.4620729684829712	20268819.51260183
1.4662868976593018	24382298.578220975
1.4704961776733398	18993542.801449414
1.4747005701065063	11798966.056008864
1.4788999557495117	14701029.121635368
1.4830944538116455	23912937.30045929
1.4872838258743286	27275672.906287625
1.491468071937561	22759944.860508963
1.4956470727920532	22385694.616985444
1.4998208284378052	29296551.61704256
1.5039892196655273	32418308.664923806
1.5081522464752197	28300310.721057817
1.5123097896575928	29881157.537801195
1.5164618492126465	43448979.330161996
1.5206083059310913	57716361.20785144
1.5247491598129272	60704554.84799981
1.5288842916488647	59323793.72394106
1.5330137014389038	63973756.494615115
1.5371372699737549	67663906.57034287
1.541254997253418	66381182.66023313
1.545366883277893	69460895.80571228
1.5494728088378906	74226118.78807746
1.5535727739334106	76071587.21360993
1.5576666593551636	79936443.697175
1.561754584312439	86844450.7204024
1.5658363103866577	94318805.20648402
1.5699119567871094	97491580.22613032
1.5739814043045044	96889398.32418858
1.5780447721481323	99791925.05733636
1.582101821899414	106834723.11314484
1.5861525535583496	111942428.78354199
1.5901970863342285	110354994.611342
1.5942351818084717	104989617.77053921
1.5982669591903687	104675512.21308255
1.6022924184799194	105970784.76516838
1.606311559677124	102322586.18888366
1.6103241443634033	100966458.61048712
1.6143304109573364	99801725.27447508
1.6183301210403442	93643873.98448727
1.6223233938217163	89580903.77949014
1.6263102293014526	88565348.79692958
1.6302905082702637	89294423.24249274
1.634264349937439	93507660.60740755
1.638231635093689	99290759.67159835
1.6421923637390137	101237983.87936004
1.646146535873413	94402747.84399468
1.6500942707061768	86746421.21124595
1.6540353298187256	86469814.72159797
1.6579699516296387	86850437.69693884
1.661897897720337	81059665.64530611
1.6658192873001099	64068070.26274043
1.6697341203689575	52313854.26520886
1.6736423969268799	61428708.08610588
1.677544116973877	71410976.69723555
1.6814392805099487	71525840.24981916
1.6853278875350952	66800627.77571769
1.6892099380493164	59145273.2570634
1.6930854320526123	51544273.58903016
1.696954369544983	47664229.885613695
1.7008168697357178	47695437.2717746
1.7046726942062378	48100802.62066715
1.708522081375122	48938024.22365518
1.712364912033081	48184273.054181665
1.7162011861801147	46280889.26949064
1.7200311422348022	47440167.179744214
1.723854422569275	47777083.624949634
1.7276713848114014	43446998.358769774
1.731481909751892	36996435.43549897
1.7352858781814575	33879573.85690615
1.7390835285186768	35145285.93281671
1.7428747415542603	34937500.0287313
1.7466596364974976	29301401.341239538
1.7504380941390991	23899250.52999661
1.7542102336883545	24646470.21161617
1.7579760551452637	29948098.833479732
1.7617355585098267	37088567.69693942
1.7654887437820435	38864062.25157664
1.7692357301712036	30490830.263319578
1.7729763984680176	20580226.5665899
1.776710867881775	13847317.714077495
1.7804391384124756	11014735.577468852
1.7841613292694092	11170379.819629861
1.7878772020339966	11198592.101080889
1.7915871143341064	14874718.966171194
1.7952908277511597	19144342.861236908
1.7989884614944458	17800894.95295762
1.8026801347732544	13063773.567143606
1.806365728378296	9350787.350566095
1.8100452423095703	8293130.597766604
1.8137187957763672	7611175.033121908
1.817386507987976	6103136.251189023
1.8210482597351074	9720449.427873828
1.8247040510177612	16433127.444005089
1.828354001045227	15096760.29698978
1.8319982290267944	9062712.58936535
1.8356364965438843	9134232.799805393
1.8392690420150757	13225335.863008212
1.8428958654403687	14098831.34361292
1.8465168476104736	12295924.93220346
1.8501322269439697	10908604.522989647
1.8537418842315674	9459449.28744734
1.8573459386825562	8704871.16491046
1.860944390296936	7040761.824890496
1.864537239074707	3957363.8110055323
1.8681244850158691	2961026.182465071
1.871706247329712	5140757.748800476
1.8752825260162354	8315865.022774382
1.8788533210754395	9064019.736512572
1.8824186325073242	9132356.822123203
1.8859784603118896	12932663.665227748
1.8895330429077148	17170428.648742776
1.8930821418762207	14972149.9581007
1.8966259956359863	10981425.619648306
1.9001644849777222	9892096.584392259
1.9036977291107178	8420261.349690508
1.9072256088256836	10380030.528096667
1.9107483625411987	12868248.421174496
1.9142658710479736	9612144.17525189
1.9177782535552979	8264894.807065806
1.9212853908538818	7900954.842981369
1.9247875213623047	4155095.159557124
1.9282845258712769	2772754.263768755
1.9317764043807983	6413396.989125221
1.9352631568908691	12465655.901265895
1.9387450218200684	13287670.261827812
1.942221760749817	8202697.01048609
1.9456936120986938	4853267.063162639
1.9491604566574097	4493408.133265079
1.952622413635254	6224227.662390859
1.956079363822937	11439924.820674647
1.959531545639038	16202413.142671533
1.962978720664978	13858789.750529919
1.966421127319336	10022806.036511632
1.9698586463928223	11302290.593050139
1.9732913970947266	12671480.633462222
1.9767193794250488	12795944.526053008
1.9801424741744995	13620800.90813479
1.9835609197616577	13909523.938975668
1.9869745969772339	15913355.143573
1.990383505821228	17913455.34337114
1.9937876462936401	17235493.548541207
1.9971871376037598	14730894.828586109
2.000581979751587	12492204.967778282
2.003972291946411	14921374.223331058
2.007357597351074	18526903.937560838
2.0107386112213135	19836715.742538568
2.0141148567199707	19146889.409269
2.017486572265625	16764245.516449662
2.0208535194396973	17446401.416954376
2.0242159366607666	20537743.58777543
2.027573823928833	20931246.28169429
2.0309269428253174	20197403.4812632
2.034275770187378	22241020.90718402
2.0376198291778564	26955447.845673367
2.040959596633911	31181987.133207187
2.044294595718384	32553645.557135634
2.0476250648498535	32529043.0348388
2.0509510040283203	31027275.57089027
2.054272413253784	28340298.883636445
2.057589530944824	28976363.175190773
2.0609018802642822	32951417.426383354
2.0642096996307373	35851076.098302774
2.0675129890441895	36792720.37753878
2.0708119869232178	36840170.635764286
2.074106216430664	36357951.69634599
2.0773961544036865	36959633.547949106
2.080681324005127	38238711.39468778
2.0839622020721436	38332417.983927816
2.087238311767578	37465444.11611942
2.090510129928589	36759062.438226916
2.0937774181365967	37002991.42766423
2.0970399379730225	37276975.90826198
2.1002981662750244	36131823.14918088
2.1035518646240234	35063513.62341307
2.1068007946014404	35402198.40371143
2.1100454330444336	35821770.1280093
2.1132853031158447	35423289.65635407
2.116520881652832	34214732.88631846
2.1197516918182373	33052748.213918943
2.1229779720306396	32622075.441806
2.12619948387146	32239117.352978032
2.1294167041778564	31947687.576787896
2.132629156112671	32148652.92071749
2.1358368396759033	31521661.38110301
2.139039993286133	30198126.832128786
2.1422386169433594	29211784.871858764
2.145432472229004	28367131.94551261
2.1486217975616455	27642938.586728703
2.151806354522705	26726132.09708322
2.1549863815307617	26570369.2037214
2.1581614017486572	27401689.765540786
2.16133189201355	27826883.746004183
2.1644976139068604	27515664.074611284
2.167658567428589	26151493.822263196
2.1708147525787354	24512833.886637297
2.173966407775879	24063729.90220504
2.1771130561828613	24391567.97461634
2.1802549362182617	23996507.904850125
2.183391809463501	22546458.116106957
2.1865241527557373	21076136.337294877
2.1896514892578125	19935702.13680689
2.1927738189697266	18049821.73273245
2.1958916187286377	14530184.494507307
2.1990041732788086	10639858.233212959
2.2021119594573975	8526209.096547011
2.2052149772644043	8138831.239208451
2.208312749862671	8449754.07077836
2.2114057540893555	9692407.052708006
2.214493751525879	11094262.540073566
2.217576742172241	10874432.5069193
2.2206547260284424	9926056.108349452
2.2237277030944824	9106867.57455072
2.2267956733703613	7758967.79068566
2.2298583984375	6614584.396117429
2.2329163551330566	6354765.618887932
2.235969066619873	6700768.318784584
2.2390167713165283	6763610.247504722
2.2420592308044434	6126346.61985361
2.2450966835021973	5478654.9567931825
2.248128890991211	5319059.058727321
2.2511560916900635	5605609.517726482
2.254178285598755	6458353.081483582
2.257194995880127	7801411.859306632
2.260206699371338	7541213.174542035
2.2632133960723877	5219403.801203425
2.266214609146118	4234436.148804783
2.2692108154296875	5795990.287661836
2.2722020149230957	7337803.5546440855
2.2751877307891846	7184297.869744992
2.278168201446533	6543291.91066096
2.2811436653137207	6405800.631079292
2.284113883972168	6018271.101931567
2.287078857421875	5101807.88881569
2.290038824081421	4540308.146269718
2.2929933071136475	4629507.9521868415
2.295942783355713	4799540.929127385
2.298887014389038	5077054.939770286
2.301826238632202	5794742.159252465
2.304760217666626	6859727.134695925
2.3076889514923096	8299004.9050349835
2.310612440109253	10158933.61195783
2.3135311603546143	11557226.787608411
2.3164443969726562	10292076.505933847
2.319352865219116	6432289.090849067
2.322256088256836	3721697.3452710956
2.3251543045043945	3098475.7600180013
2.328047275543213	2944282.7407624437
2.330935478210449	2968721.1714458372
2.3338186740875244	2890031.3867347734
2.3366971015930176	2605673.127203498
2.3395702838897705	2402285.028352017
2.3424389362335205	2347230.3377054324
2.3453025817871094	2316274.922905184
2.348161458969116	2294931.72723863
2.351015567779541	2861424.1164070982
2.353865146636963	4588437.297869804
2.3567099571228027	6755657.448605639
2.3595502376556396	8059145.581005792
2.3623859882354736	7796716.808227132
2.3652172088623047	5974536.712693539
2.368043899536133	3706759.2222200497
2.370866537094116	2395844.86266926
2.3736846446990967	2323902.7020394485
2.3764986991882324	2595927.714847366
2.3793084621429443	2612157.880444409
2.3821144104003906	2725688.9049922084
2.384916305541992	3309764.5807521855
2.387714147567749	3977481.5514412792
2.3905084133148193	4079046.3860156653
2.393299102783203	3780671.9125808645
2.3960859775543213	3448339.2868928476
2.398869514465332	3450990.6014723154
2.4016497135162354	4148349.6835663095
2.4044265747070312	5326430.780854194
2.407200336456299	6151895.227386237
2.409970998764038	6092705.450145164
2.4127390384674072	5701631.745675242
2.415503978729248	5578840.728435982
2.418266534805298	5686129.268202924
2.4210267066955566	5740936.193939253
2.4237842559814453	5576995.0430815825
2.426539897918701	5673093.305245903
2.429293394088745	6539133.700598707
2.4320452213287354	7334148.043691805
2.4347951412200928	7039036.107607459
2.4375438690185547	6256082.12346522
2.440291166305542	5938330.760212611
2.443037271499634	5995171.075991564
2.445782423019409	6327114.134067514
2.4485268592834473	6887911.836139079
2.451270818710327	7004003.269203216
2.454014539718628	6717759.009811238
2.4567582607269287	6590659.494389969
2.4595019817352295	6613638.906988836
2.4622461795806885	7409610.255017228
2.4649908542633057	8439856.961303119
2.4677364826202393	7858921.625650595
2.4704833030700684	5838574.090955825
2.473231554031372	3871112.5375380716
2.4759814739227295	2741572.488203251
2.4787333011627197	2328513.375053967
2.481487512588501	2385709.096001663
2.4842441082000732	2789384.2375563304
