#wavelength	surface flux
0.6450077295303345	219122.79824962027
0.6472567915916443	343434.4873767386
0.6494921445846558	444255.25682580186
0.6517150402069092	504884.6052474918
0.6539263725280762	566219.0473682622
0.6561272740364075	630648.9565932641
0.6583186388015747	697674.8093834178
0.6605015397071838	765949.264550965
0.6626768708229065	832496.038892309
0.6648455858230591	885720.9962423835
0.6670085787773132	870779.8161703247
0.6691668033599854	724406.1548163865
0.6713210344314575	650589.8232458055
0.6734722256660461	881157.3159497954
0.6756211519241333	1197278.2247017077
0.6777685880661011	1389577.0019453682
0.6799154281616211	1515911.418575967
0.6820623278617859	1623942.8199258072
0.6842101216316223	1724417.1018855413
0.6863595843315125	1819028.0372455872
0.688511312007904	1904801.106835775
0.6906660795211792	1977024.1649800006
0.6928245425224304	2043704.3815825414
0.6949873566627502	2122943.118961862
0.6971551775932312	2207032.258787119
0.6993286609649658	2275419.1733432696
0.7015084028244019	2329312.0569187887
0.7036949396133423	2370855.928040708
0.7058889269828796	2396578.18368016
0.7080909013748169	2407555.4981948724
0.710301399230957	2406623.445540822
0.712520956993103	2391828.5450147605
0.7147500514984131	2356500.0677251923
0.7169892191886902	2300114.3325602002
0.7192389369010925	2227028.4991848725
0.7214996814727783	2137247.699793595
0.723771870136261	2031538.773842701
0.7260559797286987	1913756.1124445875
0.7283523678779602	1783977.754131205
0.7306615710258484	1657656.8651623456
0.7329838871955872	1542238.9299578923
0.7353196740150452	1407090.417723102
0.7376693487167358	1247484.4158267973
0.7400332689285278	1084093.949659102
0.7424117922782898	922200.554489936
0.7448052167892456	765823.6730602892
0.7472138404846191	616007.5325474605
0.7496379613876343	474129.21477252897
0.7520779371261597	345439.05460782384
0.7545340061187744	234134.1701646427
0.7570064663887024	143876.23861206815
0.7594954967498779	77358.68451536448
0.7620013952255249	34491.58022337217
0.7645244002342224	11781.187722984188
0.7670646905899048	3259.8763788574825
0.7696225643157959	3611.159690422885
0.7721980810165405	14879.117380772535
0.7747915983200073	45299.88437143574
0.7774031162261963	95448.19825610452
0.7800329327583313	177409.8932720551
0.7826811671257019	328842.20427277253
0.7853479981422424	544524.1918869802
0.7880334854125977	785836.5375147952
0.7907378077507019	946921.9014175008
0.7934610247612	959204.6598983158
0.7962033748626709	1260399.581530028
0.7989648580551147	2001422.212107454
0.801745593547821	2703509.5956688384
0.8045456409454346	3275346.17655166
0.8073651194572449	3846914.0865732133
0.8102040886878967	4433460.219857437
0.8130625486373901	5087927.611922709
0.8159406185150146	5769556.838906969
0.8188382983207703	6491584.086006126
0.8217556476593018	7470612.011753005
0.8246926665306091	8570689.938166512
0.8276493549346924	9556422.563959
0.8306257724761963	10609810.235043595
0.8336219191551208	11859795.472485103
0.8366377949714661	13125614.298501957
0.8396733403205872	14360153.975722961
0.8427285552024841	15700965.884982655
0.8458034992218018	16907581.44354309
0.8488980531692505	16764837.338693302
0.8520121574401855	16190555.01652013
0.8551458716392517	18831945.002106007
0.8582990765571594	22140685.125806987
0.8614717125892639	21256670.24966902
0.8646637797355652	19682360.117815983
0.8678751587867737	20911980.28285091
0.8711057901382446	22681010.545143764
0.8743556141853333	24314842.685567014
0.87762451171875	26623817.561950095
0.8809124231338501	28726041.43031001
0.8842192888259888	30419284.16861106
0.8875449895858765	31291424.301176213
0.8908893465995789	30151778.668659803
0.894252359867096	29732316.896515198
0.8976338505744934	34591997.82141623
0.9010337591171265	43112224.55307624
0.9044519662857056	50546930.61277035
0.9078882932662964	55904099.48954386
0.9113426208496094	59817233.74714461
0.914814829826355	61858536.09843481
0.9183048605918884	63508197.57614232
0.9218124747276306	62864543.54339219
0.925337553024292	55656535.96434001
0.9288799166679382	49715147.08094991
0.9324395060539246	50860699.068434134
0.9360161423683167	54271003.57037746
0.9396095871925354	56264785.43005372
0.943219780921936	55686380.21378661
0.9468464851379395	52794313.56501335
0.9504896402359009	55982547.97495087
0.9541489481925964	68300368.28788677
0.9578243494033813	73485310.94625382
0.9615156054496765	64296271.696408875
0.9652225375175476	54040999.76611524
0.9689450263977051	60850629.59837884
0.9726828336715698	80277792.70283513
0.9764357805252075	89902069.6108012
0.9802037477493286	92181625.14031464
0.983986496925354	100272965.43699852
0.9877838492393494	103843652.68666016
0.9915955662727356	96439134.269659
0.9954215884208679	87622205.85140856
0.9992615580558777	76969286.11593339
1.0031154155731201	68954448.82895947
1.0069829225540161	72019784.66025138
1.0108637809753418	82883348.82472403
1.0147579908370972	96001882.14415284
1.018665075302124	104896868.64923456
1.022585153579712	105859659.33494318
1.0265177488327026	106856144.01375374
1.0304628610610962	116667213.5201008
1.0344202518463135	129970476.33464207
1.0383895635604858	138860512.6648638
1.0423706769943237	143935485.64385182
1.0463634729385376	149274279.6764122
1.0503677129745483	154745140.55492246
1.0543830394744873	162586925.30256724
1.058409333229065	171900843.4713504
1.0624464750289917	178028167.7847672
1.0664942264556885	182692906.0542554
1.0705522298812866	188283360.5713512
1.0746204853057861	194551522.89459878
1.0786986351013184	199342147.44128147
1.0827864408493042	202306171.78983733
1.086883783340454	194345525.0241958
1.0909905433654785	169358155.66583854
1.0951062440872192	144789162.15872684
1.0992310047149658	114431255.70224383
1.10336434841156	71990910.46273583
1.1075061559677124	49992151.68743272
1.1116561889648438	44921015.266285755
1.115814208984375	38384257.39477926
1.1199802160263062	38455538.512931965
1.124153733253479	41755571.05735578
1.1283347606658936	36053115.15179961
1.1325229406356812	27315046.911945783
1.1367181539535522	34777519.20769872
1.1409201622009277	55793227.24305659
1.145128846168518	69794304.53486818
1.1493438482284546	63801534.909794554
1.1535650491714478	49171310.87685618
1.1577922105789185	43455512.879885614
1.1620250940322876	44070796.11001247
1.1662636995315552	50063900.9222053
1.170507550239563	56995940.670947194
1.174756646156311	63473209.537705265
1.1790107488632202	78357907.23879366
1.1832695007324219	91052828.27300777
1.1875330209732056	91211955.47241576
1.191800832748413	106523948.65591888
1.1960728168487549	138164139.4511369
1.2003488540649414	154259961.88233495
1.2046287059783936	159877336.7863277
1.2089121341705322	163693106.3548059
1.2131990194320679	170884218.35173112
1.2174891233444214	187838110.83650059
1.2217823266983032	201583496.54582146
1.2260783910751343	208536739.35594246
1.230377197265625	216016887.2202626
1.2346785068511963	219109308.2713268
1.238982081413269	207319919.20230433
1.2432878017425537	190552378.6807837
1.2475954294204712	184452946.54353103
1.2519049644470215	183911770.50071245
1.256216049194336	208734805.40766558
1.2605286836624146	240944098.40425256
1.2648425102233887	246096512.30513957
1.2691574096679688	253154315.33928302
1.2734732627868652	268380441.96071306
1.2777899503707886	267956440.04203677
1.2821072340011597	254311174.51667854
1.2864248752593994	249270563.1817106
1.2907428741455078	250382711.9620103
1.2950609922409058	245209131.64209747
1.2993791103363037	221687468.70777303
1.303696870803833	200501845.63941982
1.3080145120620728	200100671.3202784
1.3123314380645752	203526898.15478346
1.3166478872299194	202853327.44279957
1.3209635019302368	180860440.9265713
1.3252781629562378	145156055.57938462
1.3295916318893433	104779450.83163568
1.3339040279388428	52514511.6250577
1.3382149934768677	16999011.923881724
1.3425244092941284	8373155.451624482
1.3468321561813354	7420695.99637186
1.3511382341384888	6939528.333076779
1.3554422855377197	5526767.180807635
1.3597444295883179	6571334.626014113
1.3640443086624146	9511473.181293737
1.3683418035507202	8773693.318998015
1.3726370334625244	6988222.180111804
1.3769296407699585	8020357.685336493
1.381219506263733	7052464.786940292
1.3855066299438477	4191361.207204073
1.3897908926010132	4361662.635482409
1.3940720558166504	6377347.815911202
1.3983501195907593	6104833.771729032
1.4026249647140503	5743040.8842758015
1.4068963527679443	7001901.912448235
1.4111642837524414	7727595.080344149
1.4154287576675415	7993304.620041283
1.419689416885376	7495539.435999381
1.4239463806152344	6951574.708008016
1.4281994104385376	5767032.075214513
1.4324485063552856	4404433.171184106
1.436693549156189	5607892.916645451
1.440934419631958	8740302.971606692
1.4451709985733032	13594617.259280382
1.449403166770935	18906946.2852894
1.453631043434143	18861371.85067187
1.4578542709350586	16747511.316079354
1.4620729684829712	20383693.988233846
1.4662868976593018	24470403.31487828
1.4704961776733398	19062294.001805566
1.4747005701065063	11872563.404884474
1.4788999557495117	14768346.192358779
1.4830944538116455	23948017.577307317
1.4872838258743286	27295397.797059137
1.491468071937561	22790271.786206096
1.4956470727920532	22426523.736850083
1.4998208284378052	29357185.78470143
1.5039892196655273	32510663.594630435
1.5081522464752197	28398073.272160217
1.5123097896575928	29914751.050340164
1.5164618492126465	43355998.58687296
1.5206083059310913	57552804.75402162
1.5247491598129272	60620713.311009355
1.5288842916488647	59326863.41408884
1.5330137014389038	63911166.3440389
1.5371372699737549	67518423.21570064
1.541254997253418	66250906.71093964
1.545366883277893	69294259.41795473
1.5494728088378906	74007354.57466087
1.5535727739334106	75914408.39128233
1.5576666593551636	79847009.6594384
1.561754584312439	86772570.53162959
1.5658363103866577	94269789.41046488
1.5699119567871094	97458764.18536086
1.5739814043045044	96864112.84888771
1.5780447721481323	99781028.22179364
1.582101821899414	106811413.60326378
1.5861525535583496	111886505.18775445
1.5901970863342285	110301656.74762191
1.5942351818084717	104950837.79567562
1.5982669591903687	104630123.70236988
1.6022924184799194	105960107.63909484
1.606311559677124	102366810.54991603
1.6103241443634033	101030774.90991965
1.6143304109573364	99930172.7196149
1.6183301210403442	93881020.97921403
1.6223233938217163	89894328.03592406
1.6263102293014526	88924688.28985046
1.6302905082702637	89642037.95297398
1.634264349937439	93761910.60147165
1.638231635093689	99439997.30303755
1.6421923637390137	101375896.28207913
1.646146535873413	94684104.03390235
1.6500942707061768	87127934.75217873
1.6540353298187256	86769242.36536273
1.6579699516296387	87077183.28058897
1.661897897720337	81314667.54442872
1.6658192873001099	64458999.530101165
1.6697341203689575	52846236.08675629
1.6736423969268799	61966689.24904876
1.677544116973877	71920868.2769773
1.6814392805099487	72027176.72440465
1.6853278875350952	67308411.87490514
1.6892099380493164	59659205.131163076
1.6930854320526123	52032948.441630125
1.696954369544983	48169667.33824707
1.7008168697357178	48248183.89633159
1.7046726942062378	48646625.09967832
1.708522081375122	49400706.78127601
1.712364912033081	48573298.372080475
1.7162011861801147	46661255.999069296
1.7200311422348022	47795571.57424321
1.723854422569275	48100973.490717165
1.7276713848114014	43770792.61328001
1.731481909751892	37295603.806403466
1.7352858781814575	34137285.70300029
1.7390835285186768	35375755.046619296
1.7428747415542603	35141012.57641512
1.7466596364974976	29475223.281072333
1.7504380941390991	24055463.719672598
1.7542102336883545	24791294.24177279
1.7579760551452637	30086383.757387836
1.7617355585098267	37220573.943017155
1.7654887437820435	38989549.934930995
1.7692357301712036	30609587.998001624
1.7729763984680176	20676953.912840378
1.776710867881775	13921801.606369024
1.7804391384124756	11087271.577311372
1.7841613292694092	11244968.914577981
1.7878772020339966	11272417.76286408
1.7915871143341064	14959525.674577532
1.7952908277511597	19232680.792149466
1.7989884614944458	17870584.55034316
1.8026801347732544	13111063.100113206
1.806365728378296	9386062.879814085
1.8100452423095703	8320408.855315866
1.8137187957763672	7629900.700652435
1.817386507987976	6118719.7241402455
1.8210482597351074	9725888.328945518
1.8247040510177612	16420160.429601619
1.828354001045227	15095040.83866998
1.8319982290267944	9088403.34459126
1.8356364965438843	9164383.918963026
1.8392690420150757	13255282.385587554
1.8428958654403687	14144299.249930562
1.8465168476104736	12351875.72956519
1.8501322269439697	10954313.129990468
1.8537418842315674	9492081.869354298
1.8573459386825562	8733263.738071457
1.860944390296936	7065349.394362977
1.864537239074707	3975901.8601294337
1.8681244850158691	2977001.8398699434
1.871706247329712	5160777.610563782
1.8752825260162354	8345438.871028389
1.8788533210754395	9103756.46853048
1.8824186325073242	9170353.318393458
1.8859784603118896	12941781.814918492
1.8895330429077148	17156925.298751455
1.8930821418762207	14975182.83228575
1.8966259956359863	10992496.476510717
1.9001644849777222	9883805.73349283
1.9036977291107178	8406904.387596147
1.9072256088256836	10368126.80371851
1.9107483625411987	12852941.216423245
1.9142658710479736	9604041.861537723
1.9177782535552979	8261730.984518914
1.9212853908538818	7897500.981832025
1.9247875213623047	4155770.232557879
1.9282845258712769	2774843.4546884913
1.9317764043807983	6382191.634460964
1.9352631568908691	12365460.52810292
1.9387450218200684	13184771.55281579
1.942221760749817	8172828.393419295
1.9456936120986938	4864447.350771581
1.9491604566574097	4502061.933789632
1.952622413635254	6192562.546694159
1.956079363822937	11292950.838656122
1.959531545639038	15988957.838266429
1.962978720664978	13741927.889608283
1.966421127319336	9995864.001601143
1.9698586463928223	11256854.373691427
1.9732913970947266	12603763.956205368
1.9767193794250488	12732131.618562186
1.9801424741744995	13569132.870488923
1.9835609197616577	13862040.195274306
1.9869745969772339	15819622.107880753
1.990383505821228	17792254.42300523
1.9937876462936401	17137226.89170911
1.9971871376037598	14646911.498908497
2.000581979751587	12417311.220946558
2.003972291946411	14836705.884795086
2.007357597351074	18445496.806994047
2.0107386112213135	19781178.675294697
2.0141148567199707	19108273.440533567
2.017486572265625	16709287.462915858
2.0208535194396973	17221382.923690226
2.0242159366607666	20107715.488390993
2.027573823928833	20547065.869341835
2.0309269428253174	19960363.812884603
2.034275770187378	22051821.810163945
2.0376198291778564	26751235.38762824
2.040959596633911	30923172.439263325
2.044294595718384	32267163.3242199
2.0476250648498535	32242746.361106437
2.0509510040283203	30772563.839554276
2.054272413253784	28151218.784423485
2.057589530944824	28779222.0672397
2.0609018802642822	32662482.238012742
2.0642096996307373	35490320.4401218
2.0675129890441895	36402662.7153474
2.0708119869232178	36440759.97781175
2.074106216430664	35967122.46810654
2.0773961544036865	36553611.25376805
2.080681324005127	37798699.02867339
2.0839622020721436	37889152.07538392
2.087238311767578	37045341.77191136
2.090510129928589	36357272.379175335
2.0937774181365967	36596241.289638765
2.0970399379730225	36868277.31477699
2.1002981662750244	35752646.38026798
2.1035518646240234	34707077.21233165
2.1068007946014404	35035521.32509269
2.1100454330444336	35443359.66131716
2.1132853031158447	35065462.51133067
2.116520881652832	33912984.6482713
2.1197516918182373	32797767.353067327
2.1229779720306396	32381031.50381037
2.12619948387146	32008169.24530578
2.1294167041778564	31719386.582815662
2.132629156112671	31905920.23488267
2.1358368396759033	31297986.755547393
2.139039993286133	30015161.741169844
2.1422386169433594	29059710.686160777
2.145432472229004	28250233.3412336
2.1486217975616455	27550667.401997447
2.151806354522705	26654981.145611756
2.1549863815307617	26496114.449887805
2.1581614017486572	27294776.004387747
2.16133189201355	27704131.505409125
2.1644976139068604	27402424.37609866
2.167658567428589	26079928.626667216
2.1708147525787354	24484748.62798177
2.173966407775879	24033107.837923605
2.1771130561828613	24337727.73361374
2.1802549362182617	23949367.435292654
2.183391809463501	22524735.75619904
2.1865241527557373	21068500.011052065
2.1896514892578125	19957633.555515554
2.1927738189697266	18127882.942665033
2.1958916187286377	14667543.995247722
2.1990041732788086	10825546.256340573
2.2021119594573975	8735242.629806502
2.2052149772644043	8346750.015790752
2.208312749862671	8651469.226038454
2.2114057540893555	9892186.689389138
2.214493751525879	11291126.561974484
2.217576742172241	11059233.6464607
2.2206547260284424	10085308.178934267
2.2237277030944824	9250700.899446737
2.2267956733703613	7914450.24841294
2.2298583984375	6786026.971937049
2.2329163551330566	6532691.106138727
2.235969066619873	6882138.532369135
2.2390167713165283	6944629.415547416
2.2420592308044434	6300938.735810864
2.2450966835021973	5644293.633219423
2.248128890991211	5480130.120026754
2.2511560916900635	5771659.625882947
2.254178285598755	6632697.732435379
2.257194995880127	7974702.304987534
2.260206699371338	7695166.433119797
2.2632133960723877	5347133.208341569
2.266214609146118	4356047.461066416
2.2692108154296875	5940209.611896074
2.2722020149230957	7506585.018357512
2.2751877307891846	7358628.988968509
2.278168201446533	6715056.6080296235
2.2811436653137207	6576261.3933128975
2.284113883972168	6181871.263346224
2.287078857421875	5250802.029239376
2.290038824081421	4680871.35029161
2.2929933071136475	4770005.054759866
2.295942783355713	4933503.497139322
2.298887014389038	5200275.740090245
2.301826238632202	5888704.472379296
2.304760217666626	6858586.400773836
2.3076889514923096	8217842.058697053
2.310612440109253	10138507.803918976
2.3135311603546143	11642037.736725347
2.3164443969726562	10404246.186576953
2.319352865219116	6524742.959000587
2.322256088256836	3780933.7461967804
2.3251543045043945	3110405.9893331826
2.328047275543213	2937280.3486051904
2.330935478210449	3001453.123951438
2.3338186740875244	2962835.5444176416
2.3366971015930176	2680801.0522875166
2.3395702838897705	2466963.403882901
2.3424389362335205	2408957.7116766847
2.3453025817871094	2382061.5379402786
2.348161458969116	2364807.958424614
2.351015567779541	2945755.609394698
2.353865146636963	4706310.0444471445
2.3567099571228027	6906523.751940286
2.3595502376556396	8217814.745409219
2.3623859882354736	7938462.407700239
2.3652172088623047	6090112.716934445
2.368043899536133	3792994.4806926087
2.370866537094116	2461281.849331401
2.3736846446990967	2394426.927957894
2.3764986991882324	2678979.7995880465
2.3793084621429443	2687425.109719928
2.3821144104003906	2775530.081884165
2.384916305541992	3355593.553966411
2.387714147567749	4058009.0051596416
2.3905084133148193	4188487.428590817
2.393299102783203	3891718.0163521003
2.3960859775543213	3548994.5681738458
2.398869514465332	3544888.7732813125
2.4016497135162354	4248810.842451655
2.4044265747070312	5442893.55877411
2.407200336456299	6268782.922504605
2.409970998764038	6163306.512073251
2.4127390384674072	5702415.517908527
2.415503978729248	5543029.381320994
2.418266534805298	5653437.391558934
2.4210267066955566	5733803.653702021
2.4237842559814453	5616282.9607696
2.426539897918701	5748385.491761249
2.429293394088745	6599992.54291255
2.4320452213287354	7364957.386716056
2.4347951412200928	7076877.6137533
2.4375438690185547	6316431.641975338
2.440291166305542	6006576.172502294
2.443037271499634	6066888.734828009
2.445782423019409	6409671.465667982
2.4485268592834473	6979581.140295047
2.451270818710327	7086147.021462615
2.454014539718628	6784730.655618716
2.4567582607269287	6656111.949225137
2.4595019817352295	6678177.114066475
2.4622461795806885	7474999.587715076
2.4649908542633057	8508607.21260753
2.4677364826202393	7914264.822021034
2.4704833030700684	5870017.938011136
2.473231554031372	3885688.9085353133
2.4759814739227295	2748902.751985824
2.4787333011627197	2333635.104863254
2.481487512588501	2391950.5363006666
