#wavelength	surface flux
0.6450077295303345	51918.253413913764
0.6472567915916443	78465.55426428304
0.6494921445846558	95039.9433204062
0.6517150402069092	100027.31474172867
0.6539263725280762	104301.01712968852
0.6561272740364075	108513.87857656855
0.6583186388015747	112818.52859942456
0.6605015397071838	117300.9915558128
0.6626768708229065	121869.34337700604
0.6648455858230591	126385.03367609579
0.6670085787773132	129128.59028376616
0.6691668033599854	126706.50670815102
0.6713210344314575	127099.18945381022
0.6734722256660461	138276.78723636403
0.6756211519241333	149826.250599832
0.6777685880661011	156281.22002342393
0.6799154281616211	161707.81306177497
0.6820623278617859	167164.61528982682
0.6842101216316223	172771.34405232014
0.6863595843315125	178419.84280250355
0.688511312007904	183897.5167022502
0.6906660795211792	188682.25359247279
0.6928245425224304	193559.22718848634
0.6949873566627502	200193.82889128328
0.6971551775932312	207468.59900592823
0.6993286609649658	213888.59667458196
0.7015084028244019	219952.6272859666
0.7036949396133423	226525.4789232789
0.7058889269828796	233611.14175871585
0.7080909013748169	240451.47324762124
0.710301399230957	247281.6487877402
0.712520956993103	254228.94603959768
0.7147500514984131	259999.79919276055
0.7169892191886902	264808.68674571346
0.7192389369010925	271192.98174579366
0.7214996814727783	278406.10026336095
0.723771870136261	284454.85345912783
0.7260559797286987	290194.51319534343
0.7283523678779602	296075.4306648677
0.7306615710258484	302661.6793269571
0.7329838871955872	310465.4394347595
0.7353196740150452	317799.74325775803
0.7376693487167358	324216.8021824445
0.7400332689285278	329737.9366148951
0.7424117922782898	333045.49026384356
0.7448052167892456	334271.5309498135
0.7472138404846191	332579.0130873648
0.7496379613876343	325635.831606811
0.7520779371261597	310863.3126466482
0.7545340061187744	284624.007978351
0.7570064663887024	242570.18455634156
0.7594954967498779	181876.95144113954
0.7620013952255249	108470.11482129857
0.7645244002342224	44347.62176556373
0.7670646905899048	11670.770571343837
0.7696225643157959	13421.620617558225
0.7721980810165405	55376.967968910605
0.7747915983200073	139126.11068094056
0.7774031162261963	230807.06700659974
0.7800329327583313	308455.79846619855
0.7826811671257019	387316.740824107
0.7853479981422424	460280.2215440641
0.7880334854125977	511117.3152850659
0.7907378077507019	521223.3977862186
0.7934610247612	474679.2355720964
0.7962033748626709	489688.67648081126
0.7989648580551147	599864.8443496696
0.801745593547821	675056.0837032176
0.8045456409454346	704058.182337919
0.8073651194572449	726203.9940184357
0.8102040886878967	742184.3316157456
0.8130625486373901	761052.9408957545
0.8159406185150146	791686.4616401946
0.8188382983207703	823910.2602535329
0.8217556476593018	849108.7051332343
0.8246926665306091	874473.2048999255
0.8276493549346924	900971.1914236
0.8306257724761963	925047.6646767273
0.8336219191551208	950019.0879476477
0.8366377949714661	974877.8311679545
0.8396733403205872	1004682.7917655549
0.8427285552024841	1044024.4355021159
0.8458034992218018	1082734.7584601254
0.8488980531692505	1115466.8725606687
0.8520121574401855	1147029.2342773906
0.8551458716392517	1183355.5979637974
0.8582990765571594	1219387.1356738305
0.8614717125892639	1247060.3700138163
0.8646637797355652	1275463.0045219187
0.8678751587867737	1312735.9140051298
0.8711057901382446	1352327.7983749418
0.8743556141853333	1387529.8746364024
0.87762451171875	1417161.4496765495
0.8809124231338501	1446042.0916009366
0.8842192888259888	1478062.3523759244
0.8875449895858765	1505325.7460046625
0.8908893465995789	1515483.5537748183
0.894252359867096	1526453.4405338897
0.8976338505744934	1577748.797513359
0.9010337591171265	1657490.007721761
0.9044519662857056	1726283.206003256
0.9078882932662964	1779073.0893978928
0.9113426208496094	1822558.760844162
0.914814829826355	1848694.4819328813
0.9183048605918884	1877145.1001972363
0.9218124747276306	1903078.8060447234
0.925337553024292	1803396.4039056085
0.9288799166679382	1588712.7846497633
0.9324395060539246	1500641.4494249863
0.9360161423683167	1605651.1846722532
0.9396095871925354	1751084.1590930843
0.943219780921936	1769715.0629786937
0.9468464851379395	1726837.0634668525
0.9504896402359009	1788029.195191877
0.9541489481925964	1904565.4005777503
0.9578243494033813	1938008.6804991746
0.9615156054496765	1864596.6682080866
0.9652225375175476	1848786.7631405194
0.9689450263977051	1999659.4599021713
0.9726828336715698	2255277.557247637
0.9764357805252075	2445602.454385202
0.9802037477493286	2552150.859420282
0.983986496925354	2660253.6271954137
0.9877838492393494	2780501.2448708587
0.9915955662727356	2912151.169011466
0.9954215884208679	3029975.0260103345
0.9992615580558777	3126074.175591941
1.0031154155731201	3211567.7108565075
1.0069829225540161	3307273.8573825117
1.0108637809753418	3416765.735151216
1.0147579908370972	3527037.077008462
1.018665075302124	3620648.951994809
1.022585153579712	3679869.7428752356
1.0265177488327026	3716745.11223678
1.0304628610610962	3784276.819365752
1.0344202518463135	3914537.6050662585
1.0383895635604858	4046076.784395018
1.0423706769943237	4141295.8359592524
1.0463634729385376	4219762.205546515
1.0503677129745483	4292809.3178643575
1.0543830394744873	4383374.352779513
1.058409333229065	4484681.29878772
1.0624464750289917	4576101.728223471
1.0664942264556885	4657290.270195959
1.0705522298812866	4735339.024149105
1.0746204853057861	4823190.86569769
1.0786986351013184	4917672.559721763
1.0827864408493042	5004477.027516805
1.086883783340454	5056304.969733839
1.0909905433654785	5053907.710907555
1.0951062440872192	4961993.728456821
1.0992310047149658	4535732.050941813
1.10336434841156	3868416.4677841896
1.1075061559677124	3604667.0959260706
1.1116561889648438	3548800.109139463
1.115814208984375	3275318.331824004
1.1199802160263062	3064670.1586306943
1.124153733253479	3156568.7760523465
1.1283347606658936	3315298.6705799545
1.1325229406356812	3171740.796749525
1.1367181539535522	3348603.4879235784
1.1409201622009277	3991950.503409042
1.145128846168518	4361350.312845856
1.1493438482284546	3916662.7527179974
1.1535650491714478	2944549.8228283147
1.1577922105789185	2608194.714617019
1.1620250940322876	3110581.4762656605
1.1662636995315552	3872166.4147654935
1.170507550239563	4419305.516847946
1.174756646156311	4986597.482087273
1.1790107488632202	5757338.273375995
1.1832695007324219	6334161.925687244
1.1875330209732056	6664141.246562489
1.191800832748413	6969540.927038283
1.1960728168487549	7322612.291334837
1.2003488540649414	7566430.041204287
1.2046287059783936	7702403.910642869
1.2089121341705322	7845958.933802595
1.2131990194320679	8022525.778191264
1.2174891233444214	8221355.925254106
1.2217823266983032	8419706.930171331
1.2260783910751343	8597958.061741054
1.230377197265625	8748498.768487902
1.2346785068511963	8882334.908820616
1.238982081413269	9031116.522419944
1.2432878017425537	9173382.41226895
1.2475954294204712	9284623.735546097
1.2519049644470215	9388871.22324339
1.256216049194336	9523200.53816168
1.2605286836624146	9641668.337422648
1.2648425102233887	9719409.739173679
1.2691574096679688	9794970.291116435
1.2734732627868652	9887194.184238384
1.2777899503707886	9979820.224528302
1.2821072340011597	10037047.945508005
1.2864248752593994	10022932.13014043
1.2907428741455078	9942561.314202713
1.2950609922409058	9949806.641255083
1.2993791103363037	9979805.566999344
1.303696870803833	9898374.759185027
1.3080145120620728	9872031.87505489
1.3123314380645752	9996838.583350698
1.3166478872299194	10214975.609069
1.3209635019302368	10072562.025044145
1.3252781629562378	9270485.332387013
1.3295916318893433	7655954.988296116
1.3339040279388428	5076869.540848193
1.3382149934768677	2496773.0435220045
1.3425244092941284	1244078.5306591184
1.3468321561813354	1120789.8975015893
1.3511382341384888	910822.8968647672
1.3554422855377197	587495.4645604456
1.3597444295883179	506543.1047181097
1.3640443086624146	540292.4538335957
1.3683418035507202	736964.488452979
1.3726370334625244	1405794.2256850807
1.3769296407699585	2133123.817548363
1.381219506263733	1687629.569792565
1.3855066299438477	688515.5426801543
1.3897908926010132	355120.3001608927
1.3940720558166504	430557.16300058435
1.3983501195907593	622014.4131815898
1.4026249647140503	1100730.9543777767
1.4068963527679443	1460813.786497841
1.4111642837524414	1119368.7592716133
1.4154287576675415	801369.6743016426
1.419689416885376	786647.8993625134
1.4239463806152344	751248.4099966605
1.4281994104385376	970802.3525415111
1.4324485063552856	1217837.9338220167
1.436693549156189	1311235.9846347861
1.440934419631958	1596761.6478195305
1.4451709985733032	2411457.244970813
1.449403166770935	3726395.2713731052
1.453631043434143	4638192.244996442
1.4578542709350586	5058011.106570242
1.4620729684829712	5554058.159447815
1.4662868976593018	5595610.548949855
1.4704961776733398	5113537.332944412
1.4747005701065063	4861383.916772753
1.4788999557495117	5177621.143625831
1.4830944538116455	6295956.11851768
1.4872838258743286	7567037.566017837
1.491468071937561	7963354.05021564
1.4956470727920532	7847257.513781153
1.4998208284378052	8344128.190316374
1.5039892196655273	9161904.500194492
1.5081522464752197	9393174.96979449
1.5123097896575928	9738082.172493165
1.5164618492126465	10707085.459587129
1.5206083059310913	11999068.861517329
1.5247491598129272	12924233.662904441
1.5288842916488647	13125698.771862812
1.5330137014389038	13450417.758522386
1.5371372699737549	14000276.566847812
1.541254997253418	14219248.306763805
1.545366883277893	14463967.411798038
1.5494728088378906	14922980.778650224
1.5535727739334106	15157829.34846131
1.5576666593551636	15025222.324128125
1.561754584312439	15156336.506878603
1.5658363103866577	15820285.291193096
1.5699119567871094	16248708.953700706
1.5739814043045044	15890469.926474815
1.5780447721481323	15198516.425895752
1.582101821899414	15498268.92837074
1.5861525535583496	16654793.05106672
1.5901970863342285	17172554.948182583
1.5942351818084717	16967209.48124491
1.5982669591903687	16601758.959605709
1.6022924184799194	16456408.989210995
1.606311559677124	16608645.620685076
1.6103241443634033	16583614.891558714
1.6143304109573364	16263205.521457758
1.6183301210403442	15847418.77433641
1.6223233938217163	15367209.238014214
1.6263102293014526	14814775.78072161
1.6302905082702637	14243590.582850082
1.634264349937439	14738659.640534986
1.638231635093689	16473092.198351324
1.6421923637390137	17381624.94196225
1.646146535873413	16570975.706678456
1.6500942707061768	15654073.348128354
1.6540353298187256	16104732.997099042
1.6579699516296387	16819935.18126991
1.661897897720337	15992687.658434827
1.6658192873001099	13442343.123004057
1.6697341203689575	12417770.528359752
1.6736423969268799	14417817.206531314
1.677544116973877	15729571.433727322
1.6814392805099487	15491876.39354564
1.6853278875350952	15210294.215203056
1.6892099380493164	14633843.538676329
1.6930854320526123	13295218.077952802
1.696954369544983	11820743.292984173
1.7008168697357178	11513316.352911875
1.7046726942062378	12102751.157514213
1.708522081375122	12874939.564048177
1.712364912033081	13629808.058346743
1.7162011861801147	14446114.545132829
1.7200311422348022	15278525.85825957
1.723854422569275	15451659.550535081
1.7276713848114014	14989029.658970917
1.731481909751892	14183775.034619227
1.7352858781814575	13318101.358580578
1.7390835285186768	12826960.95782826
1.7428747415542603	12321249.71369181
1.7466596364974976	11368347.187869668
1.7504380941390991	10185601.09313921
1.7542102336883545	9557274.2069714
1.7579760551452637	10877842.969375031
1.7617355585098267	12393277.315532291
1.7654887437820435	11354575.67400995
1.7692357301712036	8700177.122645127
1.7729763984680176	5915431.412822495
1.776710867881775	3608148.465935785
1.7804391384124756	2754450.985359016
1.7841613292694092	2837582.3747743964
1.7878772020339966	2535334.0613415404
1.7915871143341064	2736789.851830559
1.7952908277511597	3919276.0374438926
1.7989884614944458	4349175.254700066
1.8026801347732544	2875642.7011709884
1.806365728378296	1248614.8733862275
1.8100452423095703	1262182.0404835707
1.8137187957763672	1676572.2558093613
1.817386507987976	1404083.679311908
1.8210482597351074	1676957.620089498
1.8247040510177612	1872478.6409351875
1.828354001045227	1022782.116656357
1.8319982290267944	702279.0103533329
1.8356364965438843	1367518.3008413888
1.8392690420150757	2070506.634229422
1.8428958654403687	2104778.989270924
1.8465168476104736	2085520.868135557
1.8501322269439697	2381036.03563487
1.8537418842315674	1946421.9976419723
1.8573459386825562	1258581.0303362284
1.860944390296936	993985.2523284666
1.864537239074707	665097.3155675505
1.8681244850158691	651294.1724011264
1.871706247329712	1265660.7465403494
1.8752825260162354	2226561.5937968227
1.8788533210754395	3770666.3280936694
1.8824186325073242	4981281.431017866
1.8859784603118896	4569406.01214198
1.8895330429077148	4070916.7145520244
1.8930821418762207	5067878.08295361
1.8966259956359863	5004944.202886327
1.9001644849777222	2485506.5587282404
1.9036977291107178	763746.61512932
1.9072256088256836	792893.1480967364
1.9107483625411987	783181.2646861497
1.9142658710479736	432558.26032940747
1.9177782535552979	411867.3108396202
1.9212853908538818	643757.1143543117
1.9247875213623047	669848.566393659
1.9282845258712769	714581.8064685058
1.9317764043807983	1018397.8862043106
1.9352631568908691	1193333.0168313237
1.9387450218200684	1199243.0888841504
1.942221760749817	1458599.0651832619
1.9456936120986938	1800196.897745093
1.9491604566574097	2168768.2137325616
1.952622413635254	2120587.9144352754
1.956079363822937	1575847.0450967103
1.959531545639038	1457346.676980462
1.962978720664978	1666492.9086620607
1.966421127319336	2352913.624192173
1.9698586463928223	3624218.083182455
1.9732913970947266	4325526.070599177
1.9767193794250488	4759028.602604682
1.9801424741744995	5799593.610859035
1.9835609197616577	6853705.464397158
1.9869745969772339	6942738.357531683
1.990383505821228	5968706.576771445
1.9937876462936401	5692958.672323869
1.9971871376037598	5940297.122958683
2.000581979751587	6518369.3788638525
2.003972291946411	8298052.290104373
2.007357597351074	9922117.00362042
2.0107386112213135	11331199.928044215
2.0141148567199707	11714669.844773345
2.017486572265625	10615668.4552296
2.0208535194396973	11131002.889978724
2.0242159366607666	13132735.504749548
2.027573823928833	14243376.749699038
2.0309269428253174	14989016.386213252
2.034275770187378	16122807.034262398
2.0376198291778564	17082884.32872543
2.040959596633911	17883325.6398471
2.044294595718384	18972109.411301166
2.0476250648498535	20083999.59484409
2.0509510040283203	20213342.427659966
2.054272413253784	19616594.626885556
2.057589530944824	19867016.900824644
2.0609018802642822	20777802.196592104
2.0642096996307373	21485077.47194358
2.0675129890441895	21956500.23604138
2.0708119869232178	22205983.364854254
2.074106216430664	22131107.896411408
2.0773961544036865	22010730.14542696
2.080681324005127	22202634.479182135
2.0839622020721436	22448102.974496722
2.087238311767578	22591218.497548185
2.090510129928589	22572459.852521278
2.0937774181365967	22365796.983001534
2.0970399379730225	22296014.116996612
2.1002981662750244	22285545.234924484
2.1035518646240234	22051279.377446108
2.1068007946014404	21732409.490652252
2.1100454330444336	21827380.259079717
2.1132853031158447	22073671.279727515
2.116520881652832	21792942.000967357
2.1197516918182373	21445866.02481796
2.1229779720306396	21496148.698294893
2.12619948387146	21680299.116686672
2.1294167041778564	21748319.81233502
2.132629156112671	21751549.792498007
2.1358368396759033	21447634.863080304
2.139039993286133	20808473.34338082
2.1422386169433594	20149712.667494442
2.145432472229004	19569125.304128945
2.1486217975616455	19143847.626599524
2.151806354522705	18651412.923648726
2.1549863815307617	18578749.71699292
2.1581614017486572	18708704.43407135
2.16133189201355	18189499.619361743
2.1644976139068604	17717161.394276578
2.167658567428589	17684165.756123234
2.1708147525787354	17860743.673581358
2.173966407775879	17961945.534021057
2.1771130561828613	17794297.6469944
2.1802549362182617	17403695.05865257
2.183391809463501	16742650.71474063
2.1865241527557373	15889011.26366857
2.1896514892578125	14768762.521189947
2.1927738189697266	12690313.692542506
2.1958916187286377	9576611.76211924
2.1990041732788086	6839891.068149965
2.2021119594573975	5520985.265143004
2.2052149772644043	5287963.475702806
2.208312749862671	5693022.622713474
2.2114057540893555	6535233.639067776
2.214493751525879	7198481.477250731
2.217576742172241	7082181.798106837
2.2206547260284424	6684467.6586840395
2.2237277030944824	6400526.887459189
2.2267956733703613	5616983.308133035
2.2298583984375	4488495.736164556
2.2329163551330566	3775509.6732874634
2.235969066619873	3558270.7559246277
2.2390167713165283	3374185.3137392187
2.2420592308044434	2869894.0067996457
2.2450966835021973	2349579.4952065647
2.248128890991211	2465476.927637812
2.2511560916900635	2994929.1756200204
2.254178285598755	3284042.031856315
2.257194995880127	3498944.950888551
2.260206699371338	3522100.7136393324
2.2632133960723877	2975937.0582560482
2.266214609146118	2349526.9520702427
2.2692108154296875	2178359.537736548
2.2722020149230957	2504490.930385683
2.2751877307891846	2904222.4603288076
2.278168201446533	2886129.84665983
2.2811436653137207	2584206.4921323126
2.284113883972168	2355144.561111913
2.287078857421875	2162202.337369577
2.290038824081421	1960134.5535982053
2.2929933071136475	1903696.1977209651
2.295942783355713	1972846.7135507257
2.298887014389038	2048664.141388944
2.301826238632202	2188541.0286284224
2.304760217666626	2591679.5882307882
2.3076889514923096	3284832.160467185
2.310612440109253	3893519.501057321
2.3135311603546143	3680159.000807244
2.3164443969726562	2486867.023159507
2.319352865219116	1450617.7401822072
2.322256088256836	1231814.7098430623
2.3251543045043945	1277246.4761034923
2.328047275543213	1256089.8432676685
2.330935478210449	1256408.4325564094
2.3338186740875244	1264162.8013103579
2.3366971015930176	1237050.7601056823
2.3395702838897705	1205412.9399720759
2.3424389362335205	1136032.8468823326
2.3453025817871094	1021851.3006911889
2.348161458969116	978895.6903247058
2.351015567779541	1152546.5446577938
2.353865146636963	1518674.2977574214
2.3567099571228027	1847543.869113307
2.3595502376556396	2101024.312454104
2.3623859882354736	2351483.1006521247
2.3652172088623047	2267084.8541026902
2.368043899536133	1630497.6170672814
2.370866537094116	972906.8079550571
2.3736846446990967	818365.2873075169
2.3764986991882324	955460.1174832139
2.3793084621429443	1078421.20569721
2.3821144104003906	1248061.9349264875
2.384916305541992	1568246.1957281772
2.387714147567749	1832135.174920141
2.3905084133148193	1808337.1944270197
2.393299102783203	1714397.9590618638
2.3960859775543213	1738380.7099788948
2.398869514465332	1825963.0587898786
2.4016497135162354	1820911.028508357
2.4044265747070312	1764279.2881569606
2.407200336456299	2002049.1385028593
2.409970998764038	2505192.71529635
2.4127390384674072	2835942.718610528
2.415503978729248	2976081.1158838035
2.418266534805298	3328321.8634225847
2.4210267066955566	3668798.80790615
2.4237842559814453	3383396.838614052
2.426539897918701	2916815.44398056
2.429293394088745	3155100.4188779416
2.4320452213287354	3797558.53028263
2.4347951412200928	4033862.9732537596
2.4375438690185547	3915267.3302898775
2.440291166305542	3873958.3874925147
2.443037271499634	3749724.7544637383
2.445782423019409	3260804.7368649542
2.4485268592834473	2658235.556928558
2.451270818710327	2513799.6594559993
2.454014539718628	3093792.5353253954
2.4567582607269287	3672041.5530927284
2.4595019817352295	3660552.453595052
2.4622461795806885	3831784.2680836143
2.4649908542633057	3906740.1243458316
2.4677364826202393	3077075.202549524
2.4704833030700684	2093654.1228384904
2.473231554031372	1508037.1200383292
2.4759814739227295	1177277.949334885
2.4787333011627197	1055436.0086721906
