#wavelength	surface flux
0.6450077295303345	150747.7499820059
0.6472567915916443	226576.61087517568
0.6494921445846558	271532.3187962265
0.6517150402069092	282142.3089805953
0.6539263725280762	290841.40527346573
0.6561272740364075	299590.0250035343
0.6583186388015747	308615.13268436486
0.6605015397071838	317895.4167044987
0.6626768708229065	327096.2523646433
0.6648455858230591	336595.84144557477
0.6670085787773132	346020.3273108565
0.6691668033599854	353567.7978658039
0.6713210344314575	362006.0712127826
0.6734722256660461	374461.063050147
0.6756211519241333	387318.4792906995
0.6777685880661011	398357.63943355496
0.6799154281616211	408700.9533428156
0.6820623278617859	419704.7781292544
0.6842101216316223	431812.4436047096
0.6863595843315125	443839.87435611855
0.688511312007904	455341.68320771924
0.6906660795211792	466451.98908389267
0.6928245425224304	478479.6457339207
0.6949873566627502	492103.9342085689
0.6971551775932312	505798.17923059955
0.6993286609649658	519058.0355195242
0.7015084028244019	532451.7123832728
0.7036949396133423	546166.2854487661
0.7058889269828796	560223.0075054367
0.7080909013748169	574542.1568410993
0.710301399230957	589154.5551267188
0.712520956993103	604089.7185051686
0.7147500514984131	619197.5437592097
0.7169892191886902	634511.6117085997
0.7192389369010925	650363.352430475
0.7214996814727783	666693.6158051955
0.723771870136261	683288.0407112549
0.7260559797286987	700237.2983971051
0.7283523678779602	717564.8546013007
0.7306615710258484	735338.1935862182
0.7329838871955872	753648.5499576721
0.7353196740150452	772333.3616536957
0.7376693487167358	791407.5276485184
0.7400332689285278	810932.5868565843
0.7424117922782898	830751.8164578482
0.7448052167892456	850933.9477499927
0.7472138404846191	871506.9072305482
0.7496379613876343	892274.9337245642
0.7520779371261597	912948.6209164353
0.7545340061187744	933008.8024715302
0.7570064663887024	951077.1863984693
0.7594954967498779	960989.7794069055
0.7620013952255249	920407.3980200482
0.7645244002342224	742954.196320256
0.7670646905899048	504199.8783113678
0.7696225643157959	468398.5868559109
0.7721980810165405	732645.9451470755
0.7747915983200073	1023277.1384066066
0.7774031162261963	1140501.0743366762
0.7800329327583313	1180943.6394037518
0.7826811671257019	1215609.774710193
0.7853479981422424	1249465.9420974255
0.7880334854125977	1281809.6628917917
0.7907378077507019	1307681.780057019
0.7934610247612	1319374.2259604586
0.7962033748626709	1345330.7160622291
0.7989648580551147	1399169.2773129547
0.801745593547821	1446765.0115897905
0.8045456409454346	1482294.3885862655
0.8073651194572449	1517338.708536853
0.8102040886878967	1552559.4769465849
0.8130625486373901	1589106.2510015494
0.8159406185150146	1627720.4183391382
0.8188382983207703	1667146.0123785543
0.8217556476593018	1706718.481368756
0.8246926665306091	1747235.6906478768
0.8276493549346924	1788670.2485808376
0.8306257724761963	1830736.1092763676
0.8336219191551208	1873717.8740424092
0.8366377949714661	1917343.8547799117
0.8396733403205872	1962220.4019754143
0.8427285552024841	2008998.6101772662
0.8458034992218018	2056672.23630932
0.8488980531692505	2104797.2564106984
0.8520121574401855	2153819.149440525
0.8551458716392517	2203965.0309454664
0.8582990765571594	2254009.886595224
0.8614717125892639	2302130.5503266207
0.8646637797355652	2352205.8001851095
0.8678751587867737	2407089.541102654
0.8711057901382446	2463076.606225712
0.8743556141853333	2519219.9009027514
0.87762451171875	2576064.5991488076
0.8809124231338501	2633768.833352008
0.8842192888259888	2693350.532406082
0.8875449895858765	2753072.656690527
0.8908893465995789	2811441.8570672977
0.894252359867096	2871996.708627614
0.8976338505744934	2937378.497719993
0.9010337591171265	3004991.761052335
0.9044519662857056	3072669.44252327
0.9078882932662964	3140432.624825959
0.9113426208496094	3208182.41236858
0.914814829826355	3275306.246356053
0.9183048605918884	3343757.445882497
0.9218124747276306	3412164.680009241
0.925337553024292	3466735.867842905
0.9288799166679382	3509831.577737654
0.9324395060539246	3572123.437959612
0.9360161423683167	3658572.049088969
0.9396095871925354	3747527.9258747604
0.943219780921936	3823965.107842995
0.9468464851379395	3895365.6689030873
0.9504896402359009	3976849.063900903
0.9541489481925964	4063954.591855532
0.9578243494033813	4142252.453141895
0.9615156054496765	4209682.317568161
0.9652225375175476	4284598.494419767
0.9689450263977051	4379060.864036197
0.9726828336715698	4488789.865631059
0.9764357805252075	4594108.66192683
0.9802037477493286	4689441.789496885
0.983986496925354	4784305.280425944
0.9877838492393494	4879428.322799926
0.9915955662727356	4975646.878617316
0.9954215884208679	5074624.659177903
0.9992615580558777	5173443.540795827
1.0031154155731201	5270547.8772735
1.0069829225540161	5371411.905315442
1.0108637809753418	5476410.231431077
1.0147579908370972	5582663.52988612
1.018665075302124	5688478.4521511905
1.022585153579712	5790446.3401134955
1.0265177488327026	5891203.226063576
1.0304628610610962	5997779.675697059
1.0344202518463135	6110241.271384157
1.0383895635604858	6222249.620093747
1.0423706769943237	6331890.50751891
1.0463634729385376	6441530.491064028
1.0503677129745483	6551853.918968138
1.0543830394744873	6664123.3370644525
1.058409333229065	6777854.039904072
1.0624464750289917	6891640.938749587
1.0664942264556885	7005890.818895328
1.0705522298812866	7120910.350340022
1.0746204853057861	7237217.229397805
1.0786986351013184	7354794.589094498
1.0827864408493042	7472473.6103482405
1.086883783340454	7586794.5380407935
1.0909905433654785	7695246.254702172
1.0951062440872192	7795221.303702996
1.0992310047149658	7859373.4929526625
1.10336434841156	7894475.840544592
1.1075061559677124	7975803.659571412
1.1116561889648438	8088470.5288541475
1.115814208984375	8184745.805147286
1.1199802160263062	8294735.201760567
1.124153733253479	8439646.391738672
1.1283347606658936	8567255.156360928
1.1325229406356812	8626069.854211487
1.1367181539535522	8749833.380425155
1.1409201622009277	8971038.59467026
1.145128846168518	9147490.589624831
1.1493438482284546	9215130.424344026
1.1535650491714478	9223644.123524433
1.1577922105789185	9305791.719285982
1.1620250940322876	9482108.17723069
1.1662636995315552	9686912.290726611
1.170507550239563	9860587.47997808
1.174756646156311	10031149.051318545
1.1790107488632202	10231944.42969132
1.1832695007324219	10414793.713923872
1.1875330209732056	10568642.879151514
1.191800832748413	10719692.644839128
1.1960728168487549	10877528.80456149
1.2003488540649414	11025468.936793203
1.2046287059783936	11162634.035368903
1.2089121341705322	11298841.742310021
1.2131990194320679	11440666.041328365
1.2174891233444214	11588542.292142764
1.2217823266983032	11735451.778277135
1.2260783910751343	11878524.606017688
1.230377197265625	12018933.46831178
1.2346785068511963	12158042.383867286
1.238982081413269	12298161.772642298
1.2432878017425537	12438005.737672562
1.2475954294204712	12575036.548818609
1.2519049644470215	12710366.177837083
1.256216049194336	12849433.297389392
1.2605286836624146	12988229.743183801
1.2648425102233887	13122666.01072804
1.2691574096679688	13256928.606975283
1.2734732627868652	13392325.935712589
1.2777899503707886	13527353.031204354
1.2821072340011597	13660263.135779105
1.2864248752593994	13789097.036190799
1.2907428741455078	13913193.546501536
1.2950609922409058	14043228.904556792
1.2993791103363037	14174704.88218626
1.303696870803833	14297208.208491663
1.3080145120620728	14425575.878098
1.3123314380645752	14565600.43411414
1.3166478872299194	14703871.995299293
1.3209635019302368	14808204.660264889
1.3252781629562378	14846165.361074697
1.3295916318893433	14704746.059107108
1.3339040279388428	14114570.424151815
1.3382149934768677	13060315.862816505
1.3425244092941284	12522886.654754007
1.3468321561813354	12889184.605746735
1.3511382341384888	12838939.95249448
1.3554422855377197	12340000.248990541
1.3597444295883179	12276022.479965799
1.3640443086624146	12656294.081328485
1.3683418035507202	13364804.175305117
1.3726370334625244	14218616.863808678
1.3769296407699585	14713519.16086251
1.381219506263733	14082952.994298762
1.3855066299438477	13076248.396771055
1.3897908926010132	12773031.63418751
1.3940720558166504	12803985.412820866
1.3983501195907593	13021725.434227422
1.4026249647140503	13864247.327166354
1.4068963527679443	14559968.51968883
1.4111642837524414	14016198.493845498
1.4154287576675415	13709391.151639644
1.419689416885376	14115677.589083437
1.4239463806152344	14172330.326645864
1.4281994104385376	14408460.398834044
1.4324485063552856	14488981.476129092
1.436693549156189	14409850.033716042
1.440934419631958	15002028.929184852
1.4451709985733032	15952843.701542689
1.449403166770935	16757638.710332287
1.453631043434143	17184258.292344015
1.4578542709350586	17422540.56837593
1.4620729684829712	17663392.383043315
1.4662868976593018	17794264.19437195
1.4704961776733398	17831586.287921745
1.4747005701065063	17953928.98638209
1.4788999557495117	18167126.57718934
1.4830944538116455	18448044.78698902
1.4872838258743286	18720253.781003255
1.491468071937561	18869008.194295842
1.4956470727920532	18990745.065360636
1.4998208284378052	19215092.5590068
1.5039892196655273	19455550.693629455
1.5081522464752197	19580565.911177285
1.5123097896575928	19694051.819484103
1.5164618492126465	19892669.640908726
1.5206083059310913	20143737.96711768
1.5247491598129272	20345330.57657457
1.5288842916488647	20453780.43761373
1.5330137014389038	20578512.600359607
1.5371372699737549	20734641.264032777
1.541254997253418	20862021.027839165
1.545366883277893	20994862.58562068
1.5494728088378906	21140818.446453672
1.5535727739334106	21256998.279153593
1.5576666593551636	21343304.196355842
1.561754584312439	21453722.761560753
1.5658363103866577	21602680.1548651
1.5699119567871094	21733959.264174774
1.5739814043045044	21818089.070374634
1.5780447721481323	21884227.789987233
1.582101821899414	21998317.89738578
1.5861525535583496	22150976.581365313
1.5901970863342285	22272053.1071464
1.5942351818084717	22362509.149071902
1.5982669591903687	22448698.373490263
1.6022924184799194	22546613.0292508
1.606311559677124	22653055.431980927
1.6103241443634033	22749616.913218934
1.6143304109573364	22841209.595759526
1.6183301210403442	22934942.295105122
1.6223233938217163	23034666.414727032
1.6263102293014526	23139843.812336486
1.6302905082702637	23233872.991931625
1.634264349937439	23321903.14029961
1.638231635093689	23415537.307091497
1.6421923637390137	23507238.4492649
1.646146535873413	23593908.35392887
1.6500942707061768	23671885.352997806
1.6540353298187256	23744945.8738347
1.6579699516296387	23815988.225922417
1.661897897720337	23883569.227548894
1.6658192873001099	23952080.59068795
1.6697341203689575	24025914.920196656
1.6736423969268799	24124174.638783436
1.677544116973877	24229027.792974837
1.6814392805099487	24313855.30563331
1.6853278875350952	24388083.842550743
1.6892099380493164	24441179.815036
1.6930854320526123	24465596.353523467
1.696954369544983	24506026.641267527
1.7008168697357178	24591476.07603827
1.7046726942062378	24667982.11673686
1.708522081375122	24703698.959171493
1.712364912033081	24729466.033107493
1.7162011861801147	24779525.820471726
1.7200311422348022	24850208.28537267
1.723854422569275	24903605.14307662
1.7276713848114014	24918153.80868164
1.731481909751892	24881361.98407901
1.7352858781814575	24821066.533467982
1.7390835285186768	24779966.356263846
1.7428747415542603	24710390.80032668
1.7466596364974976	24583653.943920814
1.7504380941390991	24397665.31124349
1.7542102336883545	24273431.845311414
1.7579760551452637	24549517.524805583
1.7617355585098267	24946038.646580424
1.7654887437820435	24863537.33902999
1.7692357301712036	24359262.807759613
1.7729763984680176	23567354.36043737
1.776710867881775	22566553.634461645
1.7804391384124756	22152697.95011281
1.7841613292694092	22210686.925875004
1.7878772020339966	21955579.870208725
1.7915871143341064	22023236.458233375
1.7952908277511597	22197589.81605472
1.7989884614944458	21436379.73590375
1.8026801347732544	19955985.79179232
1.806365728378296	18524457.98063925
1.8100452423095703	18562231.376239184
1.8137187957763672	19620149.736957334
1.817386507987976	19629208.888984416
1.8210482597351074	20054938.28212377
1.8247040510177612	20504899.136827983
1.828354001045227	19564765.781125423
1.8319982290267944	19795149.948159005
1.8356364965438843	21241123.180821385
1.8392690420150757	22286158.804841775
1.8428958654403687	22599835.612612292
1.8465168476104736	22466924.1354608
1.8501322269439697	21784781.366120834
1.8537418842315674	20028134.93993224
1.8573459386825562	19123331.440462418
1.860944390296936	19183755.798554037
1.864537239074707	19062437.70867785
1.8681244850158691	20215614.799242966
1.871706247329712	22038692.583085384
1.8752825260162354	23016157.84882627
1.8788533210754395	23577184.414877668
1.8824186325073242	23870633.690159045
1.8859784603118896	23676034.453384865
1.8895330429077148	23671383.263630006
1.8930821418762207	24227667.478477616
1.8966259956359863	24183373.424087413
1.9001644849777222	22676999.32969148
1.9036977291107178	21132085.05066047
1.9072256088256836	21264182.18829999
1.9107483625411987	21277968.094051953
1.9142658710479736	19999597.321828615
1.9177782535552979	19933797.774855066
1.9212853908538818	20948460.039456103
1.9247875213623047	20951465.244564496
1.9282845258712769	21084328.549472474
1.9317764043807983	22122990.999985166
1.9352631568908691	22476163.012650695
1.9387450218200684	21903244.57828107
1.942221760749817	21652366.291770604
1.9456936120986938	21736544.800759166
1.9491604566574097	21689246.96137828
1.952622413635254	21334366.185003206
1.956079363822937	20985047.074625928
1.959531545639038	21423353.7342549
1.962978720664978	21953903.76662978
1.966421127319336	22543001.918805808
1.9698586463928223	23500309.606118534
1.9732913970947266	23896591.971019834
1.9767193794250488	24032479.644566286
1.9801424741744995	24620567.427462805
1.9835609197616577	25182864.916423257
1.9869745969772339	25194375.877190612
1.990383505821228	24693131.763197333
1.9937876462936401	24482241.08417701
1.9971871376037598	24532307.750399172
2.000581979751587	24757532.40975692
2.003972291946411	25470451.392560534
2.007357597351074	25982933.229036752
2.0107386112213135	26322966.08108427
2.0141148567199707	26535127.66992751
2.017486572265625	26323729.315742265
2.0208535194396973	26367033.2607418
2.0242159366607666	26803795.08671544
2.027573823928833	27106155.43367404
2.0309269428253174	27273333.746208306
2.034275770187378	27449933.66812004
2.0376198291778564	27579982.603532627
2.040959596633911	27692779.057949483
2.044294595718384	27840274.438368823
2.0476250648498535	27995800.390644815
2.0509510040283203	28061691.7494441
2.054272413253784	28016106.485832747
2.057589530944824	28043509.209216733
2.0609018802642822	28165812.530861884
2.0642096996307373	28273859.79960731
2.0675129890441895	28351580.85770337
2.0708119869232178	28389848.744920723
2.074106216430664	28386314.536689278
2.0773961544036865	28392002.516283855
2.080681324005127	28435337.914478444
2.0839622020721436	28489317.411429003
2.087238311767578	28534933.106944207
2.090510129928589	28550455.118581537
2.0937774181365967	28545516.75310177
2.0970399379730225	28564244.548048876
2.1002981662750244	28591949.30715056
2.1035518646240234	28597884.045191474
2.1068007946014404	28602095.337589033
2.1100454330444336	28652394.679944508
2.1132853031158447	28717573.472406495
2.116520881652832	28733841.94629064
2.1197516918182373	28740378.15669753
2.1229779720306396	28770763.481104158
2.12619948387146	28797554.538514107
2.1294167041778564	28811021.12295113
2.132629156112671	28827287.775620773
2.1358368396759033	28837445.776538566
2.139039993286133	28833240.13849048
2.1422386169433594	28837788.108149793
2.145432472229004	28852114.462528005
2.1486217975616455	28856767.00434833
2.151806354522705	28853564.987040956
2.1549863815307617	28858538.127266355
2.1581614017486572	28877250.740752738
2.16133189201355	28895686.705233213
2.1644976139068604	28904673.60484986
2.167658567428589	28904436.927640855
2.1708147525787354	28893505.88689175
2.173966407775879	28875210.256482217
2.1771130561828613	28870623.770517133
2.1802549362182617	28893428.397891704
2.183391809463501	28919895.35587947
2.1865241527557373	28933018.498790074
2.1896514892578125	28939694.572908226
2.1927738189697266	28930748.847844332
2.1958916187286377	28895884.78398059
2.1990041732788086	28868332.421244375
2.2021119594573975	28874531.23891074
2.2052149772644043	28892290.82038665
2.208312749862671	28907202.76354784
2.2114057540893555	28915666.66715852
2.214493751525879	28907607.337478925
2.217576742172241	28890614.06260512
2.2206547260284424	28887246.8557157
2.2237277030944824	28893859.142422713
2.2267956733703613	28887251.730169993
2.2298583984375	28874594.267236795
2.2329163551330566	28873630.360097934
2.235969066619873	28886078.165112823
2.2390167713165283	28888793.689835716
2.2420592308044434	28843015.4791929
2.2450966835021973	28766670.752250068
2.248128890991211	28728224.975319304
2.2511560916900635	28752131.55267297
2.254178285598755	28795315.468619343
2.257194995880127	28817218.601415645
2.260206699371338	28804640.923216738
2.2632133960723877	28732320.269849524
2.266214609146118	28627672.86914531
2.2692108154296875	28575967.541434426
2.2722020149230957	28604585.395333588
2.2751877307891846	28658029.35797467
2.278168201446533	28648448.518932227
2.2811436653137207	28577795.77493863
2.284113883972168	28555240.907089826
2.287078857421875	28587586.335448615
2.290038824081421	28480129.45056853
2.2929933071136475	28007346.402579058
2.295942783355713	27173317.647248674
2.298887014389038	26213888.83324053
2.301826238632202	25357109.734726295
2.304760217666626	24633310.779065963
2.3076889514923096	24100000.53221763
2.310612440109253	24110464.233278524
2.3135311603546143	24544031.333854295
2.3164443969726562	24736260.57732099
2.319352865219116	24586015.09377057
2.322256088256836	24397334.224360835
2.3251543045043945	24328829.137019534
2.328047275543213	24394865.85895377
2.330935478210449	24592723.656255763
2.3338186740875244	24913909.02782303
2.3366971015930176	25285232.103627786
2.3395702838897705	25675392.00358616
2.3424389362335205	26116399.397555996
2.3453025817871094	26631213.102958556
2.348161458969116	26934821.82621852
2.351015567779541	26739154.47974281
2.353865146636963	26281127.90229596
2.3567099571228027	25903407.3414871
2.3595502376556396	25851885.154938135
2.3623859882354736	26195080.066890392
2.3652172088623047	26304016.368543256
2.368043899536133	25865433.96499605
2.370866537094116	25838056.359850805
2.3736846446990967	26347980.498753883
2.3764986991882324	26066710.095269665
2.3793084621429443	25066308.342242733
2.3821144104003906	24650425.537592035
2.384916305541992	25217276.06788947
2.387714147567749	26254062.31049261
2.3905084133148193	27018446.49878888
2.393299102783203	27061198.557738654
2.3960859775543213	26353292.771832492
2.398869514465332	25442908.99679379
2.4016497135162354	24922442.74088505
2.4044265747070312	24848657.712823175
2.407200336456299	25035957.39014247
2.409970998764038	25214677.73617033
2.4127390384674072	25249795.190351337
2.415503978729248	25323700.605595358
2.418266534805298	25573925.052289415
2.4210267066955566	25795519.607079368
2.4237842559814453	25779755.702778
2.426539897918701	25567823.300577134
2.429293394088745	25258539.797720388
2.4320452213287354	25042006.72130695
2.4347951412200928	25083882.599547442
2.4375438690185547	25157103.681880012
2.440291166305542	24932829.380796086
2.443037271499634	24427241.26703334
2.445782423019409	23915137.703427963
2.4485268592834473	23519446.52642653
2.451270818710327	23288197.795298107
2.454014539718628	23697971.651034545
2.4567582607269287	24379057.803434566
2.4595019817352295	24249995.04248843
2.4622461795806885	24166697.251584318
2.4649908542633057	24260268.21725557
2.4677364826202393	23278283.21108238
2.4704833030700684	21514098.411591206
2.473231554031372	19555925.40223514
2.4759814739227295	17826803.659487095
