#wavelength	surface flux
0.6450077295303345	501332.19417345687
0.6472567915916443	783495.3614012573
0.6494921445846558	1008146.970369998
0.6517150402069092	1138273.3154753302
0.6539263725280762	1268579.7679235023
0.6561272740364075	1404346.1376047232
0.6583186388015747	1543607.4190980617
0.6605015397071838	1681119.892226635
0.6626768708229065	1805708.0445740463
0.6648455858230591	1885563.003382455
0.6670085787773132	1790918.8750799738
0.6691668033599854	1405966.4774636514
0.6713210344314575	1205961.6844607247
0.6734722256660461	1702128.8396203204
0.6756211519241333	2424550.652076897
0.6777685880661011	2882267.797875618
0.6799154281616211	3165802.6733831037
0.6820623278617859	3392571.495224053
0.6842101216316223	3597905.8024416002
0.6863595843315125	3783926.091233667
0.688511312007904	3939135.4104189677
0.6906660795211792	4063091.7763547907
0.6928245425224304	4195015.175174338
0.6949873566627502	4376780.432379725
0.6971551775932312	4580521.106886751
0.6993286609649658	4738863.844303862
0.7015084028244019	4842058.871713863
0.7036949396133423	4910172.861333144
0.7058889269828796	4946367.048466026
0.7080909013748169	4952239.975637599
0.710301399230957	4931304.090150413
0.712520956993103	4881577.641825682
0.7147500514984131	4792736.025752211
0.7169892191886902	4663914.978372852
0.7192389369010925	4502789.86515685
0.7214996814727783	4310015.496168034
0.723771870136261	4089030.088559375
0.7260559797286987	3846648.238910074
0.7283523678779602	3582022.8979757335
0.7306615710258484	3320658.519320956
0.7329838871955872	3075843.244998283
0.7353196740150452	2799954.470550785
0.7376693487167358	2486768.722303
0.7400332689285278	2170106.644213241
0.7424117922782898	1858069.3974966705
0.7448052167892456	1556965.5961404229
0.7472138404846191	1268402.7066297764
0.7496379613876343	994213.0039374878
0.7520779371261597	742433.1249757446
0.7545340061187744	519350.9121319992
0.7570064663887024	331169.1431199183
0.7594954967498779	184360.87580082536
0.7620013952255249	83322.98849649089
0.7645244002342224	27372.170730494377
0.7670646905899048	6522.537475571915
0.7696225643157959	7353.6265401250575
0.7721980810165405	34425.72609131718
0.7747915983200073	107580.75438787285
0.7774031162261963	223741.30517608896
0.7800329327583313	399065.1306339244
0.7826811671257019	705992.2578044904
0.7853479981422424	1128358.4376640506
0.7880334854125977	1584954.4021500654
0.7907378077507019	1878449.903275313
0.7934610247612	1880920.387569921
0.7962033748626709	2417837.0012125303
0.7989648580551147	3777753.997973037
0.801745593547821	5062858.101390627
0.8045456409454346	6098700.785964939
0.8073651194572449	7133711.710641523
0.8102040886878967	8205754.59811734
0.8130625486373901	9373039.65972657
0.8159406185150146	10454494.438832948
0.8188382983207703	11567033.134495188
0.8217556476593018	13402945.282052442
0.8246926665306091	15605992.056929998
0.8276493549346924	17510511.10685243
0.8306257724761963	19475021.902108636
0.8336219191551208	21755936.385779962
0.8366377949714661	24067040.50868877
0.8396733403205872	26331225.026067473
0.8427285552024841	28757343.50303681
0.8458034992218018	30864550.969855256
0.8488980531692505	30323084.73102618
0.8520121574401855	28952682.656084016
0.8551458716392517	33750428.97756245
0.8582990765571594	39176619.80039625
0.8614717125892639	35053584.214410014
0.8646637797355652	29407079.987930868
0.8678751587867737	30373354.291977234
0.8711057901382446	32806436.70351056
0.8743556141853333	35182633.54331208
0.87762451171875	39277545.92485739
0.8809124231338501	42925960.08467565
0.8842192888259888	45604335.04156107
0.8875449895858765	46718400.99441452
0.8908893465995789	45127315.88702333
0.894252359867096	45925865.30137099
0.8976338505744934	54027239.75031713
0.9010337591171265	66447617.38349208
0.9044519662857056	77625321.09527728
0.9078882932662964	85845966.32957985
0.9113426208496094	92110746.5785044
0.914814829826355	95601989.99719813
0.9183048605918884	98415738.98493017
0.9218124747276306	98186890.33641864
0.925337553024292	89414349.39343828
0.9288799166679382	83058213.64962456
0.9324395060539246	85735847.99893717
0.9360161423683167	90786428.47573532
0.9396095871925354	93415113.13643938
0.943219780921936	92392120.36472404
0.9468464851379395	89386774.28599201
0.9504896402359009	95433694.45678927
0.9541489481925964	113335898.6738219
0.9578243494033813	121098668.36750491
0.9615156054496765	108299662.04011704
0.9652225375175476	93050807.32981169
0.9689450263977051	102564391.63799559
0.9726828336715698	130947379.52222487
0.9764357805252075	144819230.8004276
0.9802037477493286	146527096.29937306
0.983986496925354	154473342.0536982
0.9877838492393494	151904842.49271744
0.9915955662727356	132015554.74010344
0.9954215884208679	115721993.1711519
0.9992615580558777	101055262.60719597
1.0031154155731201	89487057.4433935
1.0069829225540161	92690126.4354521
1.0108637809753418	106557641.45483728
1.0147579908370972	124019546.12377033
1.018665075302124	135769328.72505087
1.022585153579712	135702982.61953753
1.0265177488327026	135180825.3292502
1.0304628610610962	147907480.9299218
1.0344202518463135	167058003.4276075
1.0383895635604858	179394370.0418694
1.0423706769943237	184724472.45384365
1.0463634729385376	191578958.93072468
1.0503677129745483	199568142.72881675
1.0543830394744873	209251255.98434362
1.058409333229065	219747005.95869005
1.0624464750289917	226727030.98308083
1.0664942264556885	233870221.81790844
1.0705522298812866	243106906.85414752
1.0746204853057861	252461313.4117571
1.0786986351013184	259599001.8056978
1.0827864408493042	264289326.9944388
1.086883783340454	256316522.08448666
1.0909905433654785	229653219.96346655
1.0951062440872192	203016163.6405276
1.0992310047149658	165640258.65527856
1.10336434841156	110888096.79729514
1.1075061559677124	82064637.66655199
1.1116561889648438	75073250.80599637
1.115814208984375	66840828.97093862
1.1199802160263062	68376738.47656246
1.124153733253479	73732654.02244224
1.1283347606658936	64182228.91460143
1.1325229406356812	48436073.80705167
1.1367181539535522	56351268.7487329
1.1409201622009277	86606345.73057926
1.145128846168518	109807314.42327438
1.1493438482284546	103806929.95616795
1.1535650491714478	84408769.64127527
1.1577922105789185	77228022.59100458
1.1620250940322876	76704076.58021316
1.1662636995315552	81762466.97944799
1.170507550239563	87535057.30622052
1.174756646156311	92578432.53651449
1.1790107488632202	110934825.48801489
1.1832695007324219	130419471.097033
1.1875330209732056	133980125.92677186
1.191800832748413	154696317.5088604
1.1960728168487549	193901446.34948966
1.2003488540649414	211908848.20052662
1.2046287059783936	218952346.37557164
1.2089121341705322	224880190.1845029
1.2131990194320679	234286606.7655182
1.2174891233444214	255916048.43653774
1.2217823266983032	273020802.27715296
1.2260783910751343	281071834.63825846
1.230377197265625	289264953.18525577
1.2346785068511963	291351118.4385534
1.238982081413269	272544450.18851787
1.2432878017425537	246239114.98919556
1.2475954294204712	236244491.2503343
1.2519049644470215	235420719.16824013
1.256216049194336	269944296.2516019
1.2605286836624146	315836884.0229961
1.2648425102233887	325419386.78498
1.2691574096679688	336488431.77611226
1.2734732627868652	356346064.21251017
1.2777899503707886	356539317.014807
1.2821072340011597	341685247.0280332
1.2864248752593994	335794262.51201314
1.2907428741455078	336587263.0666254
1.2950609922409058	330877131.8452466
1.2993791103363037	304312513.5073847
1.303696870803833	280939991.1451885
1.3080145120620728	281804462.8616513
1.3123314380645752	286381673.9047314
1.3166478872299194	283802707.52828914
1.3209635019302368	254031080.11592406
1.3252781629562378	208148027.6954148
1.3295916318893433	153395797.29528928
1.3339040279388428	78825800.68559404
1.3382149934768677	27166715.07496336
1.3425244092941284	14358612.448750969
1.3468321561813354	13162320.577068018
1.3511382341384888	12554573.907154245
1.3554422855377197	10231476.462637797
1.3597444295883179	12313209.393752845
1.3640443086624146	17643869.595133957
1.3683418035507202	16325985.310887763
1.3726370334625244	13326195.68245023
1.3769296407699585	15006474.249519583
1.381219506263733	12879838.88689632
1.3855066299438477	7891302.550732836
1.3897908926010132	8162270.66542535
1.3940720558166504	11295745.35067899
1.3983501195907593	10973743.037824303
1.4026249647140503	10620281.57073172
1.4068963527679443	12819845.208778316
1.4111642837524414	14460272.450399436
1.4154287576675415	15227084.535922205
1.419689416885376	14180249.286148675
1.4239463806152344	13002728.19717247
1.4281994104385376	11005809.871742116
1.4324485063552856	8571698.730792467
1.436693549156189	10145855.630092822
1.440934419631958	14677129.536609918
1.4451709985733032	21610989.913169794
1.449403166770935	29260843.034648985
1.453631043434143	29099113.105156012
1.4578542709350586	25870631.934332006
1.4620729684829712	30859120.903904967
1.4662868976593018	36561727.87155288
1.4704961776733398	29315982.784177825
1.4747005701065063	19810789.163770165
1.4788999557495117	23938690.35754823
1.4830944538116455	36762091.69787724
1.4872838258743286	41792736.47652603
1.491468071937561	35635326.337036155
1.4956470727920532	34778138.0641798
1.4998208284378052	43668728.71414348
1.5039892196655273	47728522.8207917
1.5081522464752197	42499592.234590374
1.5123097896575928	44955622.10943775
1.5164618492126465	63016153.29249015
1.5206083059310913	81517396.01126264
1.5247491598129272	84851363.06691614
1.5288842916488647	82570047.08814755
1.5330137014389038	88419115.19274575
1.5371372699737549	92734874.31139562
1.541254997253418	90497195.77268836
1.545366883277893	94070997.07939139
1.5494728088378906	99844432.4903322
1.5535727739334106	102046929.24079038
1.5576666593551636	106997791.35545567
1.561754584312439	115696885.32924579
1.5658363103866577	125101074.5048778
1.5699119567871094	128976200.65475965
1.5739814043045044	128457769.49648711
1.5780447721481323	132908097.30491582
1.582101821899414	142068535.5581875
1.5861525535583496	148095685.88543406
1.5901970863342285	146045546.9801674
1.5942351818084717	140116267.0024832
1.5982669591903687	141009688.32034048
1.6022924184799194	143981044.11083534
1.606311559677124	140177905.18823677
1.6103241443634033	138907123.96322614
1.6143304109573364	138706455.9482659
1.6183301210403442	132634907.13278188
1.6223233938217163	128862525.0874429
1.6263102293014526	128663168.13447095
1.6302905082702637	129322390.38820608
1.634264349937439	132561654.029949
1.638231635093689	137820468.8038352
1.6421923637390137	140338369.23468062
1.646146535873413	134544536.63857546
1.6500942707061768	126687151.81751946
1.6540353298187256	124695475.27601056
1.6579699516296387	123596063.99605209
1.661897897720337	116555551.97450978
1.6658192873001099	97280672.39508332
1.6697341203689575	84790082.45300499
1.6736423969268799	96762802.38668175
1.677544116973877	109323236.07548578
1.6814392805099487	109284822.16189611
1.6853278875350952	103095410.82120873
1.6892099380493164	92905315.7850596
1.6930854320526123	82021624.40187399
1.696954369544983	77055421.16790381
1.7008168697357178	77952235.52753706
1.7046726942062378	78269041.1161435
1.708522081375122	77500229.6682984
1.712364912033081	74485843.06574002
1.7162011861801147	71236139.83256881
1.7200311422348022	72026537.82655923
1.723854422569275	71830059.7532532
1.7276713848114014	65731662.110064656
1.731481909751892	55777838.30600966
1.7352858781814575	50410961.55358526
1.7390835285186768	51956089.459428154
1.7428747415542603	51433471.17103636
1.7466596364974976	43519832.78240429
1.7504380941390991	36376882.70657168
1.7542102336883545	37131586.22249284
1.7579760551452637	43964568.88758204
1.7617355585098267	54643253.90564008
1.7654887437820435	58027176.36992792
1.7692357301712036	46127714.89877314
1.7729763984680176	31741026.637383915
1.776710867881775	21858269.692310106
1.7804391384124756	17667099.26429779
1.7841613292694092	17847394.289746195
1.7878772020339966	17649764.277567554
1.7915871143341064	22889875.62880943
1.7952908277511597	29358899.216229334
1.7989884614944458	27525865.419740643
1.8026801347732544	20242271.477066685
1.806365728378296	14352783.94909939
1.8100452423095703	12826508.28114075
1.8137187957763672	12129173.258424887
1.817386507987976	10057494.05611292
1.8210482597351074	15370180.521855181
1.8247040510177612	25200514.33212081
1.828354001045227	23344199.28136508
1.8319982290267944	14696184.191820195
1.8356364965438843	14829745.618131466
1.8392690420150757	20470014.300964963
1.8428958654403687	21266975.591880474
1.8465168476104736	18648377.80696146
1.8501322269439697	17119940.86041545
1.8537418842315674	15005686.941395944
1.8573459386825562	13402754.546362823
1.860944390296936	10948581.291432519
1.864537239074707	6760818.257665316
1.8681244850158691	5554160.114635682
1.871706247329712	9068348.996071406
1.8752825260162354	13787905.983562801
1.8788533210754395	14461514.752698677
1.8824186325073242	14025987.946350016
1.8859784603118896	18881801.063923404
1.8895330429077148	24686041.665194318
1.8930821418762207	22107559.89887567
1.8966259956359863	16830004.902152766
1.9001644849777222	14998626.011009248
1.9036977291107178	12736011.787385615
1.9072256088256836	15721084.487758612
1.9107483625411987	19333320.36916984
1.9142658710479736	14752146.496632606
1.9177782535552979	13056232.423070636
1.9212853908538818	12448793.939829538
1.9247875213623047	6768590.322428479
1.9282845258712769	4826013.662442351
1.9317764043807983	10284737.541855952
1.9352631568908691	18965679.646700274
1.9387450218200684	20088474.076272145
1.942221760749817	12878602.480890173
1.9456936120986938	8135044.860541224
1.9491604566574097	7630658.545918028
1.952622413635254	10243491.951132847
1.956079363822937	17938218.695705034
1.959531545639038	24629719.551331483
1.962978720664978	20880350.439404476
1.966421127319336	15287713.869337855
1.9698586463928223	17077670.44833907
1.9732913970947266	18794268.57848782
1.9767193794250488	18670653.65537386
1.9801424741744995	19616465.323203083
1.9835609197616577	19942423.15716543
1.9869745969772339	22637512.09546231
1.990383505821228	25260057.262987927
1.9937876462936401	24150254.172213476
1.9971871376037598	20709521.217780676
2.000581979751587	17927621.023107313
2.003972291946411	21307384.01463982
2.007357597351074	25917828.393231098
2.0107386112213135	27507512.54152435
2.0141148567199707	26662243.00452576
2.017486572265625	23559626.997486554
2.0208535194396973	24479288.58145888
2.0242159366607666	28656389.5176176
2.027573823928833	29152285.27527679
2.0309269428253174	28128228.840519715
2.034275770187378	30707441.98626118
2.0376198291778564	36469378.92332241
2.040959596633911	41646007.76980003
2.044294595718384	43352148.90251922
2.0476250648498535	43501936.900361
2.0509510040283203	41906025.87241056
2.054272413253784	38425830.04562345
2.057589530944824	39029087.289924555
2.0609018802642822	44189018.258774504
2.0642096996307373	47971662.88479737
2.0675129890441895	49150163.77093182
2.0708119869232178	49279180.61781909
2.074106216430664	48811606.608824626
2.0773961544036865	49801735.24963749
2.080681324005127	51602998.88738999
2.0839622020721436	51811044.356856816
2.087238311767578	50769825.968214735
2.090510129928589	49840315.999300115
2.0937774181365967	50208366.861924745
2.0970399379730225	50859812.2762821
2.1002981662750244	49647815.39662929
2.1035518646240234	48345729.92526039
2.1068007946014404	48843134.04444987
2.1100454330444336	49466312.65645126
2.1132853031158447	49119450.4893808
2.116520881652832	47906527.73201948
2.1197516918182373	46750627.11881376
2.1229779720306396	46381150.53513697
2.12619948387146	45947639.27262216
2.1294167041778564	45510945.871919
2.132629156112671	45729321.129574485
2.1358368396759033	45146980.67335872
2.139039993286133	43724268.13208148
2.1422386169433594	42708872.241735645
2.145432472229004	41915217.449532695
2.1486217975616455	41103252.59314843
2.151806354522705	40021264.56743428
2.1549863815307617	39832948.64707875
2.1581614017486572	40719066.55275435
2.16133189201355	41187215.636374585
2.1644976139068604	40900058.34562304
2.167658567428589	39375183.210943244
2.1708147525787354	37295714.41608114
2.173966407775879	36354622.83916034
2.1771130561828613	36390798.048041515
2.1802549362182617	35896028.64775178
2.183391809463501	34328316.17351156
2.1865241527557373	32623979.796575945
2.1896514892578125	31214431.53904659
2.1927738189697266	28870834.784359448
2.1958916187286377	24394325.31157456
2.1990041732788086	19356798.488619927
2.2021119594573975	16532120.20734024
2.2052149772644043	15700727.684828069
2.208312749862671	15641629.126870358
2.2114057540893555	17139807.39535101
2.214493751525879	19221501.897740338
2.217576742172241	19221946.57221982
2.2206547260284424	18226499.66801087
2.2237277030944824	17131221.25781085
2.2267956733703613	14929312.382100394
2.2298583984375	13041586.219389573
2.2329163551330566	12674347.938655486
2.235969066619873	13303359.580879051
2.2390167713165283	13433732.373603396
2.2420592308044434	12394904.702702232
2.2450966835021973	11320544.123376725
2.248128890991211	11054629.746440494
2.2511560916900635	11538343.64101529
2.254178285598755	12890369.727069626
2.257194995880127	14869598.885553643
2.260206699371338	14261509.52146324
2.2632133960723877	10458212.673031291
2.266214609146118	8802202.491844164
2.2692108154296875	11255374.009002704
2.2722020149230957	13719144.794542423
2.2751877307891846	13560724.600761343
2.278168201446533	12685156.617081411
2.2811436653137207	12449145.526269604
2.284113883972168	11674678.345674917
2.287078857421875	10164100.097039787
2.290038824081421	9355295.636062466
2.2929933071136475	9532827.857334193
2.295942783355713	9713603.698229583
2.298887014389038	10067399.463492941
2.301826238632202	11110861.272312364
2.304760217666626	12239646.235216372
2.3076889514923096	13768195.10156331
2.310612440109253	16671857.190638125
2.3135311603546143	19150595.63998133
2.3164443969726562	17263494.09749007
2.319352865219116	11441211.106934631
2.322256088256836	7258617.799878093
2.3251543045043945	5937665.947265549
2.328047275543213	5491311.112389417
2.330935478210449	5771586.327678186
2.3338186740875244	5911905.287146538
2.3366971015930176	5488158.474424746
2.3395702838897705	5118320.619105934
2.3424389362335205	5049662.803498825
2.3453025817871094	5085087.471007355
2.348161458969116	5108103.77437024
2.351015567779541	6082307.751610276
2.353865146636963	8983014.96382394
2.3567099571228027	12539750.622955047
2.3595502376556396	14549789.803901697
2.3623859882354736	13980324.346154334
2.3652172088623047	11025453.735238798
2.368043899536133	7368408.816178092
2.370866537094116	5182919.2674619015
2.3736846446990967	5164307.758756053
2.3764986991882324	5758684.108049615
2.3793084621429443	5649717.0694118515
2.3821144104003906	5449993.401890469
2.384916305541992	6195195.29536222
2.387714147567749	7547736.190431725
2.3905084133148193	8101681.901387299
2.393299102783203	7723008.9120534565
2.3960859775543213	7096117.170349453
2.398869514465332	7018203.555881802
2.4016497135162354	8081776.727904929
2.4044265747070312	9869722.155936839
2.407200336456299	11030928.549695162
2.409970998764038	10686308.648424506
2.4127390384674072	9727904.433360547
2.415503978729248	9237348.420616247
2.418266534805298	9192731.005641118
2.4210267066955566	9232404.345317641
2.4237842559814453	9197271.96577869
2.426539897918701	9538019.642135663
2.429293394088745	10700096.194590542
2.4320452213287354	11663587.112561177
2.4347951412200928	11197117.368364424
2.4375438690185547	9988464.736442193
2.440291166305542	9376718.661493782
2.443037271499634	9508188.311533954
2.445782423019409	10362085.539052024
2.4485268592834473	11500192.694034519
2.451270818710327	11457482.588120423
2.454014539718628	10596192.164732866
2.4567582607269287	10254406.583910301
2.4595019817352295	10226344.85339322
2.4622461795806885	11319652.548491377
2.4649908542633057	12764505.683803283
2.4677364826202393	11727649.063586887
2.4704833030700684	8618507.249521594
2.473231554031372	5741532.018546818
2.4759814739227295	4155778.196260513
2.4787333011627197	3629339.125148776
2.481487512588501	3864054.912911121
