#wavelength	surface flux
0.6450077295303345	249396.02070614335
0.6472567915916443	377315.45736967155
0.6494921445846558	457824.4053108576
0.6517150402069092	482606.4936974767
0.6539263725280762	503713.27352701884
0.6561272740364075	524382.8844850574
0.6583186388015747	545280.327157448
0.6605015397071838	566425.6128200962
0.6626768708229065	586865.8777698702
0.6648455858230591	605647.2470361197
0.6670085787773132	605883.7116491311
0.6691668033599854	556694.2045719483
0.6713210344314575	532820.9650975775
0.6734722256660461	613046.9913375982
0.6756211519241333	702511.971537236
0.6777685880661011	742131.851001386
0.6799154281616211	767362.3281112051
0.6820623278617859	791734.1155057764
0.6842101216316223	817534.615309873
0.6863595843315125	842695.753674232
0.688511312007904	865678.3026586099
0.6906660795211792	885406.7747045776
0.6928245425224304	906756.7465186883
0.6949873566627502	935548.964514232
0.6971551775932312	965850.0971390269
0.6993286609649658	992305.9825636931
0.7015084028244019	1017051.5735308634
0.7036949396133423	1042764.840540253
0.7058889269828796	1069558.7585862814
0.7080909013748169	1095347.6215197572
0.710301399230957	1120703.564275861
0.712520956993103	1145914.2935871042
0.7147500514984131	1167287.4233384633
0.7169892191886902	1185372.9056786904
0.7192389369010925	1207051.1320562235
0.7214996814727783	1230251.3237316494
0.723771870136261	1249438.9371666298
0.7260559797286987	1266315.7653143564
0.7283523678779602	1281433.7636955888
0.7306615710258484	1295388.9007735436
0.7329838871955872	1308932.0746556206
0.7353196740150452	1317714.7357530063
0.7376693487167358	1319711.4657022532
0.7400332689285278	1313418.3363912848
0.7424117922782898	1293733.3528717358
0.7448052167892456	1258962.4447055815
0.7472138404846191	1204999.9636173665
0.7496379613876343	1124211.1983789247
0.7520779371261597	1009925.6022824066
0.7545340061187744	856849.1481067423
0.7570064663887024	665847.3856170735
0.7594954967498779	450990.57069715665
0.7620013952255249	244582.92123059023
0.7645244002342224	92857.06452087658
0.7670646905899048	23179.925604569078
0.7696225643157959	26851.245475946507
0.7721980810165405	116920.84901784752
0.7747915983200073	313455.84746877104
0.7774031162261963	556523.6975996196
0.7800329327583313	809843.2908094595
0.7826811671257019	1125593.3202881676
0.7853479981422424	1450228.5543779458
0.7880334854125977	1694746.203836276
0.7907378077507019	1762394.8790838884
0.7934610247612	1593136.0352058283
0.7962033748626709	1690250.9374896258
0.7989648580551147	2176374.1302416874
0.801745593547821	2507283.986826751
0.8045456409454346	2643857.072424771
0.8073651194572449	2750721.36686058
0.8102040886878967	2838170.980460751
0.8130625486373901	2929300.8473067787
0.8159406185150146	3039573.78006497
0.8188382983207703	3148932.4941751184
0.8217556476593018	3253596.940357241
0.8246926665306091	3362898.354144565
0.8276493549346924	3466246.3397431704
0.8306257724761963	3560479.2667108327
0.8336219191551208	3655379.919711636
0.8366377949714661	3748573.6154528377
0.8396733403205872	3852834.7497488637
0.8427285552024841	3978917.220268357
0.8458034992218018	4100108.4612187142
0.8488980531692505	4191478.923660605
0.8520121574401855	4276116.22083579
0.8551458716392517	4406039.323558915
0.8582990765571594	4533863.911639974
0.8614717125892639	4583599.767154885
0.8646637797355652	4640742.132004016
0.8678751587867737	4774980.802774484
0.8711057901382446	4918472.605246313
0.8743556141853333	5040376.904440531
0.87762451171875	5148311.498569488
0.8809124231338501	5251057.652222323
0.8842192888259888	5371675.49956893
0.8875449895858765	5475854.788587715
0.8908893465995789	5515283.689166816
0.894252359867096	5570437.235797625
0.8976338505744934	5750283.949243873
0.9010337591171265	5988328.435469997
0.9044519662857056	6188377.308656345
0.9078882932662964	6351671.811473678
0.9113426208496094	6485197.432556524
0.914814829826355	6571777.916129692
0.9183048605918884	6665348.312869784
0.9218124747276306	6749902.4628657745
0.925337553024292	6524855.12802859
0.9288799166679382	6030403.14709811
0.9324395060539246	5878347.9079524325
0.9360161423683167	6197832.786360486
0.9396095871925354	6584256.275027365
0.943219780921936	6674939.097831168
0.9468464851379395	6624364.907890621
0.9504896402359009	6795531.485684301
0.9541489481925964	7083093.6169362785
0.9578243494033813	7167650.492155755
0.9615156054496765	6999726.789434941
0.9652225375175476	6967936.4387515085
0.9689450263977051	7326665.775642544
0.9726828336715698	7955727.841812822
0.9764357805252075	8448422.785783209
0.9802037477493286	8726340.287706565
0.983986496925354	8992482.87320869
0.9877838492393494	9280434.593907403
0.9915955662727356	9588502.892715452
0.9954215884208679	9861052.329773124
0.9992615580558777	10075071.625533884
1.0031154155731201	10273957.65161209
1.0069829225540161	10525435.627207322
1.0108637809753418	10822878.81008108
1.0147579908370972	11121672.350100875
1.018665075302124	11373612.364966657
1.022585153579712	11533574.715464601
1.0265177488327026	11648119.651206246
1.0304628610610962	11844511.858545411
1.0344202518463135	12171015.781092266
1.0383895635604858	12487483.872093063
1.0423706769943237	12722131.781943783
1.0463634729385376	12923149.110860994
1.0503677129745483	13114097.234632121
1.0543830394744873	13342761.941113174
1.058409333229065	13591423.687716769
1.0624464750289917	13813735.69362753
1.0664942264556885	14015344.45229077
1.0705522298812866	14212666.676643522
1.0746204853057861	14429315.867812628
1.0786986351013184	14657899.87649566
1.0827864408493042	14866774.180731976
1.086883783340454	14988120.751220422
1.0909905433654785	14974462.299421981
1.0951062440872192	14769266.015580852
1.0992310047149658	13840425.438927777
1.10336434841156	12373140.248986384
1.1075061559677124	11807817.16872134
1.1116561889648438	11765391.282525396
1.115814208984375	11317527.354800748
1.1199802160263062	11041812.17721994
1.124153733253479	11405209.458950553
1.1283347606658936	11737419.061526079
1.1325229406356812	11180244.951470364
1.1367181539535522	11461522.921688102
1.1409201622009277	13039617.765237017
1.145128846168518	13981157.83474952
1.1493438482284546	13075672.990854211
1.1535650491714478	11024069.427008554
1.1577922105789185	10307679.419355828
1.1620250940322876	11350431.809462309
1.1662636995315552	12926102.92869943
1.170507550239563	13998711.49353027
1.174756646156311	15070327.60995878
1.1790107488632202	16664041.461761417
1.1832695007324219	17929498.9817837
1.1875330209732056	18635921.547683366
1.191800832748413	19264935.221888393
1.1960728168487549	20009413.36483886
1.2003488540649414	20518491.07962658
1.2046287059783936	20790345.626030203
1.2089121341705322	21074471.439541657
1.2131990194320679	21457494.53299998
1.2174891233444214	21913452.28509767
1.2217823266983032	22350291.766777396
1.2260783910751343	22721800.97270835
1.230377197265625	23036042.664851885
1.2346785068511963	23318919.1320753
1.238982081413269	23619474.879496314
1.2432878017425537	23895180.414244793
1.2475954294204712	24049523.163280644
1.2519049644470215	24141841.444172285
1.256216049194336	24457398.64551104
1.2605286836624146	24833703.81410614
1.2648425102233887	25026966.683340214
1.2691574096679688	25181008.826948613
1.2734732627868652	25367653.473335225
1.2777899503707886	25553399.773511585
1.2821072340011597	25679816.10648695
1.2864248752593994	25688580.25393912
1.2907428741455078	25581319.74982677
1.2950609922409058	25629384.986493185
1.2993791103363037	25718273.560347714
1.303696870803833	25601723.957973447
1.3080145120620728	25607835.994315393
1.3123314380645752	25881226.81562597
1.3166478872299194	26226439.015632447
1.3209635019302368	25884528.249098796
1.3252781629562378	24306137.316450484
1.3295916318893433	20811842.65573409
1.3339040279388428	14626317.113992142
1.3382149934768677	7959767.830781125
1.3425244092941284	4749101.006299222
1.3468321561813354	4769627.057018125
1.3511382341384888	4223307.235950358
1.3554422855377197	3077266.749239869
1.3597444295883179	2830904.848550331
1.3640443086624146	3159881.5071746605
1.3683418035507202	4036884.9309862275
1.3726370334625244	6287784.248981915
1.3769296407699585	8490151.441710059
1.381219506263733	6783682.058885498
1.3855066299438477	3358846.0042729606
1.3897908926010132	2228949.0291190566
1.3940720558166504	2470092.470184356
1.3983501195907593	3041416.034299865
1.4026249647140503	4709346.500029044
1.4068963527679443	6074201.296665816
1.4111642837524414	4873343.173553427
1.4154287576675415	3771303.7857785034
1.419689416885376	3837680.472958895
1.4239463806152344	3751314.0436896244
1.4281994104385376	4469389.624303465
1.4324485063552856	5055891.104402409
1.436693549156189	5074473.024684913
1.440934419631958	5962712.35481996
1.4451709985733032	8188427.365847925
1.449403166770935	11287322.18863693
1.453631043434143	13329546.66196784
1.4578542709350586	14285232.566098822
1.4620729684829712	15385464.516592234
1.4662868976593018	15568191.367079422
1.4704961776733398	14786088.541952236
1.4747005701065063	14594448.487648962
1.4788999557495117	15415022.565284677
1.4830944538116455	17443883.596192617
1.4872838258743286	19578108.42123759
1.491468071937561	20173880.17655377
1.4956470727920532	20164280.337784257
1.4998208284378052	21415565.635198314
1.5039892196655273	23090817.854472227
1.5081522464752197	23455058.75673915
1.5123097896575928	23884314.387368474
1.5164618492126465	25535189.524783727
1.5206083059310913	27907808.2949105
1.5247491598129272	29571989.490722727
1.5288842916488647	29832775.79475216
1.5330137014389038	30368025.1960636
1.5371372699737549	31379457.814483605
1.541254997253418	31832425.151634213
1.545366883277893	32350226.354773417
1.5494728088378906	33209755.569822695
1.5535727739334106	33695204.89381694
1.5576666593551636	33647888.78323986
1.561754584312439	34020771.90656521
1.5658363103866577	35135077.17003182
1.5699119567871094	35819594.51657478
1.5739814043045044	35425437.353964545
1.5780447721481323	34733240.706497
1.582101821899414	35292789.34081292
1.5861525535583496	36773781.575754434
1.5901970863342285	37431358.52580341
1.5942351818084717	37200766.03576274
1.5982669591903687	36806827.27348412
1.6022924184799194	36732993.3533768
1.606311559677124	36955746.56835981
1.6103241443634033	36952907.436010115
1.6143304109573364	36622534.400456995
1.6183301210403442	36183576.06510235
1.6223233938217163	35737452.179933205
1.6263102293014526	35232330.05233333
1.6302905082702637	34649954.637432694
1.634264349937439	35293223.19050723
1.638231635093689	37383071.64447597
1.6421923637390137	38510054.942609206
1.646146535873413	37694965.86456673
1.6500942707061768	36695412.54698908
1.6540353298187256	37130965.2622547
1.6579699516296387	37829808.00236092
1.661897897720337	36606248.91746704
1.6658192873001099	33100990.844873685
1.6697341203689575	31725156.4488698
1.6736423969268799	34626198.986949064
1.677544116973877	36730197.98189024
1.6814392805099487	36615582.28627646
1.6853278875350952	36256766.88475567
1.6892099380493164	35374601.14897335
1.6930854320526123	33317747.086420003
1.696954369544983	31200976.30900954
1.7008168697357178	30902561.89929116
1.7046726942062378	31724547.294501152
1.708522081375122	32533044.680590443
1.712364912033081	33186815.15677467
1.7162011861801147	33998388.227449335
1.7200311422348022	34948201.87744474
1.723854422569275	35055439.227312036
1.7276713848114014	34218099.07696482
1.731481909751892	32657979.69761971
1.7352858781814575	30913333.811210744
1.7390835285186768	29763706.016242858
1.7428747415542603	28528310.3578035
1.7466596364974976	26570066.531924963
1.7504380941390991	24179475.37646338
1.7542102336883545	22743197.14940675
1.7579760551452637	25206707.769122534
1.7617355585098267	28409151.651594643
1.7654887437820435	26607242.31534345
1.7692357301712036	21339811.782210913
1.7729763984680176	15676588.921146808
1.776710867881775	10672038.028509693
1.7804391384124756	8735084.793006254
1.7841613292694092	8972093.902139105
1.7878772020339966	8175944.616198084
1.7915871143341064	8491659.235559305
1.7952908277511597	10761643.997562507
1.7989884614944458	11209285.603734037
1.8026801347732544	7910315.582452358
1.806365728378296	4259192.4420406725
1.8100452423095703	4373784.219235456
1.8137187957763672	5629291.432434174
1.817386507987976	4870623.152352898
1.8210482597351074	5594029.581758044
1.8247040510177612	6223914.031820872
1.828354001045227	3899712.719217871
1.8319982290267944	3225508.512549343
1.8356364965438843	5363953.284420157
1.8392690420150757	7456850.4335377375
1.8428958654403687	7633143.160517933
1.8465168476104736	7345323.786243238
1.8501322269439697	7493243.756763372
1.8537418842315674	5853119.682749031
1.8573459386825562	4084842.8569983556
1.860944390296936	3529582.546159114
1.864537239074707	2801727.177445167
1.8681244850158691	3216811.9194277823
1.871706247329712	5323754.508422901
1.8752825260162354	7741589.698857385
1.8788533210754395	10654267.640537081
1.8824186325073242	12720164.123866754
1.8859784603118896	11917271.415497707
1.8895330429077148	11205978.215345103
1.8930821418762207	13347462.143763825
1.8966259956359863	13135786.964286007
1.9001644849777222	7634344.437879462
1.9036977291107178	3732940.9368272536
1.9072256088256836	4151194.04571144
1.9107483625411987	4112328.931237279
1.9142658710479736	2493204.937910261
1.9177782535552979	2278973.9534195624
1.9212853908538818	3216010.6446637516
1.9247875213623047	3285303.2330375956
1.9282845258712769	3394775.2147117527
1.9317764043807983	4435264.380364959
1.9352631568908691	4920216.972407588
1.9387450218200684	4619731.569487782
1.942221760749817	4956336.618503747
1.9456936120986938	5663659.290190746
1.9491604566574097	6405076.603316129
1.952622413635254	6176334.783999808
1.956079363822937	4930229.949910942
1.959531545639038	4794684.843447857
1.962978720664978	5334111.3561372245
1.966421127319336	6748514.403910348
1.9698586463928223	9304116.003898077
1.9732913970947266	10580323.018688304
1.9767193794250488	11284400.824415345
1.9801424741744995	13256420.726808295
1.9835609197616577	15282068.160250109
1.9869745969772339	15467401.484550279
1.990383505821228	13541154.051675158
1.9937876462936401	12787235.834871123
1.9971871376037598	13139322.232345656
2.000581979751587	14246752.893331287
2.003972291946411	17401495.23108349
2.007357597351074	19955921.32473529
2.0107386112213135	22168798.54923042
2.0141148567199707	23059281.278733887
2.017486572265625	21291002.79424087
2.0208535194396973	21793478.43949486
2.0242159366607666	24948827.17043
2.027573823928833	26981405.698069736
2.0309269428253174	28294951.71553202
2.034275770187378	29960167.199857872
2.0376198291778564	31299359.319883198
2.040959596633911	32537620.23226253
2.044294595718384	34218074.480349466
2.0476250648498535	35965722.06295582
2.0509510040283203	36360272.46606064
2.054272413253784	35421804.062211566
2.057589530944824	35642840.71997142
2.0609018802642822	37059801.92131166
2.0642096996307373	38250536.710845634
2.0675129890441895	39040700.34625827
2.0708119869232178	39348229.45485366
2.074106216430664	39099957.67519607
2.0773961544036865	38909296.63975425
2.080681324005127	39255814.9989634
2.0839622020721436	39727686.941931605
2.087238311767578	40056545.51205087
2.090510129928589	40019873.19358021
2.0937774181365967	39651419.151890926
2.0970399379730225	39553084.94853451
2.1002981662750244	39588753.14049527
2.1035518646240234	39304881.66117309
2.1068007946014404	38924171.2467578
2.1100454330444336	39190387.338842
2.1132853031158447	39707466.01631948
2.116520881652832	39459061.34074042
2.1197516918182373	39088194.87777968
2.1229779720306396	39234654.90824968
2.12619948387146	39488678.41842311
2.1294167041778564	39548178.462183714
2.132629156112671	39543342.22878134
2.1358368396759033	39202385.148198366
2.139039993286133	38464947.09194353
2.1422386169433594	37763939.01632615
2.145432472229004	37188534.675223865
2.1486217975616455	36738092.36336864
2.151806354522705	36218696.75152158
2.1549863815307617	36117788.73290972
2.1581614017486572	36217151.38497623
2.16133189201355	35672504.99401656
2.1644976139068604	35140099.83894552
2.167658567428589	34964970.40150478
2.1708147525787354	34900204.573484525
2.173966407775879	34687898.67891934
2.1771130561828613	34255737.53415032
2.1802549362182617	33721880.91636716
2.183391809463501	32947002.97911918
2.1865241527557373	31928101.263573818
2.1896514892578125	30553035.572170228
2.1927738189697266	27911159.692752372
2.1958916187286377	23759969.47354932
2.1990041732788086	19866901.641097236
2.2021119594573975	17680627.849756233
2.2052149772644043	16796630.561556254
2.208312749862671	16953258.059361737
2.2114057540893555	18285900.989501
2.214493751525879	19692668.647273168
2.217576742172241	19834984.55621859
2.2206547260284424	19401637.98662305
2.2237277030944824	18977158.461743433
2.2267956733703613	17491928.377857767
2.2298583984375	15361429.41058861
2.2329163551330566	14052834.237476435
2.235969066619873	13717310.167739308
2.2390167713165283	13346085.744025819
2.2420592308044434	12057877.542920448
2.2450966835021973	10617550.484121993
2.248128890991211	10802226.638437746
2.2511560916900635	12161136.23078583
2.254178285598755	12966407.110651739
2.257194995880127	13480429.271332927
2.260206699371338	13544336.40910346
2.2632133960723877	12192420.937376156
2.266214609146118	10437147.519533902
2.2692108154296875	9820247.19204828
2.2722020149230957	10580927.626239505
2.2751877307891846	11555079.039118186
2.278168201446533	11469086.422582256
2.2811436653137207	10633174.748729514
2.284113883972168	9936461.899751404
2.287078857421875	9352229.9512344
2.290038824081421	8753100.929657288
2.2929933071136475	8401148.024362585
2.295942783355713	8259034.966937441
2.298887014389038	8155847.855232417
2.301826238632202	8235554.193300342
2.304760217666626	8802526.06920325
2.3076889514923096	9879678.282398244
2.310612440109253	10963641.26990307
2.3135311603546143	10704719.526888374
2.3164443969726562	8369945.390584309
2.319352865219116	5983222.0916601205
2.322256088256836	5233515.317920688
2.3251543045043945	5171577.202545989
2.328047275543213	5063033.437190337
2.330935478210449	5136584.411507934
2.3338186740875244	5286328.778986898
2.3366971015930176	5346110.881400375
2.3395702838897705	5371201.941650827
2.3424389362335205	5248891.509297658
2.3453025817871094	4994623.657836182
2.348161458969116	4935244.457126958
2.351015567779541	5457275.930191937
2.353865146636963	6506197.628759286
2.3567099571228027	7422948.516252767
2.3595502376556396	8116261.464964508
2.3623859882354736	8859929.930088043
2.3652172088623047	8690399.263036737
2.368043899536133	6773007.219833778
2.370866537094116	4639652.500672626
2.3736846446990967	4151326.9261702336
2.3764986991882324	4534076.6823905585
2.3793084621429443	4626041.433297041
2.3821144104003906	4889252.791603325
2.384916305541992	5846572.846545749
2.387714147567749	6902924.6170548685
2.3905084133148193	7224467.2528969655
2.393299102783203	7094287.556644078
2.3960859775543213	6947802.232836795
2.398869514465332	6899126.346245194
2.4016497135162354	6752070.463511558
2.4044265747070312	6562607.309504121
2.407200336456299	7087977.068630123
2.409970998764038	8197016.219928307
2.4127390384674072	8892315.624891125
2.415503978729248	9211199.802171517
2.418266534805298	9967068.759472411
2.4210267066955566	10605091.792181915
2.4237842559814453	9930584.984292105
2.426539897918701	8802243.022135535
2.429293394088745	8901388.356821466
2.4320452213287354	9879361.937309938
2.4347951412200928	10395744.984123772
2.4375438690185547	10262035.694853727
2.440291166305542	9926767.337964185
2.443037271499634	9306541.953928016
2.445782423019409	8259417.302950457
2.4485268592834473	7165902.545830161
2.451270818710327	6833983.248993661
2.454014539718628	7954616.914816461
2.4567582607269287	9207395.945158597
2.4595019817352295	9000416.284344928
2.4622461795806885	9052789.234505486
2.4649908542633057	9178633.275217844
2.4677364826202393	7538089.127652567
2.4704833030700684	5451539.548000946
2.473231554031372	4031315.914101997
2.4759814739227295	3134380.3058730015
2.4787333011627197	2829981.7182480837
2.481487512588501	3278416.859606956
