#wavelength	surface flux
0.6450077295303345	67370.0400559996
0.6472567915916443	104465.06547616617
0.6494921445846558	132490.87967749048
0.6517150402069092	147030.61223130886
0.6539263725280762	161035.70758975428
0.6561272740364075	175255.01654166044
0.6583186388015747	189826.19677489082
0.6605015397071838	204770.4393987835
0.6626768708229065	219710.41664550852
0.6648455858230591	233245.45059570266
0.6670085787773132	235871.69618008722
0.6691668033599854	212932.34899763632
0.6713210344314575	203526.94759658995
0.6734722256660461	249808.66956945803
0.6756211519241333	303972.26349346497
0.6777685880661011	332283.57419026946
0.6799154281616211	351866.0476266366
0.6820623278617859	369934.3316389976
0.6842101216316223	387446.8145063332
0.6863595843315125	404505.0903601372
0.688511312007904	420543.8216270914
0.6906660795211792	433945.21836257906
0.6928245425224304	446871.9825638814
0.6949873566627502	464062.4713736654
0.6971551775932312	482403.0260286171
0.6993286609649658	497370.09207970614
0.7015084028244019	510086.2988913368
0.7036949396133423	522870.8979322773
0.7058889269828796	535602.0366417108
0.7080909013748169	546080.1353192468
0.710301399230957	554751.3375723195
0.712520956993103	561749.6761792735
0.7147500514984131	563572.3997049112
0.7169892191886902	560642.1750254547
0.7192389369010925	559302.3262161465
0.7214996814727783	557612.9348926193
0.723771870136261	549499.9757270706
0.7260559797286987	536746.5275340597
0.7283523678779602	521373.83949427214
0.7306615710258484	503470.6069545533
0.7329838871955872	483153.01088628924
0.7353196740150452	457800.4279380112
0.7376693487167358	426408.87849196565
0.7400332689285278	389581.35273048055
0.7424117922782898	346877.18703612674
0.7448052167892456	300088.09271478374
0.7472138404846191	250730.8057090978
0.7496379613876343	199857.18886049782
0.7520779371261597	150040.9424212816
0.7545340061187744	104269.24350871908
0.7570064663887024	65513.46490108125
0.7594954967498779	36102.44513341605
0.7620013952255249	16714.34833344933
0.7645244002342224	6097.029790881134
0.7670646905899048	1901.148066495476
0.7696225643157959	2137.0562284278903
0.7721980810165405	8022.515935116723
0.7747915983200073	22974.638293775126
0.7774031162261963	46721.637918336804
0.7800329327583313	84889.68033935856
0.7826811671257019	152885.7334654358
0.7853479981422424	245164.49193863082
0.7880334854125977	342399.27835866326
0.7907378077507019	398424.4262673846
0.7934610247612	386827.0171312916
0.7962033748626709	486730.742921467
0.7989648580551147	742437.8287118202
0.801745593547821	955510.0649626486
0.8045456409454346	1100294.3238640472
0.8073651194572449	1229505.63700471
0.8102040886878967	1343887.5591615879
0.8130625486373901	1461902.6991201155
0.8159406185150146	1598414.7967692832
0.8188382983207703	1735237.8078587453
0.8217556476593018	1870024.261233484
0.8246926665306091	2011272.0962223047
0.8276493549346924	2144448.6276637996
0.8306257724761963	2265317.2607041
0.8336219191551208	2385663.3801349043
0.8366377949714661	2503791.2794988994
0.8396733403205872	2638615.3624523357
0.8427285552024841	2803257.779465843
0.8458034992218018	2949145.997166474
0.8488980531692505	3000291.6978921955
0.8520121574401855	3025629.2581165037
0.8551458716392517	3223203.4296358605
0.8582990765571594	3481563.949999054
0.8614717125892639	3606599.327515624
0.8646637797355652	3699609.539271207
0.8678751587867737	3849252.5791390627
0.8711057901382446	4012491.3429346755
0.8743556141853333	4158821.150458121
0.87762451171875	4288679.451070225
0.8809124231338501	4397073.7837406695
0.8842192888259888	4500188.256186615
0.8875449895858765	4571867.371538803
0.8908893465995789	4517731.975166558
0.894252359867096	4458728.988100995
0.8976338505744934	4688522.188891803
0.9010337591171265	5090270.532706921
0.9044519662857056	5381208.846806652
0.9078882932662964	5567575.913909845
0.9113426208496094	5705262.082952738
0.914814829826355	5769889.804925599
0.9183048605918884	5842116.696369874
0.9218124747276306	5888096.386975957
0.925337553024292	5426232.863379729
0.9288799166679382	4548445.458769291
0.9324395060539246	4195489.65593384
0.9360161423683167	4553784.513052703
0.9396095871925354	5040133.181165144
0.943219780921936	5076909.251593892
0.9468464851379395	4886770.662810138
0.9504896402359009	5060006.649352082
0.9541489481925964	5435691.00032708
0.9578243494033813	5486852.1066423375
0.9615156054496765	5119668.302375799
0.9652225375175476	4962055.83120924
0.9689450263977051	5435042.4608603325
0.9726828336715698	6336300.209867802
0.9764357805252075	7016115.497390961
0.9802037477493286	7360857.603751821
0.983986496925354	7689248.318315037
0.9877838492393494	8078883.040664397
0.9915955662727356	8521756.652862623
0.9954215884208679	8870686.542943304
0.9992615580558777	9113678.267072931
1.0031154155731201	9350573.407630334
1.0069829225540161	9659307.385923803
1.0108637809753418	10026111.250534777
1.0147579908370972	10387761.619086009
1.018665075302124	10679298.428378837
1.022585153579712	10863357.703730352
1.0265177488327026	11011143.531901812
1.0304628610610962	11244842.505224487
1.0344202518463135	11569459.520275205
1.0383895635604858	11861105.98139413
1.0423706769943237	12084681.449563429
1.0463634729385376	12277697.939433709
1.0503677129745483	12466542.106130084
1.0543830394744873	12689629.693269534
1.058409333229065	12926095.260346929
1.0624464750289917	13132207.998563293
1.0664942264556885	13303935.949044766
1.0705522298812866	13463690.268935014
1.0746204853057861	13657617.599138469
1.0786986351013184	13873500.113668641
1.0827864408493042	14053401.5732876
1.086883783340454	14058736.06094646
1.0909905433654785	13790217.92136422
1.0951062440872192	13205651.083405761
1.0992310047149658	11541184.894657336
1.10336434841156	9139214.657533469
1.1075061559677124	8143418.459039146
1.1116561889648438	7955580.677576184
1.115814208984375	7213056.289884091
1.1199802160263062	6683981.142332776
1.124153733253479	6934345.208862353
1.1283347606658936	7264398.192520655
1.1325229406356812	6795953.070659352
1.1367181539535522	7228001.626609665
1.1409201622009277	8850537.98432306
1.145128846168518	9782785.249714125
1.1493438482284546	8673659.605031382
1.1535650491714478	6117743.927829929
1.1577922105789185	5057023.291974867
1.1620250940322876	6062648.231780483
1.1662636995315552	7720823.184656262
1.170507550239563	8909603.588185804
1.174756646156311	10329035.273961794
1.1790107488632202	12561038.957934394
1.1832695007324219	14448311.098217059
1.1875330209732056	15521159.391723756
1.191800832748413	16472646.30481886
1.1960728168487549	17633588.974411175
1.2003488540649414	18435877.37386262
1.2046287059783936	18834522.625864502
1.2089121341705322	19111687.069585368
1.2131990194320679	19505769.204989612
1.2174891233444214	20112740.06614004
1.2217823266983032	20720270.186475687
1.2260783910751343	21213857.929481767
1.230377197265625	21592077.40908278
1.2346785068511963	21893918.52675774
1.238982081413269	22214370.681748126
1.2432878017425537	22508393.74608363
1.2475954294204712	22717178.363763757
1.2519049644470215	22885402.799682364
1.256216049194336	23217884.76846836
1.2605286836624146	23542217.867470477
1.2648425102233887	23667027.253661785
1.2691574096679688	23763355.46854017
1.2734732627868652	23891063.759601995
1.2777899503707886	23974879.804430544
1.2821072340011597	23945118.59768128
1.2864248752593994	23729722.57414328
1.2907428741455078	23294143.269235548
1.2950609922409058	23151868.849835336
1.2993791103363037	23109810.503045984
1.303696870803833	22655072.602286007
1.3080145120620728	22366547.111725215
1.3123314380645752	22588328.315787815
1.3166478872299194	23070870.63962787
1.3209635019302368	22354216.461986147
1.3252781629562378	19642074.2954249
1.3295916318893433	15086699.870011033
1.3339040279388428	8858524.34565897
1.3382149934768677	3638272.149020015
1.3425244092941284	1551944.4814920393
1.3468321561813354	1353707.4971562473
1.3511382341384888	1105179.2875881086
1.3554422855377197	714388.2977916969
1.3597444295883179	624130.6847408927
1.3640443086624146	684319.4363726781
1.3683418035507202	947744.722282221
1.3726370334625244	1847771.4434983116
1.3769296407699585	2863006.6757274373
1.381219506263733	2284342.9535656325
1.3855066299438477	915852.8637818282
1.3897908926010132	449095.42675055977
1.3940720558166504	537554.9830729004
1.3983501195907593	763557.0352435356
1.4026249647140503	1364243.5895539273
1.4068963527679443	1828873.157617197
1.4111642837524414	1392892.4016386808
1.4154287576675415	975095.8527342548
1.419689416885376	949149.9581076694
1.4239463806152344	910085.7005419381
1.4281994104385376	1188469.408273097
1.4324485063552856	1497716.2190915002
1.436693549156189	1611266.0752260906
1.440934419631958	1958279.389889287
1.4451709985733032	2996695.207206353
1.449403166770935	4767580.632570701
1.453631043434143	6040932.133035553
1.4578542709350586	6696593.448942582
1.4620729684829712	7518608.847712819
1.4662868976593018	7627052.90755079
1.4704961776733398	6877310.907334381
1.4747005701065063	6478154.884564502
1.4788999557495117	6963864.657972514
1.4830944538116455	8649872.008288361
1.4872838258743286	10461875.706892932
1.491468071937561	10874270.623241274
1.4956470727920532	10711421.353987614
1.4998208284378052	11789854.349118872
1.5039892196655273	13405316.351554088
1.5081522464752197	13808905.703006567
1.5123097896575928	14331471.975634323
1.5164618492126465	16215688.792713236
1.5206083059310913	19027424.84361732
1.5247491598129272	21151886.306413498
1.5288842916488647	21576461.04322408
1.5330137014389038	22161118.23766041
1.5371372699737549	23466176.806378223
1.541254997253418	24504748.437870797
1.545366883277893	25644052.689264383
1.5494728088378906	26836839.66197493
1.5535727739334106	27495530.531784493
1.5576666593551636	27883717.193141583
1.561754584312439	28844858.82038236
1.5658363103866577	30115992.82569808
1.5699119567871094	30662786.299779255
1.5739814043045044	30424437.639627267
1.5780447721481323	30169023.268396884
1.582101821899414	30798568.17778645
1.5861525535583496	31891772.59881521
1.5901970863342285	32200608.764888532
1.5942351818084717	31700342.972817577
1.5982669591903687	31097591.690857988
1.6022924184799194	30647800.53197649
1.606311559677124	30249678.427512243
1.6103241443634033	29878594.905106455
1.6143304109573364	29161472.381477654
1.6183301210403442	27829961.009033773
1.6223233938217163	26072851.828319244
1.6263102293014526	24035073.05426082
1.6302905082702637	22398059.35191413
1.634264349937439	23589247.842222653
1.638231635093689	27543269.079571616
1.6421923637390137	29534962.247401595
1.646146535873413	27486310.982873734
1.6500942707061768	25082845.661554717
1.6540353298187256	25741377.626714315
1.6579699516296387	27124824.805020582
1.661897897720337	25388542.989170775
1.6658192873001099	20015111.57621317
1.6697341203689575	17342021.362189133
1.6736423969268799	20905617.539056122
1.677544116973877	23539632.60272322
1.6814392805099487	22929535.157191735
1.6853278875350952	22015041.671401434
1.6892099380493164	20588232.746556576
1.6930854320526123	17936020.053184234
1.696954369544983	15191438.2095034
1.7008168697357178	14543402.02032915
1.7046726942062378	15637813.666810477
1.708522081375122	17110563.549480833
1.712364912033081	18345500.927982006
1.7162011861801147	19572055.336503573
1.7200311422348022	20852361.160837512
1.723854422569275	21033403.0524725
1.7276713848114014	20083182.919529784
1.731481909751892	18525443.247127373
1.7352858781814575	16935829.83067725
1.7390835285186768	16061227.467644447
1.7428747415542603	15265725.019697051
1.7466596364974976	13845945.787953757
1.7504380941390991	12132934.84870925
1.7542102336883545	11199438.503468256
1.7579760551452637	12956155.964672083
1.7617355585098267	15014744.644562094
1.7654887437820435	13513843.658912336
1.7692357301712036	9902895.366034806
1.7729763984680176	6518940.908218968
1.776710867881775	3944899.949831531
1.7804391384124756	2985710.609179925
1.7841613292694092	3056452.822689966
1.7878772020339966	2747778.9454117315
1.7915871143341064	2967097.7850324046
1.7952908277511597	4278411.7383871
1.7989884614944458	4823558.788197955
1.8026801347732544	3223653.4844971425
1.806365728378296	1411240.7588213119
1.8100452423095703	1394692.5795950962
1.8137187957763672	1828922.8726768298
1.817386507987976	1516323.5572241072
1.8210482597351074	1721354.4252874416
1.8247040510177612	1899174.5129937057
1.828354001045227	1083130.9282065763
1.8319982290267944	821245.2893033039
1.8356364965438843	1547244.1808918004
1.8392690420150757	2296499.4251458994
1.8428958654403687	2347091.6650002203
1.8465168476104736	2327352.6064788047
1.8501322269439697	2611143.278553024
1.8537418842315674	2123261.073752349
1.8573459386825562	1395228.7173823647
1.860944390296936	1126755.510344913
1.864537239074707	789310.341502862
1.8681244850158691	794211.2157574246
1.871706247329712	1455545.7228343384
1.8752825260162354	2459997.527606439
1.8788533210754395	4042978.097584212
1.8824186325073242	5251445.302299825
1.8859784603118896	4816218.581201258
1.8895330429077148	4367380.834104223
1.8930821418762207	5516331.257537151
1.8966259956359863	5501218.699751144
1.9001644849777222	2798318.765801066
1.9036977291107178	924804.5686695863
1.9072256088256836	963072.1419569503
1.9107483625411987	954777.2449271148
1.9142658710479736	548374.1158269007
1.9177782535552979	520612.248964479
1.9212853908538818	786690.0632404342
1.9247875213623047	815021.5327784137
1.9282845258712769	855544.3527866928
1.9317764043807983	1165411.9076058979
1.9352631568908691	1331307.9245227028
1.9387450218200684	1304999.3711632604
1.942221760749817	1510042.7755479852
1.9456936120986938	1847951.1016551221
1.9491604566574097	2243081.4045554968
1.952622413635254	2203909.3717691214
1.956079363822937	1682563.6940650975
1.959531545639038	1591415.2682038734
1.962978720664978	1825837.259238064
1.966421127319336	2478802.8664958905
1.9698586463928223	3637104.8229237986
1.9732913970947266	4214868.357072406
1.9767193794250488	4463238.478602983
1.9801424741744995	5360720.297962206
1.9835609197616577	6486107.232129677
1.9869745969772339	6716659.098759439
1.990383505821228	5838137.934816279
1.9937876462936401	5599674.2646648325
1.9971871376037598	5856366.559761923
2.000581979751587	6412997.85732169
2.003972291946411	8098054.908578425
2.007357597351074	9619618.576365499
2.0107386112213135	11000182.582937095
2.0141148567199707	11381939.577311095
2.017486572265625	10104098.159144484
2.0208535194396973	10119061.010888342
2.0242159366607666	11626032.824508768
2.027573823928833	12884857.91472032
2.0309269428253174	14045119.126358174
2.034275770187378	15044381.53848771
2.0376198291778564	15879403.052260637
2.040959596633911	17134559.912227284
2.044294595718384	18715975.298264075
2.0476250648498535	20214236.33539982
2.0509510040283203	20496351.442744546
2.054272413253784	19524627.027683247
2.057589530944824	19561770.438415915
2.0609018802642822	20719975.3224741
2.0642096996307373	21657688.51726764
2.0675129890441895	22181018.548332904
2.0708119869232178	22254163.648647673
2.074106216430664	21904010.11842566
2.0773961544036865	21658515.99789745
2.080681324005127	21831679.205220092
2.0839622020721436	22042641.76436973
2.087238311767578	22122980.85145552
2.090510129928589	22004481.935381453
2.0937774181365967	21643759.84662886
2.0970399379730225	21399278.75578545
2.1002981662750244	21230252.304152224
2.1035518646240234	20860060.557979204
2.1068007946014404	20397001.12549806
2.1100454330444336	20353838.12933142
2.1132853031158447	20492710.62466802
2.116520881652832	20105223.900150403
2.1197516918182373	19645380.8140745
2.1229779720306396	19571848.99059011
2.12619948387146	19649778.9813321
2.1294167041778564	19623606.772336584
2.132629156112671	19487201.746530358
2.1358368396759033	19028709.674459267
2.139039993286133	18302007.529134564
2.1422386169433594	17596589.768151388
2.145432472229004	16915732.170871984
2.1486217975616455	16403685.431019267
2.151806354522705	15892606.621394671
2.1549863815307617	15776150.767493227
2.1581614017486572	15805112.077981878
2.16133189201355	15163807.014466915
2.1644976139068604	14565031.549358463
2.167658567428589	14407507.366508711
2.1708147525787354	14495642.488603266
2.173966407775879	14569622.831813939
2.1771130561828613	14295448.808845786
2.1802549362182617	13628038.779601136
2.183391809463501	12749341.046375072
2.1865241527557373	11870101.922301453
2.1896514892578125	10859871.400553662
2.1927738189697266	9244296.702029113
2.1958916187286377	7050501.140645436
2.1990041732788086	5187030.321517256
2.2021119594573975	4254331.775205211
2.2052149772644043	4016434.6045410796
2.208312749862671	4181728.1330023394
2.2114057540893555	4684221.4953343775
2.214493751525879	5170151.799089234
2.217576742172241	5156054.471938104
2.2206547260284424	4903332.779155322
2.2237277030944824	4718651.471933349
2.2267956733703613	4236102.505058747
2.2298583984375	3528143.2092822464
2.2329163551330566	3073627.056105281
2.235969066619873	2929673.691859601
2.2390167713165283	2791215.669826564
2.2420592308044434	2392054.8183595543
2.2450966835021973	1925373.7253641803
2.248128890991211	1953951.8384796241
2.2511560916900635	2386306.9161375184
2.254178285598755	2639436.8566528438
2.257194995880127	2796566.0728904633
2.260206699371338	2858328.2742626215
2.2632133960723877	2546652.2003456857
2.266214609146118	2148754.166924707
2.2692108154296875	2037999.789397675
2.2722020149230957	2261767.5311345966
2.2751877307891846	2532332.146592511
2.278168201446533	2522243.324132202
2.2811436653137207	2322052.4537890484
2.284113883972168	2159558.0861098515
2.287078857421875	2014823.7822879592
2.290038824081421	1886561.5675723187
2.2929933071136475	1904658.8931861587
2.295942783355713	2038518.4770227757
2.298887014389038	2152821.6772144
2.301826238632202	2310580.464366007
2.304760217666626	2846091.034216135
2.3076889514923096	3811068.47104041
2.310612440109253	4590410.822724024
2.3135311603546143	4303843.316864849
2.3164443969726562	2910588.265043255
2.319352865219116	1727927.9214770352
2.322256088256836	1467327.1104326784
2.3251543045043945	1511249.6393806674
2.328047275543213	1489580.0361406838
2.330935478210449	1488992.9275119728
2.3338186740875244	1491323.3744308364
2.3366971015930176	1451838.2758847475
2.3395702838897705	1405797.6089517144
2.3424389362335205	1317481.8837935175
2.3453025817871094	1186665.3203715978
2.348161458969116	1145408.9731829357
2.351015567779541	1336197.65633342
2.353865146636963	1724195.466624182
2.3567099571228027	2076201.702300542
2.3595502376556396	2331204.970049351
2.3623859882354736	2539351.5373630826
2.3652172088623047	2421868.430465921
2.368043899536133	1802330.9126077367
2.370866537094116	1148674.0360044139
2.3736846446990967	981199.6969314424
2.3764986991882324	1137999.022074822
2.3793084621429443	1289861.0021616805
2.3821144104003906	1462028.687189787
2.384916305541992	1747328.9311967308
2.387714147567749	1969796.3746801899
2.3905084133148193	1935729.0056011924
2.393299102783203	1859939.2193704778
2.3960859775543213	1930481.4754737657
2.398869514465332	2070024.8709419826
2.4016497135162354	2085726.9824866161
2.4044265747070312	2022532.6084661095
2.407200336456299	2242873.6756869284
2.409970998764038	2730692.9022801337
2.4127390384674072	3051822.4348324025
2.415503978729248	3165299.6406484307
2.418266534805298	3449332.6702541113
2.4210267066955566	3725680.6374617936
2.4237842559814453	3452615.180875129
2.426539897918701	3031857.9635835597
2.429293394088745	3268978.633222304
2.4320452213287354	3880415.545217247
2.4347951412200928	4099748.789257729
2.4375438690185547	3979748.7195897773
2.440291166305542	3942208.6218069517
2.443037271499634	3842796.3382678838
2.445782423019409	3407061.047714404
2.4485268592834473	2860125.1176913693
2.451270818710327	2720441.144730287
2.454014539718628	3188692.1794368974
2.4567582607269287	3630930.6683187447
2.4595019817352295	3604688.7248511054
2.4622461795806885	3763470.5559824253
2.4649908542633057	3845185.187880865
2.4677364826202393	3156179.0968024097
2.4704833030700684	2295449.222508852
2.473231554031372	1731741.396007144
2.4759814739227295	1379091.10407111
