#wavelength	surface flux
0.6450077295303345	304791.24672761344
0.6472567915916443	458309.5901546268
0.6494921445846558	550329.4416314812
0.6517150402069092	573394.2951077971
0.6539263725280762	591889.7560731642
0.6561272740364075	609918.6522689206
0.6583186388015747	628772.9893177026
0.6605015397071838	648418.6743171115
0.6626768708229065	667191.6899551747
0.6648455858230591	686426.8420423138
0.6670085787773132	698094.1374952861
0.6691668033599854	681689.4950408258
0.6713210344314575	678742.7790157457
0.6734722256660461	732301.9494463707
0.6756211519241333	788174.2225058365
0.6777685880661011	816609.9324102359
0.6799154281616211	837285.046194578
0.6820623278617859	859828.9206559999
0.6842101216316223	886801.1162758146
0.6863595843315125	912677.6437736071
0.688511312007904	935051.1085758588
0.6906660795211792	953827.2991159586
0.6928245425224304	976042.3783629561
0.6949873566627502	1007265.5171594466
0.6971551775932312	1038922.7851611816
0.6993286609649658	1066378.3337687126
0.7015084028244019	1092896.567097547
0.7036949396133423	1120512.6878059986
0.7058889269828796	1149344.388395691
0.7080909013748169	1177983.6537221894
0.710301399230957	1206871.3122861155
0.712520956993103	1236283.441341528
0.7147500514984131	1263657.197114367
0.7169892191886902	1289462.3130655172
0.7192389369010925	1318777.0478422851
0.7214996814727783	1350335.9788099176
0.723771870136261	1380438.8564717688
0.7260559797286987	1410435.6652623485
0.7283523678779602	1440697.7602222029
0.7306615710258484	1472056.3629947973
0.7329838871955872	1505765.1394893485
0.7353196740150452	1539133.0277087628
0.7376693487167358	1571587.593236344
0.7400332689285278	1603127.8502872358
0.7424117922782898	1630878.465658105
0.7448052167892456	1654993.773610942
0.7472138404846191	1673776.137383937
0.7496379613876343	1681629.3611651498
0.7520779371261597	1670519.6294931257
0.7545340061187744	1625916.4363741197
0.7570064663887024	1519387.3708076659
0.7594954967498779	1296333.6936370276
0.7620013952255249	902063.7504304622
0.7645244002342224	429373.6163219341
0.7670646905899048	127865.50468961362
0.7696225643157959	138878.6772285417
0.7721980810165405	498071.5054556835
0.7747915983200073	1080507.7475145005
0.7774031162261963	1565957.2429594304
0.7800329327583313	1857319.2544318973
0.7826811671257019	2089983.9046160744
0.7853479981422424	2288598.256417073
0.7880334854125977	2420993.685722047
0.7907378077507019	2431856.2816377007
0.7934610247612	2249131.7844753074
0.7962033748626709	2263182.1862727255
0.7989648580551147	2616440.646938026
0.801745593547821	2863398.8636464514
0.8045456409454346	2950005.8613884547
0.8073651194572449	3019764.8082161713
0.8102040886878967	3079925.533119891
0.8130625486373901	3147520.2400214076
0.8159406185150146	3235323.220078934
0.8188382983207703	3324986.3790841545
0.8217556476593018	3405339.2186655537
0.8246926665306091	3487947.1578754266
0.8276493549346924	3572189.0269505223
0.8306257724761963	3653272.2186201853
0.8336219191551208	3736248.1643286506
0.8366377949714661	3818080.816535328
0.8396733403205872	3907600.170705168
0.8427285552024841	4013495.426308445
0.8458034992218018	4119431.829133997
0.8488980531692505	4216557.998942459
0.8520121574401855	4312968.483372118
0.8551458716392517	4418039.061648269
0.8582990765571594	4512657.190571592
0.8614717125892639	4567392.589121402
0.8646637797355652	4634353.785591809
0.8678751587867737	4754068.242356743
0.8711057901382446	4878271.825570127
0.8743556141853333	4989692.314162881
0.87762451171875	5095194.895313061
0.8809124231338501	5200169.1797910575
0.8842192888259888	5318459.04477539
0.8875449895858765	5425158.915420195
0.8908893465995789	5494337.520804503
0.894252359867096	5577020.954878535
0.8976338505744934	5725033.352335633
0.9010337591171265	5900605.622150835
0.9044519662857056	6059942.772702976
0.9078882932662964	6201956.509025136
0.9113426208496094	6327409.850040209
0.914814829826355	6424994.765146305
0.9183048605918884	6527216.650879837
0.9218124747276306	6620071.320423943
0.925337553024292	6500785.666427338
0.9288799166679382	6198340.850904065
0.9324395060539246	6140320.64570954
0.9360161423683167	6410702.376065681
0.9396095871925354	6719210.019445245
0.943219780921936	6826169.468590543
0.9468464851379395	6838952.981526171
0.9504896402359009	6997798.94226668
0.9541489481925964	7232840.05283932
0.9578243494033813	7328392.10724162
0.9615156054496765	7252666.700118889
0.9652225375175476	7271342.512297365
0.9689450263977051	7556965.348036906
0.9726828336715698	8033275.1561981775
0.9764357805252075	8420949.129340762
0.9802037477493286	8658233.85226975
0.983986496925354	8883341.847034506
0.9877838492393494	9115717.599149272
0.9915955662727356	9358630.207653683
0.9954215884208679	9593107.799733818
0.9992615580558777	9795682.42913771
1.0031154155731201	9979004.992340598
1.0069829225540161	10198112.71429671
1.0108637809753418	10452005.973461492
1.0147579908370972	10708095.404607411
1.018665075302124	10937582.279039245
1.022585153579712	11104546.146580845
1.0265177488327026	11240923.113413703
1.0304628610610962	11435616.199561642
1.0344202518463135	11711216.231868926
1.0383895635604858	11976349.472224861
1.0423706769943237	12189957.650281746
1.0463634729385376	12384910.560506698
1.0503677129745483	12575439.862420337
1.0543830394744873	12787480.54145275
1.058409333229065	13010766.795288535
1.0624464750289917	13218935.105137965
1.0664942264556885	13416541.509000968
1.0705522298812866	13612325.060733618
1.0746204853057861	13819015.085790042
1.0786986351013184	14033259.774024025
1.0827864408493042	14235634.586267762
1.086883783340454	14379770.17411962
1.0909905433654785	14432925.145958114
1.0951062440872192	14355549.542084277
1.0992310047149658	13774529.961939445
1.10336434841156	12807366.780190323
1.1075061559677124	12465792.446367225
1.1116561889648438	12502141.229348183
1.115814208984375	12270898.792238671
1.1199802160263062	12187304.69191756
1.124153733253479	12570529.772156274
1.1283347606658936	12864922.457092403
1.1325229406356812	12426822.200165927
1.1367181539535522	12660197.981109716
1.1409201622009277	13921316.334480966
1.145128846168518	14680198.359821578
1.1493438482284546	14087084.978659024
1.1535650491714478	12687170.374473283
1.1577922105789185	12256698.303571386
1.1620250940322876	13092992.365905998
1.1662636995315552	14299809.039364168
1.170507550239563	15108664.911120314
1.174756646156311	15892318.609511726
1.1790107488632202	17038093.29081583
1.1832695007324219	17933255.88601374
1.1875330209732056	18447635.15916501
1.191800832748413	18918966.68168238
1.1960728168487549	19471788.905891374
1.2003488540649414	19876319.579431105
1.2046287059783936	20126316.45445263
1.2089121341705322	20375445.784533836
1.2131990194320679	20691281.394031454
1.2174891233444214	21065727.00095234
1.2217823266983032	21427688.879121035
1.2260783910751343	21743676.33064737
1.230377197265625	22022125.926987216
1.2346785068511963	22280135.407812748
1.238982081413269	22551392.0869751
1.2432878017425537	22811325.78152861
1.2475954294204712	23012264.82196127
1.2519049644470215	23183244.78038369
1.256216049194336	23442586.22481303
1.2605286836624146	23710955.41173939
1.2648425102233887	23893280.62539765
1.2691574096679688	24064763.58991959
1.2734732627868652	24258138.357895777
1.2777899503707886	24450741.08139902
1.2821072340011597	24605840.97062422
1.2864248752593994	24686774.78352525
1.2907428741455078	24692898.744964022
1.2950609922409058	24798776.856620982
1.2993791103363037	24931275.92472363
1.303696870803833	24932443.002303753
1.3080145120620728	25028271.602954768
1.3123314380645752	25310638.49744869
1.3166478872299194	25604382.145610925
1.3209635019302368	25414557.27089287
1.3252781629562378	24390679.231678016
1.3295916318893433	21821959.10425488
1.3339040279388428	16650877.169979151
1.3382149934768677	10390689.40360088
1.3425244092941284	7240089.259331352
1.3468321561813354	7552949.636702764
1.3511382341384888	6972939.4686280945
1.3554422855377197	5491048.493715375
1.3597444295883179	5197670.931806987
1.3640443086624146	5763816.847688423
1.3683418035507202	7029134.511046176
1.3726370334625244	9686631.746540524
1.3769296407699585	12009841.821110843
1.381219506263733	9819240.230619032
1.3855066299438477	5783759.603741712
1.3897908926010132	4459326.683300813
1.3940720558166504	4694484.238889162
1.3983501195907593	5354776.818684482
1.4026249647140503	7496981.185221123
1.4068963527679443	9281385.99159452
1.4111642837524414	7765300.361686248
1.4154287576675415	6452818.965463267
1.419689416885376	6701655.006802436
1.4239463806152344	6603692.728710578
1.4281994104385376	7424178.079190241
1.4324485063552856	7982199.559772751
1.436693549156189	7848972.496908427
1.440934419631958	8986064.364540013
1.4451709985733032	11561071.707502002
1.449403166770935	14716601.999308456
1.453631043434143	16678470.973046398
1.4578542709350586	17585692.981785383
1.4620729684829712	18593739.00888664
1.4662868976593018	18808181.08025924
1.4704961776733398	18231327.872939248
1.4747005701065063	18210620.870779227
1.4788999557495117	19008214.058363114
1.4830944538116455	20680382.210345928
1.4872838258743286	22388194.26201902
1.491468071937561	22881924.018847395
1.4956470727920532	22956666.523023788
1.4998208284378052	24037508.960703224
1.5039892196655273	25408575.020328455
1.5081522464752197	25718482.031872343
1.5123097896575928	26035827.63799174
1.5164618492126465	27274840.18134537
1.5206083059310913	29056960.477171373
1.5247491598129272	30300621.389553066
1.5288842916488647	30506283.520695794
1.5330137014389038	30915541.51492314
1.5371372699737549	31673001.848258954
1.541254997253418	32034779.432023067
1.545366883277893	32458462.092948716
1.5494728088378906	33121265.57561368
1.5535727739334106	33470237.142824236
1.5576666593551636	33366579.77345688
1.561754584312439	33565829.050407685
1.5658363103866577	34409089.28758659
1.5699119567871094	35034234.23507121
1.5739814043045044	34908389.7486629
1.5780447721481323	34525735.20185592
1.582101821899414	34944495.983668625
1.5861525535583496	35975316.45040612
1.5901970863342285	36486878.632462695
1.5942351818084717	36484951.5301746
1.5982669591903687	36422010.71447126
1.6022924184799194	36580657.2055705
1.606311559677124	36902363.623602055
1.6103241443634033	37054144.67908737
1.6143304109573364	37076287.2860753
1.6183301210403442	37136957.96621135
1.6223233938217163	37308700.6611931
1.6263102293014526	37533890.90581914
1.6302905082702637	37588863.81636251
1.634264349937439	37838126.032617025
1.638231635093689	38490980.38476599
1.6421923637390137	38923130.160962
1.646146535873413	38880767.380427815
1.6500942707061768	38717190.08781288
1.6540353298187256	38827880.21982289
1.6579699516296387	38970246.057841584
1.661897897720337	38600909.73621169
1.6658192873001099	37686695.39088185
1.6697341203689575	37424738.92514483
1.6736423969268799	38498255.4413328
1.677544116973877	39398701.16965206
1.6814392805099487	39555031.157659516
1.6853278875350952	39576159.53082941
1.6892099380493164	39248337.71337095
1.6930854320526123	38301644.56670964
1.696954369544983	37496996.396083154
1.7008168697357178	37653193.65857694
1.7046726942062378	38005275.526078984
1.708522081375122	37935081.74979319
1.712364912033081	37766617.01302049
1.7162011861801147	37897713.30553598
1.7200311422348022	38261134.17431352
1.723854422569275	38238932.72245574
1.7276713848114014	37647011.95615942
1.731481909751892	36468893.955453604
1.7352858781814575	35056117.4341986
1.7390835285186768	33976177.11204833
1.7428747415542603	32715829.738983832
1.7466596364974976	30901232.08758059
1.7504380941390991	28782439.19425329
1.7542102336883545	27519139.026095286
1.7579760551452637	29728197.780026253
1.7617355585098267	32700112.142459825
1.7654887437820435	31258818.285916664
1.7692357301712036	26502684.4417478
1.7729763984680176	20979199.780182093
1.776710867881775	15659336.039706027
1.7804391384124756	13523257.5449427
1.7841613292694092	13789956.027512103
1.7878772020339966	12829402.473301392
1.7915871143341064	13148934.72567292
1.7952908277511597	15277338.615348954
1.7989884614944458	15084300.004026746
1.8026801347732544	11225730.44451496
1.806365728378296	7064814.9161962755
1.8100452423095703	7193610.09633162
1.8137187957763672	8924756.502875963
1.817386507987976	8078318.834284482
1.8210482597351074	9079290.177366009
1.8247040510177612	9996073.137294736
1.828354001045227	7025151.381912668
1.8319982290267944	6357686.948407333
1.8356364965438843	9311667.199742433
1.8392690420150757	12038313.540477639
1.8428958654403687	12416040.55012197
1.8465168476104736	11996476.978654724
1.8501322269439697	11681077.094086213
1.8537418842315674	9125474.15585601
1.8573459386825562	6914339.359130613
1.860944390296936	6362043.507237319
1.864537239074707	5546786.958692468
1.8681244850158691	6528958.533149171
1.871706247329712	9627771.285232924
1.8752825260162354	12558611.462982496
1.8788533210754395	15488216.80710885
1.8824186325073242	17433108.88236753
1.8859784603118896	16576730.939519709
1.8895330429077148	15935625.44097863
1.8930821418762207	18151150.508316725
1.8966259956359863	17862860.322595593
1.9001644849777222	11865443.895010456
1.9036977291107178	7355064.907989177
1.9072256088256836	8013044.728946293
1.9107483625411987	7971750.758881303
1.9142658710479736	5417725.203579085
1.9177782535552979	5076410.903618167
1.9212853908538818	6625210.2790939165
1.9247875213623047	6715712.400887289
1.9282845258712769	6861898.786419884
1.9317764043807983	8461899.278059589
1.9352631568908691	9132821.582720598
1.9387450218200684	8481259.81439862
1.942221760749817	8648784.154519726
1.9456936120986938	9397762.141724443
1.9491604566574097	10110546.737526873
1.952622413635254	9689239.548771517
1.956079363822937	8253777.6067804955
1.959531545639038	8299881.200317568
1.962978720664978	9055552.914819967
1.966421127319336	10708754.848772623
1.9698586463928223	13647966.572530335
1.9732913970947266	15039182.366681213
1.9767193794250488	15733102.223771445
1.9801424741744995	17863955.055092607
1.9835609197616577	20008018.067683414
1.9869745969772339	20144080.22163062
1.990383505821228	18069885.420532044
1.9937876462936401	17219358.687322907
1.9971871376037598	17551747.7179323
2.000581979751587	18680230.864772223
2.003972291946411	21873614.741604116
2.007357597351074	24327357.56619995
2.0107386112213135	26347772.861187987
2.0141148567199707	27278411.83559687
2.017486572265625	25703907.998012867
2.0208535194396973	26106382.905527394
2.0242159366607666	28989909.370723486
2.027573823928833	30873517.58436848
2.0309269428253174	32017835.948598765
2.034275770187378	33440864.82384568
2.0376198291778564	34554853.6396034
2.040959596633911	35524529.41897642
2.044294595718384	36842597.83631179
2.0476250648498535	38243658.23188621
2.0509510040283203	38630634.942410626
2.054272413253784	37939865.355315745
2.057589530944824	38117901.49006086
2.0609018802642822	39258307.97056259
2.0642096996307373	40244969.80488041
2.0675129890441895	40928097.14095255
2.0708119869232178	41218454.17215557
2.074106216430664	41052152.61688791
2.0773961544036865	40938171.07734011
2.080681324005127	41257603.2545378
2.0839622020721436	41706571.22522665
2.087238311767578	42046133.693875216
2.090510129928589	42065115.98009778
2.0937774181365967	41856227.96339562
2.0970399379730225	41908177.81719204
2.1002981662750244	42057454.47940775
2.1035518646240234	41931313.68359299
2.1068007946014404	41754045.19088397
2.1100454330444336	42153425.79953216
2.1132853031158447	42776421.73513036
2.116520881652832	42789001.34489632
2.1197516918182373	42689821.32102007
2.1229779720306396	42950118.81947393
2.12619948387146	43208347.22463196
2.1294167041778564	43285064.03269424
2.132629156112671	43362035.27477933
2.1358368396759033	43301107.41528844
2.139039993286133	43012482.65206306
2.1422386169433594	42812594.055704124
2.145432472229004	42751249.869376086
2.1486217975616455	42644366.58415321
2.151806354522705	42429474.24437286
2.1549863815307617	42377284.68497475
2.1581614017486572	42513789.802695185
2.16133189201355	42515596.84458499
2.1644976139068604	42449844.22131266
2.167658567428589	42378901.81388885
2.1708147525787354	42209930.63593057
2.173966407775879	41913103.01827637
2.1771130561828613	41720702.54078848
2.1802549362182617	41824741.66033093
2.183391809463501	41907151.30361353
2.1865241527557373	41767266.28249198
2.1896514892578125	41433822.14041438
2.1927738189697266	40459180.32275371
2.1958916187286377	38571090.21369956
2.1990041732788086	36755372.848892406
2.2021119594573975	35951664.01064757
2.2052149772644043	35835842.66530683
2.208312749862671	36177276.71346796
2.2114057540893555	36918971.046064116
2.214493751525879	37379058.96804406
2.217576742172241	37162917.31095454
2.2206547260284424	36888433.546304844
2.2237277030944824	36728015.56855802
2.2267956733703613	35923604.49170772
2.2298583984375	34702698.70493139
2.2329163551330566	33962754.82793714
2.235969066619873	33847953.77909285
2.2390167713165283	33565684.82267956
2.2420592308044434	32217051.26355909
2.2450966835021973	30520140.338651206
2.248128890991211	30322276.095056113
2.2511560916900635	31513121.407860123
2.254178285598755	32467235.33521937
2.257194995880127	32965137.396109696
2.260206699371338	32857539.64048259
2.2632133960723877	31347195.667072922
2.266214609146118	29296068.327191252
2.2692108154296875	28476605.468003288
2.2722020149230957	29343070.657811526
2.2751877307891846	30561162.18185992
2.278168201446533	30470278.218292125
2.2811436653137207	29342866.88074126
2.284113883972168	28674316.85323961
2.287078857421875	28456795.69400389
2.290038824081421	27343560.866060957
2.2929933071136475	24584641.62371495
2.295942783355713	20768305.934603225
2.298887014389038	17187905.738119304
2.301826238632202	14674496.324394215
2.304760217666626	13176008.536646858
2.3076889514923096	12458303.230917607
2.310612440109253	12715724.125610232
2.3135311603546143	13138653.313847011
2.3164443969726562	12269017.170762377
2.319352865219116	10849446.78202009
2.322256088256836	10248487.641763596
2.3251543045043945	10200861.35441574
2.328047275543213	10290464.276104456
2.330935478210449	10695182.444627907
2.3338186740875244	11378165.561821423
2.3366971015930176	12149571.283228483
2.3395702838897705	13014937.089310534
2.3424389362335205	14040266.977380916
2.3453025817871094	15297231.201749435
2.348161458969116	16077058.783076582
2.351015567779541	15856350.326087505
2.353865146636963	15360923.340345234
2.3567099571228027	15006992.03275903
2.3595502376556396	15344829.377345683
2.3623859882354736	16868738.263711777
2.3652172088623047	17224115.217047308
2.368043899536133	14525697.620407753
2.370866537094116	12558458.445358897
2.3736846446990967	13925106.095329281
2.3764986991882324	14096150.25640538
2.3793084621429443	11726837.800513878
2.3821144104003906	10901692.005528541
2.384916305541992	13132814.290933263
2.387714147567749	16741572.984476771
2.3905084133148193	19290006.822541334
2.393299102783203	19415325.3313941
2.3960859775543213	17006900.817457993
2.398869514465332	14223548.136074724
2.4016497135162354	12847217.117888914
2.4044265747070312	12578455.772641411
2.407200336456299	13306925.910956798
2.409970998764038	14447537.195254276
2.4127390384674072	15099544.456774144
2.415503978729248	15600293.590433436
2.418266534805298	16664631.637255184
2.4210267066955566	17597601.014500555
2.4237842559814453	17370310.44158601
2.426539897918701	16498707.588725917
2.429293394088745	16000419.485027945
2.4320452213287354	16109944.557375597
2.4347951412200928	16584183.978781858
2.4375438690185547	16826178.36764658
2.440291166305542	16259657.680637939
2.443037271499634	14954866.883626092
2.445782423019409	13506086.859280387
2.4485268592834473	12241034.404949479
2.451270818710327	11789043.567198923
2.454014539718628	13576315.599941159
2.4567582607269287	15850021.651264276
2.4595019817352295	15464040.393508743
2.4622461795806885	15067731.690154599
2.4649908542633057	15078136.641701987
2.4677364826202393	12614680.630891262
2.4704833030700684	9353206.041006988
2.473231554031372	7002682.411040909
2.4759814739227295	5490384.057608591
2.4787333011627197	5003229.826868416
