#wavelength	surface flux
0.6450077295303345	88964.93915508279
0.6472567915916443	139975.93211913682
0.6494921445846558	182408.3216658463
0.6517150402069092	209139.8655362872
0.6539263725280762	236484.56024723186
0.6561272740364075	265453.07732534327
0.6583186388015747	295969.6163739899
0.6605015397071838	327711.93994780973
0.6626768708229065	359977.2544563106
0.6648455858230591	389381.14507073496
0.6670085787773132	394923.41794025234
0.6691668033599854	346609.8570692946
0.6713210344314575	324836.472051916
0.6734722256660461	424971.54868326953
0.6756211519241333	554534.9940644306
0.6777685880661011	631852.014667297
0.6799154281616211	686097.503092424
0.6820623278617859	735268.4230520863
0.6842101216316223	782424.9353300848
0.6863595843315125	827924.2006806582
0.688511312007904	870633.4148864301
0.6906660795211792	907710.4930392879
0.6928245425224304	941081.2852494594
0.6949873566627502	979287.1756968077
0.6971551775932312	1019572.3122823946
0.6993286609649658	1053316.9398252314
0.7015084028244019	1081883.2699742748
0.7036949396133423	1105186.2631183553
0.7058889269828796	1120779.6715040947
0.7080909013748169	1129248.9560858563
0.710301399230957	1132241.3966499602
0.712520956993103	1128569.0780210427
0.7147500514984131	1114275.1749197834
0.7169892191886902	1089002.9939498839
0.7192389369010925	1055318.863386247
0.7214996814727783	1012994.7204572256
0.723771870136261	961790.7470039601
0.7260559797286987	904158.8635999643
0.7283523678779602	840744.6535710661
0.7306615710258484	780581.706190569
0.7329838871955872	727783.8379920357
0.7353196740150452	663728.9058095505
0.7376693487167358	585256.8678873138
0.7400332689285278	504566.03397599584
0.7424117922782898	424952.80280863773
0.7448052167892456	348828.13728303806
0.7472138404846191	276751.5615752639
0.7496379613876343	209453.44493820716
0.7520779371261597	149782.29597625407
0.7545340061187744	99787.40728115186
0.7570064663887024	60781.99333157545
0.7594954967498779	33108.31688646306
0.7620013952255249	15565.034071842068
0.7645244002342224	5915.12072984775
0.7670646905899048	1943.2846062502474
0.7696225643157959	2108.7816278168084
0.7721980810165405	7392.508246684012
0.7747915983200073	20661.272095209362
0.7774031162261963	41944.58254127726
0.7800329327583313	77559.57775388166
0.7826811671257019	145522.6471832066
0.7853479981422424	245678.26986539704
0.7880334854125977	362299.60274104396
0.7907378077507019	443760.41365284956
0.7934610247612	456328.8482697979
0.7962033748626709	614825.9170714237
0.7989648580551147	994101.886495495
0.801745593547821	1359111.7160740402
0.8045456409454346	1664018.6782030384
0.8073651194572449	1970226.0572253591
0.8102040886878967	2282892.3397478466
0.8130625486373901	2639325.0142339864
0.8159406185150146	3039409.5024908353
0.8188382983207703	3473444.8547718558
0.8217556476593018	4002749.529117173
0.8246926665306091	4571555.136349472
0.8276493549346924	5093110.205350557
0.8306257724761963	5664990.6918920195
0.8336219191551208	6357693.983608406
0.8366377949714661	7056353.5069428645
0.8396733403205872	7731883.40789134
0.8427285552024841	8476087.684335224
0.8458034992218018	9171772.320228845
0.8488980531692505	9187272.151656201
0.8520121574401855	8979129.694582354
0.8551458716392517	10437237.601877535
0.8582990765571594	12449754.620317575
0.8614717125892639	12776630.524715135
0.8646637797355652	12780842.635059172
0.8678751587867737	13807575.491708837
0.8711057901382446	15008173.9683199
0.8743556141853333	16109416.718239862
0.87762451171875	17418430.29138641
0.8809124231338501	18627506.29116477
0.8842192888259888	19664819.50352194
0.8875449895858765	20274511.206673402
0.8908893465995789	19493448.50974162
0.894252359867096	18665983.18337797
0.8976338505744934	21397264.043196026
0.9010337591171265	26900109.075288463
0.9044519662857056	31540894.39387053
0.9078882932662964	34712487.18641514
0.9113426208496094	36893461.99427981
0.914814829826355	37996989.282892026
0.9183048605918884	38960972.37463255
0.9218124747276306	38266597.72345014
0.925337553024292	32766552.289859504
0.9288799166679382	27790345.12132723
0.9324395060539246	27932373.966570463
0.9360161423683167	29942289.013647426
0.9396095871925354	31215465.059608955
0.943219780921936	30900215.32191519
0.9468464851379395	28666601.591131765
0.9504896402359009	30325544.435879175
0.9541489481925964	38333551.09050678
0.9578243494033813	41455743.945494026
0.9615156054496765	35240745.47542124
0.9652225375175476	28921960.297779396
0.9689450263977051	33615137.70243865
0.9726828336715698	46154770.38824038
0.9764357805252075	52439727.56741344
0.9802037477493286	54504414.52842939
0.983986496925354	61174747.225184046
0.9877838492393494	66606664.99871558
0.9915955662727356	65883653.809757985
0.9954215884208679	62347548.64203386
0.9992615580558777	55916258.393119216
1.0031154155731201	51108821.47319977
1.0069829225540161	53794201.93471916
1.0108637809753418	61869894.70980335
1.0147579908370972	71217659.56904796
1.018665075302124	77596854.47933272
1.022585153579712	79016512.385698
1.0265177488327026	80640532.67378856
1.0304628610610962	87616534.00093059
1.0344202518463135	96260222.8094314
1.0383895635604858	102286563.39000478
1.0423706769943237	106472683.03260778
1.0463634729385376	110230411.35529236
1.0503677129745483	113768818.80251995
1.0543830394744873	119698003.46113272
1.058409333229065	127007612.63798043
1.0624464750289917	131897052.00868002
1.0664942264556885	134779646.63130203
1.0705522298812866	137534529.24347383
1.0746204853057861	141103599.36063528
1.0786986351013184	143907239.68112788
1.0827864408493042	145442942.42651936
1.086883783340454	138284646.8103615
1.0909905433654785	117067701.77347542
1.0951062440872192	96371163.9284383
1.0992310047149658	73621053.23643143
1.10336434841156	43624843.94013758
1.1075061559677124	28382330.92937129
1.1116561889648438	25037988.717402156
1.115814208984375	20401526.489728004
1.1199802160263062	19875509.17714944
1.124153733253479	21693580.049590275
1.1283347606658936	18573603.185609117
1.1325229406356812	14224660.273781033
1.1367181539535522	20004891.730997704
1.1409201622009277	33448340.40173158
1.145128846168518	41254639.696934894
1.1493438482284546	36348223.18470479
1.1535650491714478	26285761.179037385
1.1577922105789185	22177883.481643427
1.1620250940322876	23141571.096571907
1.1662636995315552	28435613.047133964
1.170507550239563	34765472.90203909
1.174756646156311	41219933.01745142
1.1790107488632202	52758071.98858712
1.1832695007324219	60694439.341033205
1.1875330209732056	59246793.975011356
1.191800832748413	69940388.73082899
1.1960728168487549	93667263.75278716
1.2003488540649414	106778669.60308209
1.2046287059783936	111397812.63368207
1.2089121341705322	113965001.36320822
1.2131990194320679	119151562.5766748
1.2174891233444214	131760779.92185804
1.2217823266983032	142275103.60339156
1.2260783910751343	148053735.09312686
1.230377197265625	154514756.0307673
1.2346785068511963	157981078.6688793
1.238982081413269	151820983.67701495
1.2432878017425537	142814498.89584556
1.2475954294204712	139920040.82187673
1.2519049644470215	139731454.07056293
1.256216049194336	156276125.4083669
1.2605286836624146	176715977.8926277
1.2648425102233887	178249744.97953257
1.2691574096679688	182291470.66213784
1.2734732627868652	193467029.64405656
1.2777899503707886	192554641.820179
1.2821072340011597	180680281.12527716
1.2864248752593994	176295596.5564645
1.2907428741455078	177105820.3300715
1.2950609922409058	172677048.1923192
1.2993791103363037	153215879.78921878
1.303696870803833	135265294.17767897
1.3080145120620728	134171584.47239219
1.3123314380645752	136817268.58624598
1.3166478872299194	137750146.83081633
1.3209635019302368	122521501.72293822
1.3252781629562378	96035786.80581486
1.3295916318893433	67715147.70755589
1.3339040279388428	33089210.27991605
1.3382149934768677	10086850.077099988
1.3425244092941284	4610517.985438557
1.3468321561813354	3900727.998314574
1.3511382341384888	3543693.2715773834
1.3554422855377197	2741573.918619705
1.3597444295883179	3196342.801652502
1.3640443086624146	4661561.32090045
1.3683418035507202	4290258.4034023
1.3726370334625244	3333495.653980342
1.3769296407699585	3926753.194106635
1.381219506263733	3568775.4599007787
1.3855066299438477	2063412.8602849164
1.3897908926010132	2166557.5758963237
1.3940720558166504	3374038.567530781
1.3983501195907593	3187769.596634762
1.4026249647140503	2896583.559529454
1.4068963527679443	3549460.284267448
1.4111642837524414	3781734.287698989
1.4154287576675415	3790730.6426606798
1.419689416885376	3583254.3779408527
1.4239463806152344	3383783.991055027
1.4281994104385376	2748137.9048440657
1.4324485063552856	2054213.8561994617
1.436693549156189	2870904.0735163167
1.440934419631958	4901557.938470377
1.4451709985733032	8137539.54957692
1.449403166770935	11666975.45332502
1.453631043434143	11697217.915463582
1.4578542709350586	10401009.869231623
1.4620729684829712	12972057.14473327
1.4662868976593018	15817911.101771146
1.4704961776733398	11952502.61708605
1.4747005701065063	6723103.104703379
1.4788999557495117	8664658.904130138
1.4830944538116455	14993828.917147644
1.4872838258743286	17134803.183711685
1.491468071937561	13963561.618183782
1.4956470727920532	13903901.877300883
1.4998208284378052	19106654.08477162
1.5039892196655273	21433186.4258119
1.5081522464752197	18311862.121010926
1.5123097896575928	19258944.78317276
1.5164618492126465	29030561.175962817
1.5206083059310913	39598545.08736677
1.5247491598129272	42195456.7533899
1.5288842916488647	41513852.25092638
1.5330137014389038	45062709.027793206
1.5371372699737549	48079750.64230481
1.541254997253418	47497823.85721321
1.545366883277893	50060850.139125235
1.5494728088378906	53890605.93634987
1.5535727739334106	55484253.267443344
1.5576666593551636	58537751.6567244
1.561754584312439	63943410.135956936
1.5658363103866577	69743512.42101286
1.5699119567871094	72282533.61930256
1.5739814043045044	71690534.94852646
1.5780447721481323	73476836.35613087
1.582101821899414	78762066.26333535
1.5861525535583496	82938230.65904507
1.5901970863342285	81693220.72417852
1.5942351818084717	76973699.25779729
1.5982669591903687	75896508.72198105
1.6022924184799194	76081464.6398422
1.606311559677124	72786800.87344548
1.6103241443634033	71492114.54953516
1.6143304109573364	69806980.49744286
1.6183301210403442	63941727.37499895
1.6223233938217163	59885588.18102069
1.6263102293014526	58403000.3540329
1.6302905082702637	59165173.13792251
1.634264349937439	63688055.01018727
1.638231635093689	69354851.74669975
1.6421923637390137	70765410.48761268
1.646146535873413	63671279.17359335
1.6500942707061768	56565211.25728089
1.6540353298187256	57300727.17382739
1.6579699516296387	58604638.744178005
1.661897897720337	54429393.545444556
1.6658192873001099	41156684.07015637
1.6697341203689575	31186492.416090187
1.6736423969268799	37027126.3807554
1.677544116973877	43889873.142530754
1.6814392805099487	43911423.57324218
1.6853278875350952	40548076.33389422
1.6892099380493164	35177485.201407135
1.6930854320526123	30276987.78014885
1.696954369544983	27450276.2948242
1.7008168697357178	26932033.4171338
1.7046726942062378	27219722.903258726
1.708522081375122	28666172.462049574
1.712364912033081	29159576.651990596
1.7162011861801147	28328569.510175224
1.7200311422348022	29611524.495674882
1.723854422569275	30066641.45050045
1.7276713848114014	27037472.667190105
1.731481909751892	23156462.5397276
1.7352858781814575	21608122.3097131
1.7390835285186768	22601708.356718928
1.7428747415542603	22601834.74556875
1.7466596364974976	18811056.568903342
1.7504380941390991	14912528.738975354
1.7542102336883545	15538880.15281242
1.7579760551452637	19391335.241772234
1.7617355585098267	23726258.14755023
1.7654887437820435	24341550.601847053
1.7692357301712036	18844887.94121821
1.7729763984680176	12526842.568226835
1.776710867881775	8259180.814033472
1.7804391384124756	6472230.571809132
1.7841613292694092	6582790.641658207
1.7878772020339966	6713434.44222136
1.7915871143341064	9150087.248947788
1.7952908277511597	11766263.042482603
1.7989884614944458	10800502.641234312
1.8026801347732544	7919863.983587849
1.806365728378296	5780190.895883639
1.8100452423095703	5104206.519868384
1.8137187957763672	4518807.26188775
1.817386507987976	3494081.0449749273
1.8210482597351074	5787655.118310714
1.8247040510177612	10048964.399798231
1.828354001045227	9164675.987007301
1.8319982290267944	5248842.524233983
1.8356364965438843	5262912.124657392
1.8392690420150757	8042441.769864278
1.8428958654403687	8880830.687971976
1.8465168476104736	7724073.323921893
1.8501322269439697	6535808.755390839
1.8537418842315674	5587097.983394606
1.8573459386825562	5372388.494632635
1.860944390296936	4327347.832157478
1.864537239074707	2202457.6711822604
1.8681244850158691	1451304.2886591735
1.871706247329712	2667779.1410817183
1.8752825260162354	4629286.256870832
1.8788533210754395	5319420.785656758
1.8824186325073242	5656177.54699323
1.8859784603118896	8450049.289896892
1.8895330429077148	11359159.73503886
1.8930821418762207	9611989.651236322
1.8966259956359863	6743026.120662907
1.9001644849777222	6139411.170171949
1.9036977291107178	5238862.667684374
1.9072256088256836	6431393.7193167545
1.9107483625411987	8060150.493341817
1.9142658710479736	5912418.676043529
1.9177782535552979	4902860.34430744
1.9212853908538818	4693387.498409882
1.9247875213623047	2402108.200492979
1.9282845258712769	1498532.8857961735
1.9317764043807983	3766664.992061608
1.9352631568908691	7683501.28369397
1.9387450218200684	8236772.248107364
1.942221760749817	4921859.061358846
1.9456936120986938	2732372.583437672
1.9491604566574097	2480513.5957016386
1.952622413635254	3510492.6468390767
1.956079363822937	6728507.7393643055
1.959531545639038	9870473.300416166
1.962978720664978	8611232.986046068
1.966421127319336	6228463.361378839
1.9698586463928223	7105302.843483035
1.9732913970947266	8127517.121464947
1.9767193794250488	8367303.346253115
1.9801424741744995	9044044.561849937
1.9835609197616577	9290721.482152585
1.9869745969772339	10666454.397706565
1.990383505821228	12066534.884418374
1.9937876462936401	11693676.644709405
1.9971871376037598	9970901.666610884
2.000581979751587	8262818.4633075
2.003972291946411	9919799.135480927
2.007357597351074	12627753.823475478
2.0107386112213135	13666681.723826712
2.0141148567199707	13130971.294044254
2.017486572265625	11396720.918824166
2.0208535194396973	11798472.711399775
2.0242159366607666	13850409.40671638
2.027573823928833	14153213.259512063
2.0309269428253174	13696934.78620366
2.034275770187378	15217042.911744032
2.0376198291778564	18819394.37131709
2.040959596633911	21999847.847611234
2.044294595718384	23005491.19155001
2.0476250648498535	22868844.461203184
2.0509510040283203	21579568.901576605
2.054272413253784	19700835.83194532
2.057589530944824	20290901.01701604
2.0609018802642822	23042734.44292302
2.0642096996307373	25024048.692633025
2.0675129890441895	25686681.11278358
2.0708119869232178	25667528.48136046
2.074106216430664	25237618.15608242
2.0773961544036865	25520784.03899618
2.080681324005127	26299051.145005643
2.0839622020721436	26298603.148267552
2.087238311767578	25650911.647344597
2.090510129928589	25167125.46668573
2.0937774181365967	25293653.397657882
2.0970399379730225	25310333.302708585
2.1002981662750244	24361945.22291678
2.1035518646240234	23569417.48807561
2.1068007946014404	23768681.12438635
2.1100454330444336	24007847.501796443
2.1132853031158447	23630792.9493484
2.116520881652832	22596324.766975176
2.1197516918182373	21580716.294419855
2.1229779720306396	21144660.49438682
2.12619948387146	20818882.244242825
2.1294167041778564	20645643.846497152
2.132629156112671	20818013.509322498
2.1358368396759033	20264077.69295338
2.139039993286133	19192282.91916409
2.1422386169433594	18378261.474960875
2.145432472229004	17642413.9959357
2.1486217975616455	17062124.25797405
2.151806354522705	16335011.184947548
2.1549863815307617	16206887.427526202
2.1581614017486572	16905790.987071007
2.16133189201355	17262463.409216393
2.1644976139068604	16997282.726672217
2.167658567428589	15940769.65520014
2.1708147525787354	14817666.428803705
2.173966407775879	14753558.1160562
2.1771130561828613	15245389.776785545
2.1802549362182617	15012304.821600787
2.183391809463501	13873073.257303575
2.1865241527557373	12761425.913449343
2.1896514892578125	11956501.658901503
2.1927738189697266	10621515.660693102
2.1958916187286377	8150505.721691351
2.1990041732788086	5479515.856341783
2.2021119594573975	4089469.080212188
2.2052149772644043	3974762.6670970083
2.208312749862671	4386633.34857624
2.2114057540893555	5293456.977123447
2.214493751525879	6142244.510050841
2.217576742172241	5847111.933979368
2.2206547260284424	5060006.369553012
2.2237277030944824	4498320.391952309
2.2267956733703613	3774491.5348811946
2.2298583984375	3164279.335114663
2.2329163551330566	3006519.005685384
2.235969066619873	3183249.452049887
2.2390167713165283	3214170.389561483
2.2420592308044434	2863059.662069667
2.2450966835021973	2509611.372904783
2.248128890991211	2420007.186160898
2.2511560916900635	2570553.175218652
2.254178285598755	3056055.2274520984
2.257194995880127	3877136.1936288974
2.260206699371338	3794720.7087553656
2.2632133960723877	2488679.1795641514
2.266214609146118	1934845.6400526299
2.2692108154296875	2850495.825290427
2.2722020149230957	3759867.197705708
2.2751877307891846	3646439.8053610115
2.278168201446533	3210738.560767529
2.2811436653137207	3129555.470411078
2.284113883972168	2964523.192590866
2.287078857421875	2452729.2175715948
2.290038824081421	2093416.8731439644
2.2929933071136475	2121035.559284658
2.295942783355713	2219394.2217128994
2.298887014389038	2374568.764635795
2.301826238632202	2794972.991008682
2.304760217666626	3533116.3092865674
2.3076889514923096	4547902.987755191
2.310612440109253	5676286.297667179
2.3135311603546143	6508304.264948447
2.3164443969726562	5809529.114682446
2.319352865219116	3478545.955822083
2.322256088256836	1825548.9206734586
2.3251543045043945	1512804.248426463
2.328047275543213	1460751.880655482
2.330935478210449	1426719.7649083117
2.3338186740875244	1332085.677123283
2.3366971015930176	1162301.7454388838
2.3395702838897705	1048524.584473031
2.3424389362335205	1010091.89015317
2.3453025817871094	980218.8142921489
2.348161458969116	963850.8369449951
2.351015567779541	1271700.275335457
2.353865146636963	2217096.6003967426
2.3567099571228027	3428491.429549379
2.3595502376556396	4198163.51958193
2.3623859882354736	4089617.592177758
2.3652172088623047	3047279.0686415946
2.368043899536133	1751315.260764641
2.370866537094116	1030730.7107668065
2.3736846446990967	974592.9175594967
2.3764986991882324	1096537.5839828588
2.3793084621429443	1139329.2216460658
2.3821144104003906	1291595.92909209
2.384916305541992	1667703.8681055468
2.387714147567749	1980569.2764110263
2.3905084133148193	1940552.6591699347
2.393299102783203	1744156.5010785705
2.3960859775543213	1575644.6466562003
2.398869514465332	1587672.0389976515
2.4016497135162354	1994856.7824385662
2.4044265747070312	2715912.5482593444
2.407200336456299	3248011.3617924727
2.409970998764038	3240410.53434295
2.4127390384674072	3036395.4656603658
2.415503978729248	3024451.880355022
2.418266534805298	3185865.8935946026
2.4210267066955566	3277692.0057357573
2.4237842559814453	3134045.6198899136
2.426539897918701	3133127.113993402
2.429293394088745	3699013.7495891415
2.4320452213287354	4252261.760687636
2.4347951412200928	4086409.813755691
2.4375438690185547	3648467.4580246513
2.440291166305542	3541360.9017498186
2.443037271499634	3577620.4747373364
2.445782423019409	3643252.4007537104
2.4485268592834473	3872319.2616233164
2.451270818710327	4039451.746411648
2.454014539718628	4057657.65739091
2.4567582607269287	4059805.1773355408
2.4595019817352295	4101291.6348015135
2.4622461795806885	4636365.623421489
2.4649908542633057	5328601.907832868
2.4677364826202393	5041297.914063525
2.4704833030700684	3801272.519811032
2.473231554031372	2515343.705590972
2.4759814739227295	1740962.1816410935
2.4787333011627197	1430538.4655129951
2.481487512588501	1394772.264266281
