#wavelength	surface flux
0.6450077295303345	20413.455608840257
0.6472567915916443	31966.193036113116
0.6494921445846558	41409.587683323785
0.6517150402069092	47203.126389316734
0.6539263725280762	52964.55689018024
0.6561272740364075	58904.25363423981
0.6583186388015747	65260.50787998894
0.6605015397071838	72210.61964103073
0.6626768708229065	79578.43952693457
0.6648455858230591	86763.8281111884
0.6670085787773132	90143.02944088916
0.6691668033599854	83787.98191964666
0.6713210344314575	82499.50287781142
0.6734722256660461	102834.3995838067
0.6756211519241333	126500.98609061698
0.6777685880661011	140438.250321901
0.6799154281616211	151291.94420994658
0.6820623278617859	161741.72302417931
0.6842101216316223	172040.5179500882
0.6863595843315125	182112.54929291527
0.688511312007904	191046.2795117166
0.6906660795211792	196169.0241442526
0.6928245425224304	200634.260691261
0.6949873566627502	212014.42151125695
0.6971551775932312	225504.04303157007
0.6993286609649658	234018.21468912522
0.7015084028244019	239549.02028767217
0.7036949396133423	246130.87426703618
0.7058889269828796	253629.0086450614
0.7080909013748169	258248.90640085042
0.710301399230957	261035.34100251715
0.712520956993103	262633.41514018335
0.7147500514984131	257585.22975304537
0.7169892191886902	246936.2100628992
0.7192389369010925	241191.2065993057
0.7214996814727783	237676.5171109388
0.723771870136261	227869.03545877812
0.7260559797286987	215203.3116928238
0.7283523678779602	203013.18104046676
0.7306615710258484	192073.3839324871
0.7329838871955872	182901.50512485375
0.7353196740150452	172005.24468710908
0.7376693487167358	158324.84500728306
0.7400332689285278	143050.21692262925
0.7424117922782898	125538.20948590686
0.7448052167892456	107386.6462852483
0.7472138404846191	89445.31376532164
0.7496379613876343	71437.99395921222
0.7520779371261597	54155.79940205618
0.7545340061187744	38426.78064665207
0.7570064663887024	25030.855535556995
0.7594954967498779	14523.44707457909
0.7620013952255249	7119.271042806492
0.7645244002342224	2709.7945550281393
0.7670646905899048	853.3915214370622
0.7696225643157959	964.4541283980058
0.7721980810165405	3583.629478174397
0.7747915983200073	9936.881216570722
0.7774031162261963	19543.839299293042
0.7800329327583313	34107.73903602868
0.7826811671257019	59321.05288537237
0.7853479981422424	93990.16535468044
0.7880334854125977	131942.75574699533
0.7907378077507019	155187.8969591502
0.7934610247612	153583.74721125295
0.7962033748626709	201154.21522203207
0.7989648580551147	318322.9647123823
0.801745593547821	424344.5856045068
0.8045456409454346	506397.54297788383
0.8073651194572449	578771.1391686111
0.8102040886878967	633456.3608908621
0.8130625486373901	702660.8843701708
0.8159406185150146	822640.9622374964
0.8188382983207703	954334.4476538603
0.8217556476593018	1063457.3066485757
0.8246926665306091	1183052.1510942422
0.8276493549346924	1307845.3353965739
0.8306257724761963	1418295.1217154716
0.8336219191551208	1536799.9703530748
0.8366377949714661	1656007.9477605433
0.8396733403205872	1832784.7598273957
0.8427285552024841	2110394.955048996
0.8458034992218018	2362809.059171628
0.8488980531692505	2424667.9108666102
0.8520121574401855	2442968.3859889386
0.8551458716392517	2823689.7684717104
0.8582990765571594	3345649.3244414194
0.8614717125892639	3584282.074676426
0.8646637797355652	3742175.886481098
0.8678751587867737	4042503.6093635457
0.8711057901382446	4399692.722438973
0.8743556141853333	4705376.521131618
0.87762451171875	4917736.296210273
0.8809124231338501	5041621.556180237
0.8842192888259888	5158520.478106678
0.8875449895858765	5117078.061282637
0.8908893465995789	4571717.508262184
0.894252359867096	4046377.055594948
0.8976338505744934	4688121.254091095
0.9010337591171265	6193596.398234528
0.9044519662857056	7414088.258003623
0.9078882932662964	8158958.550133148
0.9113426208496094	8516910.675144864
0.914814829826355	8212924.560132406
0.9183048605918884	7974427.741832307
0.9218124747276306	7882909.680268742
0.925337553024292	5933223.425314862
0.9288799166679382	3077238.9478506935
0.9324395060539246	1863517.3544406306
0.9360161423683167	2001874.9790561195
0.9396095871925354	2579407.406131671
0.943219780921936	2557630.490934726
0.9468464851379395	2064488.6350406073
0.9504896402359009	2288571.3592327265
0.9541489481925964	3064320.19886956
0.9578243494033813	3132575.550665204
0.9615156054496765	2173215.904599603
0.9652225375175476	1615357.5591575012
0.9689450263977051	2386791.6558509604
0.9726828336715698	4092444.8840530594
0.9764357805252075	5402239.401391656
0.9802037477493286	6211619.546523719
0.983986496925354	7199802.871844226
0.9877838492393494	8660869.12351559
0.9915955662727356	10475421.022072636
0.9954215884208679	11676378.664978899
0.9992615580558777	12151893.224878095
1.0031154155731201	12772454.570200838
1.0069829225540161	14313526.618581112
1.0108637809753418	16803310.575225357
1.0147579908370972	19696808.67414982
1.018665075302124	21736665.61878854
1.022585153579712	21968847.97242864
1.0265177488327026	21785757.709109582
1.0304628610610962	23580953.88192173
1.0344202518463135	27077552.146484695
1.0383895635604858	29702117.429568127
1.0423706769943237	30919174.464881312
1.0463634729385376	31726050.872026306
1.0503677129745483	32551524.51753951
1.0543830394744873	34291526.92427611
1.058409333229065	36268584.154812954
1.0624464750289917	37027932.193485156
1.0664942264556885	36963464.34044774
1.0705522298812866	36978241.24382255
1.0746204853057861	37751341.208286725
1.0786986351013184	38755116.83289314
1.0827864408493042	38730291.848068565
1.086883783340454	34984055.29911304
1.0909905433654785	26764172.24466865
1.0951062440872192	18905381.56974078
1.0992310047149658	12030248.199764647
1.10336434841156	5560245.956567869
1.1075061559677124	3215173.649998128
1.1116561889648438	3015984.478914331
1.115814208984375	2073643.1222005303
1.1199802160263062	1376373.3211382711
1.124153733253479	1201575.3165671555
1.1283347606658936	1261049.5826135573
1.1325229406356812	1352695.1049878853
1.1367181539535522	1881195.5342795344
1.1409201622009277	2590700.3692874718
1.145128846168518	3058715.3572530067
1.1493438482284546	2604304.5154480133
1.1535650491714478	1200321.9088176265
1.1577922105789185	491521.4345816416
1.1620250940322876	825723.029247155
1.1662636995315552	1496091.407495534
1.170507550239563	2097450.1719263345
1.174756646156311	3363369.709759505
1.1790107488632202	5901263.62283981
1.1832695007324219	8811731.86677778
1.1875330209732056	11020518.424571307
1.191800832748413	14168428.748314222
1.1960728168487549	18603089.735917892
1.2003488540649414	21749416.020081967
1.2046287059783936	23069626.703753125
1.2089121341705322	23683411.67410749
1.2131990194320679	25845023.581523947
1.2174891233444214	30471483.119936
1.2217823266983032	35507604.46049707
1.2260783910751343	39773795.022812
1.230377197265625	42690356.53223604
1.2346785068511963	44728496.22664368
1.238982081413269	46371066.11185975
1.2432878017425537	46977660.52317237
1.2475954294204712	46709001.61992009
1.2519049644470215	46411123.50218112
1.256216049194336	50674936.681380525
1.2605286836624146	54652362.82217631
1.2648425102233887	53120739.41750773
1.2691574096679688	51047459.287596226
1.2734732627868652	50032141.61635089
1.2777899503707886	48637072.42515544
1.2821072340011597	45623052.69137957
1.2864248752593994	40987455.31821006
1.2907428741455078	34426971.24803244
1.2950609922409058	31053904.13490996
1.2993791103363037	29806545.436212122
1.303696870803833	25503298.509666257
1.3080145120620728	22535936.197712045
1.3123314380645752	22661427.047695827
1.3166478872299194	24215795.437040344
1.3209635019302368	21647370.94023857
1.3252781629562378	13462423.036908323
1.3295916318893433	6659739.943234068
1.3339040279388428	2758582.892214425
1.3382149934768677	671744.2156798217
1.3425244092941284	153155.61636573667
1.3468321561813354	93621.61399871617
1.3511382341384888	66144.08736303622
1.3554422855377197	34331.06155769639
1.3597444295883179	26155.071406800347
1.3640443086624146	22958.07427255792
1.3683418035507202	35666.467602180994
1.3726370334625244	103835.17592259696
1.3769296407699585	189155.23943590213
1.381219506263733	152184.93181547013
1.3855066299438477	49979.064829654926
1.3897908926010132	14300.800687868432
1.3940720558166504	19249.733590278265
1.3983501195907593	38997.96551672558
1.4026249647140503	84830.13758602695
1.4068963527679443	114721.21297294383
1.4111642837524414	82174.14274236187
1.4154287576675415	52572.69503395564
1.419689416885376	48431.67134885291
1.4239463806152344	42843.03526678795
1.4281994104385376	63704.799692996356
1.4324485063552856	106830.6059976651
1.436693549156189	138963.91643977322
1.440934419631958	176106.4351130757
1.4451709985733032	339534.89698246674
1.449403166770935	694400.0366776704
1.453631043434143	966938.2169973793
1.4578542709350586	1118101.7777011017
1.4620729684829712	1331482.6275938354
1.4662868976593018	1335617.3631914326
1.4704961776733398	1059626.6773300956
1.4747005701065063	842405.725326545
1.4788999557495117	916892.4073003299
1.4830944538116455	1466220.415917364
1.4872838258743286	2122989.993665163
1.491468071937561	2298828.51691108
1.4956470727920532	2157828.9179878877
1.4998208284378052	2439371.777403846
1.5039892196655273	3050792.3411792736
1.5081522464752197	3304574.1006110646
1.5123097896575928	3743479.3817210887
1.5164618492126465	5007596.779271881
1.5206083059310913	7062100.402303363
1.5247491598129272	8755462.036741119
1.5288842916488647	9084548.486690719
1.5330137014389038	9682011.406704755
1.5371372699737549	11052663.83889711
1.541254997253418	12189312.705677588
1.545366883277893	13595324.528118383
1.5494728088378906	15215471.540366039
1.5535727739334106	16113258.052338284
1.5576666593551636	16412092.609428624
1.561754584312439	17968206.629983943
1.5658363103866577	20899780.9579092
1.5699119567871094	22324566.100235645
1.5739814043045044	21088110.4701781
1.5780447721481323	19555761.686836135
1.582101821899414	21313302.411487978
1.5861525535583496	25064064.406643283
1.5901970863342285	26085131.662868496
1.5942351818084717	24155000.059304852
1.5982669591903687	21773503.218793288
1.6022924184799194	20248721.26066222
1.606311559677124	19386459.28081919
1.6103241443634033	18395324.4268699
1.6143304109573364	16538961.662913932
1.6183301210403442	13868937.604198236
1.6223233938217163	11115672.991637398
1.6263102293014526	8734837.93608455
1.6302905082702637	7193663.683803003
1.634264349937439	9306092.987135137
1.638231635093689	15234670.643685263
1.6421923637390137	17954114.84653573
1.646146535873413	14295140.89578864
1.6500942707061768	10267048.174944123
1.6540353298187256	10867446.23842963
1.6579699516296387	12654506.76048872
1.661897897720337	11331339.234119363
1.6658192873001099	7311371.665535397
1.6697341203689575	4980806.553244709
1.6736423969268799	6798719.935543311
1.677544116973877	7953633.0271456875
1.6814392805099487	6887757.162031733
1.6853278875350952	5977493.014692745
1.6892099380493164	4947781.744676243
1.6930854320526123	3572205.130858794
1.696954369544983	2383617.995697415
1.7008168697357178	2062130.638185621
1.7046726942062378	2591291.2173019187
1.708522081375122	3369182.088585971
1.712364912033081	4087870.186154632
1.7162011861801147	4967995.137658933
1.7200311422348022	5962607.14124949
1.723854422569275	6092329.681968317
1.7276713848114014	5389425.271746389
1.731481909751892	4571562.7000332
1.7352858781814575	3899329.2207911257
1.7390835285186768	3670649.732703508
1.7428747415542603	3549474.646651536
1.7466596364974976	3134704.235392671
1.7504380941390991	2633918.4424951617
1.7542102336883545	2471013.037620632
1.7579760551452637	3158514.8180995295
1.7617355585098267	3813595.912709661
1.7654887437820435	3256612.9151889924
1.7692357301712036	2084762.7793018983
1.7729763984680176	1125435.56446675
1.776710867881775	551730.3654606626
1.7804391384124756	372255.15730523766
1.7841613292694092	380990.8728881087
1.7878772020339966	331501.07818065665
1.7915871143341064	390043.72721632395
1.7952908277511597	749823.7321113944
1.7989884614944458	989033.592788195
1.8026801347732544	622604.1717679916
1.806365728378296	177702.79169555052
1.8100452423095703	134660.58225299322
1.8137187957763672	181754.72268035813
1.817386507987976	154122.9867357422
1.8210482597351074	196989.77400606356
1.8247040510177612	216279.48092437038
1.828354001045227	103516.86553102931
1.8319982290267944	55356.64549939923
1.8356364965438843	128387.68239722577
1.8392690420150757	211314.03341884093
1.8428958654403687	211978.24268423417
1.8465168476104736	237542.24710952514
1.8501322269439697	347004.34832353384
1.8537418842315674	312811.2721206381
1.8573459386825562	186583.49836662225
1.860944390296936	131163.28246284652
1.864537239074707	72933.22025033584
1.8681244850158691	47904.26385864231
1.871706247329712	105988.92544170757
1.8752825260162354	272644.8394426441
1.8788533210754395	683604.3201519019
1.8824186325073242	1027671.8905470229
1.8859784603118896	897607.5517759367
1.8895330429077148	739584.8776358668
1.8930821418762207	1041388.4312286293
1.8966259956359863	1110768.232020136
1.9001644849777222	510194.2101530486
1.9036977291107178	74301.49023002044
1.9072256088256836	41772.619935625604
1.9107483625411987	41891.66050393054
1.9142658710479736	23267.415019985277
1.9177782535552979	27681.414858278345
1.9212853908538818	48608.24438498805
1.9247875213623047	51299.46073417034
1.9282845258712769	55596.09376082993
1.9317764043807983	85962.61640941388
1.9352631568908691	108022.99737336807
1.9387450218200684	113888.20291894786
1.942221760749817	147481.50571851712
1.9456936120986938	222922.3856843969
1.9491604566574097	344506.2914995142
1.952622413635254	360295.0294734843
1.956079363822937	247510.337586449
1.959531545639038	212259.6481467109
1.962978720664978	257905.60375171632
1.966421127319336	430928.85592782823
1.9698586463928223	753190.5210003622
1.9732913970947266	911406.6153657186
1.9767193794250488	947964.5450376475
1.9801424741744995	1200430.5524834008
1.9835609197616577	1568192.975821142
1.9869745969772339	1634058.7029693332
1.990383505821228	1380462.7958501019
1.9937876462936401	1406236.9240776438
1.9971871376037598	1538160.8489433099
2.000581979751587	1698637.3781849302
2.003972291946411	2319688.3411995443
2.007357597351074	3096241.1220301767
2.0107386112213135	3909611.3729815576
2.0141148567199707	4022279.691894024
2.017486572265625	3258589.643657369
2.0208535194396973	3086095.023775766
2.0242159366607666	3575656.6471754187
2.027573823928833	4285079.618791858
2.0309269428253174	5225495.925854358
2.034275770187378	5791461.140885223
2.0376198291778564	6329423.392156534
2.040959596633911	7708287.776328348
2.044294595718384	9485053.22058871
2.0476250648498535	10984651.79812087
2.0509510040283203	11014224.893672822
2.054272413253784	9743201.876705736
2.057589530944824	9763650.500933828
2.0609018802642822	11142020.938692026
2.0642096996307373	12303997.10534945
2.0675129890441895	12980353.54879713
2.0708119869232178	13196328.520624066
2.074106216430664	12885018.25258963
2.0773961544036865	12573346.624049252
2.080681324005127	12740150.990737101
2.0839622020721436	12899467.693154626
2.087238311767578	12900055.920029193
2.090510129928589	12775266.373570697
2.0937774181365967	12352406.553431029
2.0970399379730225	12018600.139711242
2.1002981662750244	11785588.755112039
2.1035518646240234	11346761.38722784
2.1068007946014404	10821639.603605079
2.1100454330444336	10672762.554583086
2.1132853031158447	10616211.622520303
2.116520881652832	9963722.663438613
2.1197516918182373	9277298.521303495
2.1229779720306396	9097578.039983625
2.12619948387146	9181323.160689954
2.1294167041778564	9197001.311923614
2.132629156112671	9109900.464747021
2.1358368396759033	8643513.77702213
2.139039993286133	7826551.206595297
2.1422386169433594	7021171.191094952
2.145432472229004	6252018.316901194
2.1486217975616455	5716846.595265117
2.151806354522705	5245503.477473807
2.1549863815307617	5213764.943157109
2.1581614017486572	5402831.514781935
2.16133189201355	4884864.539235906
2.1644976139068604	4333693.095338846
2.167658567428589	4262595.050181003
2.1708147525787354	4481010.847166364
2.173966407775879	4739358.078066081
2.1771130561828613	4718523.611294262
2.1802549362182617	4363630.970611122
2.183391809463501	3837628.946720387
2.1865241527557373	3333845.701782206
2.1896514892578125	2824462.401948523
2.1927738189697266	2119850.082037072
2.1958916187286377	1277858.2830130104
2.1990041732788086	677785.8015607048
2.2021119594573975	463764.8477887073
2.2052149772644043	486885.2981483519
2.208312749862671	605027.8936045154
2.2114057540893555	729825.2319152636
2.214493751525879	780403.6520667294
2.217576742172241	715429.8056199116
2.2206547260284424	623470.9055426483
2.2237277030944824	578842.3858237414
2.2267956733703613	502564.75410330185
2.2298583984375	380382.8929057864
2.2329163551330566	295136.2118675508
2.235969066619873	264063.10857413954
2.2390167713165283	240804.9883768124
2.2420592308044434	186132.01791029845
2.2450966835021973	121878.9101102371
2.248128890991211	122232.3954170901
2.2511560916900635	181232.376365258
2.254178285598755	222614.26777046663
2.257194995880127	252658.31125939052
2.260206699371338	262220.0659270028
2.2632133960723877	218340.86051546104
2.266214609146118	171850.4426416982
2.2692108154296875	163769.72888359605
2.2722020149230957	195875.31185213744
2.2751877307891846	235406.6188255122
2.278168201446533	235518.7749372232
2.2811436653137207	208326.4495275901
2.284113883972168	191099.36278720078
2.287078857421875	176457.76372802016
2.290038824081421	156909.59963109123
2.2929933071136475	154869.60303584172
2.295942783355713	166744.1022989994
2.298887014389038	166882.66830308601
2.301826238632202	171835.56253590234
2.304760217666626	262757.57771458814
2.3076889514923096	467057.74324394745
2.310612440109253	653620.8026252793
2.3135311603546143	616575.1003832546
2.3164443969726562	355789.0410267915
2.319352865219116	153415.1611161235
2.322256088256836	126084.41219540249
2.3251543045043945	143540.9258542123
2.328047275543213	142675.96864138916
2.330935478210449	137557.7419491362
2.3338186740875244	132316.40256121295
2.3366971015930176	122833.65029745949
2.3395702838897705	113611.41116473208
2.3424389362335205	100775.84889020435
2.3453025817871094	83790.2373425507
2.348161458969116	78036.33849628839
2.351015567779541	99723.28054143208
2.353865146636963	143543.68911293987
2.3567099571228027	181538.3808510554
2.3595502376556396	210188.33716504334
2.3623859882354736	236907.516443876
2.3652172088623047	221839.25900878673
2.368043899536133	147974.25467627766
2.370866537094116	80075.69545428772
2.3736846446990967	68836.4980587906
2.3764986991882324	90925.46513853088
2.3793084621429443	118212.41359907288
2.3821144104003906	150543.6031088364
2.384916305541992	190728.38727190375
2.387714147567749	211766.9923131726
2.3905084133148193	192245.74445202266
2.393299102783203	173688.36268261695
2.3960859775543213	184528.3728809758
2.398869514465332	208158.56214460058
2.4016497135162354	213677.9496930714
2.4044265747070312	210042.76814672034
2.407200336456299	257084.60802626013
2.409970998764038	351450.0057065376
2.4127390384674072	411954.55810331646
2.415503978729248	429750.36456463806
2.418266534805298	490736.4881018059
2.4210267066955566	561730.4373298408
2.4237842559814453	513209.77945311856
2.426539897918701	440674.5626558846
2.429293394088745	539751.7926962933
2.4320452213287354	712540.1862689214
2.4347951412200928	746533.9239238584
2.4375438690185547	701970.8258033241
2.440291166305542	740202.5824841057
2.443037271499634	776302.0339714943
2.445782423019409	667592.0754942021
2.4485268592834473	502038.1054186608
2.451270818710327	475320.29995990096
2.454014539718628	616362.8754225858
2.4567582607269287	738772.6752835036
2.4595019817352295	776914.9830665143
2.4622461795806885	872040.4122419589
2.4649908542633057	892460.8922459288
2.4677364826202393	682819.4625746534
2.4704833030700684	450392.21527958073
2.473231554031372	333729.5716362911
2.4759814739227295	278954.88206776895
2.4787333011627197	252882.16763937962
2.481487512588501	264456.3929906525
