#wavelength	surface flux
0.6450077295303345	178586.11337685242
0.6472567915916443	269460.1940953044
0.6494921445846558	325331.56186986214
0.6517150402069092	341025.4417914004
0.6539263725280762	354233.6360019929
0.6561272740364075	367243.7717690417
0.6583186388015747	380494.08631293714
0.6605015397071838	394077.5839822204
0.6626768708229065	407534.041726745
0.6648455858230591	420613.8897012058
0.6670085787773132	425288.43785713235
0.6691668033599854	405538.8296302278
0.6713210344314575	398391.65839167626
0.6734722256660461	441897.8867632269
0.6756211519241333	488063.04283299344
0.6777685880661011	509979.0542319984
0.6799154281616211	526025.8126831012
0.6820623278617859	542066.9513108311
0.6842101216316223	559070.771520814
0.6863595843315125	575912.980886408
0.688511312007904	591757.0396881474
0.6906660795211792	605794.6051204825
0.6928245425224304	620711.3606063492
0.6949873566627502	640157.7760248985
0.6971551775932312	660691.3306653948
0.6993286609649658	679094.4604967474
0.7015084028244019	696726.329713563
0.7036949396133423	715251.4116233063
0.7058889269828796	734718.9806780705
0.7080909013748169	753753.6334889163
0.710301399230957	772781.7143125416
0.712520956993103	792023.982908336
0.7147500514984131	809023.832611836
0.7169892191886902	824202.7524196297
0.7192389369010925	842298.00735015
0.7214996814727783	861989.6195785224
0.723771870136261	879620.7725801873
0.7260559797286987	896474.585777271
0.7283523678779602	913030.1896544603
0.7306615710258484	930006.3060643215
0.7329838871955872	948328.6220230781
0.7353196740150452	965160.9994347335
0.7376693487167358	979445.255629463
0.7400332689285278	990635.1724616442
0.7424117922782898	995645.0268303956
0.7448052167892456	993867.9711926678
0.7472138404846191	982591.0361278976
0.7496379613876343	955709.6499363276
0.7520779371261597	905842.6014364206
0.7545340061187744	822681.4051295985
0.7570064663887024	694357.6865295335
0.7594954967498779	514906.3114285256
0.7620013952255249	303891.4469780124
0.7645244002342224	123301.13518166258
0.7670646905899048	32239.82759360522
0.7696225643157959	36757.23552317071
0.7721980810165405	151857.1935064676
0.7747915983200073	382576.6047883177
0.7774031162261963	636050.8012647822
0.7800329327583313	852739.1792474866
0.7826811671257019	1077667.2290672415
0.7853479981422424	1286937.478658069
0.7880334854125977	1430437.2722914114
0.7907378077507019	1455881.2537356643
0.7934610247612	1319431.9032506319
0.7962033748626709	1358315.8926104933
0.7989648580551147	1666813.0050968234
0.801745593547821	1875111.652301869
0.8045456409454346	1952495.736761645
0.8073651194572449	2012967.226841051
0.8102040886878967	2062090.9239537534
0.8130625486373901	2116151.061384598
0.8159406185150146	2188335.1114523667
0.8188382983207703	2261899.633569818
0.8217556476593018	2326417.0486252313
0.8246926665306091	2392467.806060567
0.8276493549346924	2458919.691507813
0.8306257724761963	2521117.843288478
0.8336219191551208	2584483.8149902374
0.8366377949714661	2647060.8318116507
0.8396733403205872	2717524.6199293253
0.8427285552024841	2803577.575038758
0.8458034992218018	2888334.7616862888
0.8488980531692505	2960411.7691367664
0.8520121574401855	3030083.183225005
0.8551458716392517	3115299.1740933484
0.8582990765571594	3196045.0451212567
0.8614717125892639	3240447.687630071
0.8646637797355652	3291101.9038041267
0.8678751587867737	3383148.76094454
0.8711057901382446	3480744.8521044925
0.8743556141853333	3566194.1167266807
0.87762451171875	3643021.8243269757
0.8809124231338501	3718521.222405318
0.8842192888259888	3804959.891968735
0.8875449895858765	3880886.4101595003
0.8908893465995789	3919154.530439527
0.894252359867096	3966123.455436554
0.8976338505744934	4085789.150772109
0.9010337591171265	4243374.829294755
0.9044519662857056	4381443.248640206
0.9078882932662964	4496864.428520195
0.9113426208496094	4594227.741267532
0.914814829826355	4661820.739412714
0.9183048605918884	4733925.93048629
0.9218124747276306	4798868.433544725
0.925337553024292	4650714.827384992
0.9288799166679382	4314424.0554552125
0.9324395060539246	4213207.09185527
0.9360161423683167	4441386.365942968
0.9396095871925354	4717608.230280145
0.943219780921936	4785812.881102276
0.9468464851379395	4755723.580228905
0.9504896402359009	4882797.28790935
0.9541489481925964	5092349.957290717
0.9578243494033813	5161376.322806922
0.9615156054496765	5055204.419421759
0.9652225375175476	5044945.091991268
0.9689450263977051	5307513.40422463
0.9726828336715698	5756302.649621201
0.9764357805252075	6108336.434682566
0.9802037477493286	6312198.874807673
0.983986496925354	6509426.192104341
0.9877838492393494	6722926.523887826
0.9915955662727356	6951851.549221321
0.9954215884208679	7157656.983432816
0.9992615580558777	7325409.359204038
1.0031154155731201	7480509.666936902
1.0069829225540161	7666109.596782362
1.0108637809753418	7882025.708286756
1.0147579908370972	8099916.139107534
1.018665075302124	8287241.754652844
1.022585153579712	8414265.251346538
1.0265177488327026	8509218.76501143
1.0304628610610962	8658224.676295796
1.0344202518463135	8897719.389125876
1.0383895635604858	9131997.765330642
1.0423706769943237	9311169.70367058
1.0463634729385376	9466881.304213185
1.0503677129745483	9616231.133848842
1.0543830394744873	9792371.88567704
1.058409333229065	9982193.677484524
1.0624464750289917	10154393.677186754
1.0664942264556885	10312569.97408359
1.0705522298812866	10467910.178836854
1.0746204853057861	10637905.98051807
1.0786986351013184	10816982.932399204
1.0827864408493042	10982680.776201868
1.086883783340454	11089524.073473888
1.0909905433654785	11104432.370611448
1.0951062440872192	10981719.099376792
1.0992310047149658	10336116.28985494
1.10336434841156	9297571.124640973
1.1075061559677124	8898722.16011108
1.1116561889648438	8868667.814455431
1.115814208984375	8542017.588709848
1.1199802160263062	8347603.9824659135
1.124153733253479	8632969.404971212
1.1283347606658936	8901406.33455021
1.1325229406356812	8515759.014696643
1.1367181539535522	8748306.25014566
1.1409201622009277	9925735.461048134
1.145128846168518	10621338.96252024
1.1493438482284546	9953237.642971203
1.1535650491714478	8445886.248911977
1.1577922105789185	7947128.83857605
1.1620250940322876	8768495.992764656
1.1662636995315552	9982612.81332877
1.170507550239563	10813883.296416808
1.174756646156311	11636166.719609335
1.1790107488632202	12812975.615926547
1.1832695007324219	13720043.366287077
1.1875330209732056	14233089.992252449
1.191800832748413	14700031.21560834
1.1960728168487549	15247240.383900397
1.2003488540649414	15631726.424344605
1.2046287059783936	15851060.966890443
1.2089121341705322	16078261.755265227
1.2131990194320679	16371117.359630471
1.2174891233444214	16712801.173887022
1.2217823266983032	17043933.327631567
1.2260783910751343	17333021.484363616
1.230377197265625	17582755.81125676
1.2346785068511963	17809820.60839783
1.238982081413269	18052179.177847844
1.2432878017425537	18280851.943277497
1.2475954294204712	18439717.048885256
1.2519049644470215	18565308.85519071
1.256216049194336	18800963.134711843
1.2605286836624146	19053437.628140513
1.2648425102233887	19205186.54262087
1.2691574096679688	19339853.279875677
1.2734732627868652	19498806.5640055
1.2777899503707886	19659522.89562784
1.2821072340011597	19776699.742116027
1.2864248752593994	19804938.330337588
1.2907428741455078	19748248.935235072
1.2950609922409058	19807146.095891397
1.2993791103363037	19895182.60004814
1.303696870803833	19832806.86536626
1.3080145120620728	19863585.229762074
1.3123314380645752	20098913.71221821
1.3166478872299194	20390518.688392207
1.3209635019302368	20172340.59383735
1.3252781629562378	19048474.03769614
1.3295916318893433	16486133.740868809
1.3339040279388428	11816209.34320091
1.3382149934768677	6624580.019415474
1.3425244092941284	4057053.00922694
1.3468321561813354	4068524.9200353716
1.3511382341384888	3593178.7334564147
1.3554422855377197	2626274.3309546933
1.3597444295883179	2415192.0993032726
1.3640443086624146	2684258.731017995
1.3683418035507202	3414821.488289193
1.3726370334625244	5271359.552748123
1.3769296407699585	7067382.199577255
1.381219506263733	5651952.421445713
1.3855066299438477	2844249.2117057852
1.3897908926010132	1926610.5494213451
1.3940720558166504	2129739.1253107884
1.3983501195907593	2618765.98131917
1.4026249647140503	4024495.498016467
1.4068963527679443	5163401.112336436
1.4111642837524414	4165125.0675485083
1.4154287576675415	3261149.531445306
1.419689416885376	3330881.8869472295
1.4239463806152344	3257049.019176819
1.4281994104385376	3852876.06928857
1.4324485063552856	4345162.273685997
1.436693549156189	4369584.95971246
1.440934419631958	5129697.803229374
1.4451709985733032	7003231.253890884
1.449403166770935	9576500.81063033
1.453631043434143	11259974.797836967
1.4578542709350586	12035522.81600465
1.4620729684829712	12920658.098609876
1.4662868976593018	13070789.07104688
1.4704961776733398	12439500.747244082
1.4747005701065063	12275746.337471401
1.4788999557495117	12937878.715644546
1.4830944538116455	14594164.307969933
1.4872838258743286	16349147.40769969
1.491468071937561	16852982.02252957
1.4956470727920532	16819112.810587678
1.4998208284378052	17768936.729563855
1.5039892196655273	19079871.066726778
1.5081522464752197	19389380.967885002
1.5123097896575928	19764423.207031514
1.5164618492126465	21072119.989818487
1.5206083059310913	22907389.177477177
1.5247491598129272	24193407.482817683
1.5288842916488647	24413206.39734128
1.5330137014389038	24829846.872759286
1.5371372699737549	25587609.097192936
1.541254997253418	25912216.057736367
1.545366883277893	26301876.706624683
1.5494728088378906	26968906.251330454
1.5535727739334106	27322310.522243716
1.5576666593551636	27204439.207717143
1.561754584312439	27429339.195955556
1.5658363103866577	28320952.692576353
1.5699119567871094	28908818.788190287
1.5739814043045044	28618660.4593003
1.5780447721481323	28042701.547244467
1.582101821899414	28487151.35630363
1.5861525535583496	29722480.858244307
1.5901970863342285	30280783.745859466
1.5942351818084717	30130475.59251036
1.5982669591903687	29871128.103863165
1.6022924184799194	29877060.853153583
1.606311559677124	30125115.662593976
1.6103241443634033	30188362.445603315
1.6143304109573364	30025993.958278388
1.6183301210403442	29814835.997686088
1.6223233938217163	29621078.008875914
1.6263102293014526	29404527.80740929
1.6302905082702637	29078656.777888432
1.634264349937439	29533991.221382484
1.638231635093689	30981441.051127676
1.6421923637390137	31794702.265147112
1.646146535873413	31295707.753642604
1.6500942707061768	30649784.44223309
1.6540353298187256	30970190.151360445
1.6579699516296387	31466559.036533143
1.661897897720337	30626182.50921764
1.6658192873001099	28229437.030219916
1.6697341203689575	27365547.212671876
1.6736423969268799	29481230.13001454
1.677544116973877	30995326.995721623
1.6814392805099487	30958854.079969507
1.6853278875350952	30769297.944919866
1.6892099380493164	30171126.31129468
1.6930854320526123	28677615.37187628
1.696954369544983	27158958.62936535
1.7008168697357178	27011463.920156613
1.7046726942062378	27618702.520883087
1.708522081375122	28136466.01933666
1.712364912033081	28563774.964597408
1.7162011861801147	29160731.702999137
1.7200311422348022	29887720.69565076
1.723854422569275	29974238.7467424
1.7276713848114014	29334061.77092522
1.731481909751892	28122328.648336995
1.7352858781814575	26734930.532668903
1.7390835285186768	25785706.002567884
1.7428747415542603	24737504.017207384
1.7466596364974976	23099132.40956382
1.7504380941390991	21130456.186782997
1.7542102336883545	19987287.493358355
1.7579760551452637	22072644.977091435
1.7617355585098267	24732763.771251004
1.7654887437820435	23242046.72453209
1.7692357301712036	18850961.751383446
1.7729763984680176	14017585.890862953
1.776710867881775	9664153.085755179
1.7804391384124756	7968956.749958315
1.7841613292694092	8166864.738414632
1.7878772020339966	7466942.057309689
1.7915871143341064	7768653.077396814
1.7952908277511597	9725478.50428787
1.7989884614944458	10014523.938700296
1.8026801347732544	7074073.506023558
1.806365728378296	3862828.493188456
1.8100452423095703	3960731.4807408005
1.8137187957763672	5077837.247354662
1.817386507987976	4415171.655976729
1.8210482597351074	5090087.711189737
1.8247040510177612	5669331.597271509
1.828354001045227	3572644.133405372
1.8319982290267944	2958350.7776583717
1.8356364965438843	4863225.815523855
1.8392690420150757	6723810.961956475
1.8428958654403687	6923075.361634161
1.8465168476104736	6705032.625030058
1.8501322269439697	6816192.875153166
1.8537418842315674	5327301.076803386
1.8573459386825562	3773339.117546289
1.860944390296936	3296795.596664598
1.864537239074707	2614348.6726754834
1.8681244850158691	2970298.8369406993
1.871706247329712	4882208.034896288
1.8752825260162354	7072847.45437471
1.8788533210754395	9682710.489168556
1.8824186325073242	11543203.334431343
1.8859784603118896	10827196.804504178
1.8895330429077148	10130410.067288334
1.8930821418762207	11950379.111101689
1.8966259956359863	11724317.892465798
1.9001644849777222	6850563.6836861195
1.9036977291107178	3386078.275554489
1.9072256088256836	3751965.4302429506
1.9107483625411987	3723462.542410608
1.9142658710479736	2281044.9340471104
1.9177782535552979	2108069.1157141533
1.9212853908538818	2977824.3396644127
1.9247875213623047	3049336.282830162
1.9282845258712769	3157316.2293919823
1.9317764043807983	4120007.611642836
1.9352631568908691	4573911.214200916
1.9387450218200684	4315824.1837119935
1.942221760749817	4649012.131550342
1.9456936120986938	5291444.8442132445
1.9491604566574097	5921005.831057056
1.952622413635254	5694379.22141535
1.956079363822937	4598301.8604308115
1.959531545639038	4514724.032078057
1.962978720664978	5020881.960109133
1.966421127319336	6316589.560779767
1.9698586463928223	8650622.3477133
1.9732913970947266	9827736.091407614
1.9767193794250488	10468515.660785176
1.9801424741744995	12229758.17821088
1.9835609197616577	14022481.262735343
1.9869745969772339	14168141.384499095
1.990383505821228	12468495.044360323
1.9937876462936401	11836730.441443624
1.9971871376037598	12168540.75110874
2.000581979751587	13138758.62731243
2.003972291946411	15929416.565400459
2.007357597351074	18204876.605169896
2.0107386112213135	20135428.49845452
2.0141148567199707	20890978.411119033
2.017486572265625	19374931.547818594
2.0208535194396973	19870681.36543138
2.0242159366607666	22642385.25352306
2.027573823928833	24376202.932119675
2.0309269428253174	25466877.142333936
2.034275770187378	26907331.16695809
2.0376198291778564	28072803.35107582
2.040959596633911	29084605.836380318
2.044294595718384	30461626.196507886
2.0476250648498535	31907520.326703552
2.0509510040283203	32226358.94800799
2.054272413253784	31482881.899105605
2.057589530944824	31707593.118157912
2.0609018802642822	32884376.634808674
2.0642096996307373	33865114.563337795
2.0675129890441895	34527697.01145887
2.0708119869232178	34816697.769372866
2.074106216430664	34651620.64576977
2.0773961544036865	34505331.0259054
2.080681324005127	34797613.69532127
2.0839622020721436	35210221.28413522
2.087238311767578	35503434.9179264
2.090510129928589	35497315.438117094
2.0937774181365967	35241166.593290195
2.0970399379730225	35213143.85091127
2.1002981662750244	35270746.65170237
2.1035518646240234	35011950.509189874
2.1068007946014404	34632269.49743183
2.1100454330444336	34899298.57884804
2.1132853031158447	35492660.34427046
2.116520881652832	35411017.71401443
2.1197516918182373	35175842.14834492
2.1229779720306396	35358843.53777005
2.12619948387146	35610704.20709993
2.1294167041778564	35686704.263151675
2.132629156112671	35718537.064110376
2.1358368396759033	35495122.517693534
2.139039993286133	34955101.27998586
2.1422386169433594	34457011.26944422
2.145432472229004	34079524.823781095
2.1486217975616455	33768327.23788139
2.151806354522705	33363903.489173293
2.1549863815307617	33284311.256442323
2.1581614017486572	33406428.758974005
2.16133189201355	33072250.619559336
2.1644976139068604	32734326.93774581
2.167658567428589	32644155.90365096
2.1708147525787354	32610062.231526364
2.173966407775879	32443484.522254754
2.1771130561828613	32160985.844536956
2.1802549362182617	31897485.12840208
2.183391809463501	31453565.38977167
2.1865241527557373	30762226.129288763
2.1896514892578125	29750955.87988745
2.1927738189697266	27628802.05847374
2.1958916187286377	24114430.76355907
2.1990041732788086	20747361.94411757
2.2021119594573975	18921613.01047651
2.2052149772644043	18330109.794720545
2.208312749862671	18674120.415348276
2.2114057540893555	19927026.45577627
2.214493751525879	21049236.851205
2.217576742172241	21021709.85757251
2.2206547260284424	20577925.165049613
2.2237277030944824	20192637.03698968
2.2267956733703613	18843070.34874833
2.2298583984375	16870967.3481684
2.2329163551330566	15629957.681417517
2.235969066619873	15303277.675240926
2.2390167713165283	14919985.363177458
2.2420592308044434	13580773.293854032
2.2450966835021973	12071367.029890284
2.248128890991211	12228313.541924974
2.2511560916900635	13625619.890741682
2.254178285598755	14492417.463619683
2.257194995880127	15027487.534599202
2.260206699371338	15061697.541546553
2.2632133960723877	13642230.22885535
2.266214609146118	11803891.77500748
2.2692108154296875	11161615.656276764
2.2722020149230957	12004939.551952899
2.2751877307891846	13089401.907384273
2.278168201446533	13005467.961341506
2.2811436653137207	12081527.102743875
2.284113883972168	11356468.470972804
2.287078857421875	10785181.459414914
2.290038824081421	10058139.931075538
2.2929933071136475	9354639.734326921
2.295942783355713	8719634.7599096
2.298887014389038	8128724.72841129
2.301826238632202	7792860.513675432
2.304760217666626	7930553.849169963
2.3076889514923096	8525460.46583767
2.310612440109253	9282244.052424274
2.3135311603546143	9150903.868001658
2.3164443969726562	7374998.88711977
2.319352865219116	5497038.2345929
2.322256088256836	4933192.998853718
2.3251543045043945	4928924.059198753
2.328047275543213	4871936.922295458
2.330935478210449	4971568.286603208
2.3338186740875244	5155607.825061949
2.3366971015930176	5280292.984699501
2.3395702838897705	5387576.124778327
2.3424389362335205	5378565.731517008
2.3453025817871094	5262457.780854887
2.348161458969116	5262863.617666146
2.351015567779541	5682133.640350428
2.353865146636963	6517807.860976525
2.3567099571228027	7221170.364786334
2.3595502376556396	7805430.70820025
2.3623859882354736	8598255.988598166
2.3652172088623047	8522396.822570648
2.368043899536133	6630715.084790074
2.370866537094116	4627004.82131925
2.3736846446990967	4375218.904154877
2.3764986991882324	4757167.620876626
2.3793084621429443	4649408.921159134
2.3821144104003906	4833198.3967064805
2.384916305541992	5906435.301645026
2.387714147567749	7187671.128990268
2.3905084133148193	7712136.849646007
2.393299102783203	7594380.721704463
2.3960859775543213	7171149.47066812
2.398869514465332	6783087.679397596
2.4016497135162354	6502154.7961253105
2.4044265747070312	6327371.338938182
2.407200336456299	6844699.6877081245
2.409970998764038	7880496.37889399
2.4127390384674072	8531446.985466357
2.415503978729248	8864482.795582304
2.418266534805298	9613973.554408902
2.4210267066955566	10262886.00172763
2.4237842559814453	9737235.23789125
2.426539897918701	8774439.1412763
2.429293394088745	8826226.978731949
2.4320452213287354	9640690.949561413
2.4347951412200928	10129590.98642484
2.4375438690185547	10079604.221821431
2.440291166305542	9772584.071082406
2.443037271499634	9129031.924828239
2.445782423019409	8101248.205683763
2.4485268592834473	7045499.586764575
2.451270818710327	6729822.931395773
2.454014539718628	7910170.684846813
2.4567582607269287	9247109.580244139
2.4595019817352295	9039191.202901455
2.4622461795806885	9037265.204296133
2.4649908542633057	9134241.592219356
2.4677364826202393	7473265.20114715
2.4704833030700684	5365362.088550891
2.473231554031372	3940059.741922946
2.4759814739227295	3048668.89071773
2.4787333011627197	2745975.173975101
2.481487512588501	3187742.6933565047
2.4842441082000732	3861750.5058372836
