#wavelength	surface flux
0.6450077295303345	133101.3389674771
0.6472567915916443	208769.53190383757
0.6494921445846558	270633.82549583534
0.6517150402069092	308450.38568794425
0.6539263725280762	346708.3907039899
0.6561272740364075	386839.01061345916
0.6583186388015747	428647.8372897929
0.6605015397071838	471539.9446187369
0.6626768708229065	514047.5141944421
0.6648455858230591	549828.8963716826
0.6670085787773132	546167.9802261547
0.6691668033599854	462486.5933437674
0.6713210344314575	421344.3295366311
0.6734722256660461	564058.1627679343
0.6756211519241333	756421.9871176152
0.6777685880661011	872974.5245327401
0.6799154281616211	951283.3937187787
0.6820623278617859	1019584.9995704782
0.6842101216316223	1083836.2110006486
0.6863595843315125	1144784.0850648088
0.688511312007904	1199736.4687351047
0.6906660795211792	1244113.9497543976
0.6928245425224304	1284642.7735452615
0.6949873566627502	1337131.3365347844
0.6971551775932312	1394493.4764480079
0.6993286609649658	1440627.3182924492
0.7015084028244019	1478332.919600766
0.7036949396133423	1508404.7250821714
0.7058889269828796	1527139.5310999737
0.7080909013748169	1535935.0971476603
0.710301399230957	1538035.9340096163
0.712520956993103	1531866.704807993
0.7147500514984131	1510989.235399605
0.7169892191886902	1474775.6938612787
0.7192389369010925	1426415.5723383392
0.7214996814727783	1365148.9196586586
0.723771870136261	1294542.677679636
0.7260559797286987	1218754.2685953446
0.7283523678779602	1134382.5922705776
0.7306615710258484	1057085.1656871499
0.7329838871955872	994841.5419768149
0.7353196740150452	915224.3040218147
0.7376693487167358	812419.7148027985
0.7400332689285278	706378.3267986312
0.7424117922782898	601287.6178751368
0.7448052167892456	500142.3165767331
0.7472138404846191	402859.54599948524
0.7496379613876343	309722.09751390055
0.7520779371261597	224859.80602373747
0.7545340061187744	151431.68043967857
0.7570064663887024	92252.83048053934
0.7594954967498779	49202.16259261763
0.7620013952255249	21865.52309357188
0.7645244002342224	7505.702770642406
0.7670646905899048	2104.2063409450675
0.7696225643157959	2334.259185642916
0.7721980810165405	9534.045293548974
0.7747915983200073	28985.86765360343
0.7774031162261963	61385.97559154207
0.7800329327583313	115393.23222854243
0.7826811671257019	216354.62133598712
0.7853479981422424	361408.4141517023
0.7880334854125977	525208.5129845332
0.7907378077507019	635527.885534853
0.7934610247612	645498.8641135966
0.7962033748626709	851677.9424320029
0.7989648580551147	1355424.9540868455
0.801745593547821	1831263.2450526396
0.8045456409454346	2217114.4129970153
0.8073651194572449	2596198.7692485857
0.8102040886878967	2976709.3010891904
0.8130625486373901	3415799.0854432504
0.8159406185150146	3904000.4097775808
0.8188382983207703	4430105.003425998
0.8217556476593018	5105634.528733919
0.8246926665306091	5833568.758668611
0.8276493549346924	6465613.681640317
0.8306257724761963	7167879.613007676
0.8336219191551208	8057685.764443896
0.8366377949714661	8938683.916934969
0.8396733403205872	9749316.865121074
0.8427285552024841	10639065.079840625
0.8458034992218018	11490081.991941562
0.8488980531692505	11456802.453906914
0.8520121574401855	11123744.75919088
0.8551458716392517	12979089.116016153
0.8582990765571594	15298289.125168445
0.8614717125892639	14713826.028784866
0.8646637797355652	13588992.474863147
0.8678751587867737	14359435.11774177
0.8711057901382446	15522710.623374555
0.8743556141853333	16656798.716648234
0.87762451171875	18337092.352128346
0.8809124231338501	19906432.68137012
0.8842192888259888	21026895.079468347
0.8875449895858765	21357297.390865806
0.8908893465995789	20368713.996304307
0.894252359867096	19832367.57373992
0.8976338505744934	22746573.15163862
0.9010337591171265	28839996.74835941
0.9044519662857056	34958773.64623546
0.9078882932662964	39367147.1409226
0.9113426208496094	41909741.64259507
0.914814829826355	42442589.20250837
0.9183048605918884	42879680.16750649
0.9218124747276306	41379631.7986157
0.925337553024292	34290606.7445182
0.9288799166679382	29409190.457035955
0.9324395060539246	30419979.582560148
0.9360161423683167	31697282.207512267
0.9396095871925354	31453430.5700235
0.943219780921936	30399413.902134746
0.9468464851379395	28391689.959137246
0.9504896402359009	30719981.712924216
0.9541489481925964	39649575.10854382
0.9578243494033813	42546343.44804017
0.9615156054496765	34962992.12687143
0.9652225375175476	27364472.213318672
0.9689450263977051	32119705.971630383
0.9726828336715698	46320594.03300442
0.9764357805252075	53201125.54253954
0.9802037477493286	54703626.362035625
0.983986496925354	62286629.14624885
0.9877838492393494	67847174.03831352
0.9915955662727356	64884033.219472624
0.9954215884208679	59848509.8260512
0.9992615580558777	51920226.55283932
1.0031154155731201	45083556.96178854
1.0069829225540161	47004932.53285582
1.0108637809753418	55872969.58132527
1.0147579908370972	67272596.57260011
1.018665075302124	74687633.39644119
1.022585153579712	74231761.10372216
1.0265177488327026	74224514.00355309
1.0304628610610962	83049967.33475567
1.0344202518463135	94803066.46228768
1.0383895635604858	101877807.56157456
1.0423706769943237	105179816.98618554
1.0463634729385376	108443344.66900638
1.0503677129745483	111905672.07629204
1.0543830394744873	119220475.18113111
1.058409333229065	128380909.29196149
1.0624464750289917	133226671.14978021
1.0664942264556885	136757667.48357219
1.0705522298812866	141591212.15129676
1.0746204853057861	146063903.3170331
1.0786986351013184	148612974.16636965
1.0827864408493042	150551069.9106832
1.086883783340454	141570967.03932798
1.0909905433654785	115171596.07925491
1.0951062440872192	92047626.45571359
1.0992310047149658	70161094.50671443
1.10336434841156	40164073.86344512
1.1075061559677124	24704237.39081325
1.1116561889648438	21904244.845494386
1.115814208984375	17370918.94532597
1.1199802160263062	16295036.873731423
1.124153733253479	17768441.43134284
1.1283347606658936	15035889.98839326
1.1325229406356812	11596107.139383955
1.1367181539535522	17529081.940553393
1.1409201622009277	30537506.17158298
1.145128846168518	38100972.711968645
1.1493438482284546	33245369.519310404
1.1535650491714478	23991810.93876204
1.1577922105789185	20347849.91019797
1.1620250940322876	21273659.66269212
1.1662636995315552	27108467.234168597
1.170507550239563	33719442.32854349
1.174756646156311	40252051.147515796
1.1790107488632202	52048074.91620626
1.1832695007324219	58478653.173313625
1.1875330209732056	54259775.602966204
1.191800832748413	64140918.744214185
1.1960728168487549	88405832.70514318
1.2003488540649414	100740406.46853441
1.2046287059783936	104045206.68954681
1.2089121341705322	106420619.12204231
1.2131990194320679	112831174.42961755
1.2174891233444214	127397818.83350798
1.2217823266983032	138302970.7434906
1.2260783910751343	143280116.42659503
1.230377197265625	150644890.1514262
1.2346785068511963	156160200.08988857
1.238982081413269	151063453.58126
1.2432878017425537	142703096.53343546
1.2475954294204712	140907015.1925399
1.2519049644470215	141819003.79231852
1.256216049194336	161282598.85606873
1.2605286836624146	181407299.9645243
1.2648425102233887	177340295.01468307
1.2691574096679688	180222439.4397056
1.2734732627868652	194554753.2529198
1.2777899503707886	193135663.60908264
1.2821072340011597	177611348.4056511
1.2864248752593994	172890189.49398473
1.2907428741455078	175662191.3061725
1.2950609922409058	171601806.9216922
1.2993791103363037	147824358.925079
1.303696870803833	124708703.86376566
1.3080145120620728	123329357.18004996
1.3123314380645752	128063152.84050389
1.3166478872299194	130600232.39107771
1.3209635019302368	114513352.1879763
1.3252781629562378	87957419.31952551
1.3295916318893433	62941826.44563044
1.3339040279388428	31375431.550503206
1.3382149934768677	9564646.544388792
1.3425244092941284	4450557.788832438
1.3468321561813354	3789299.622087488
1.3511382341384888	3458540.954303436
1.3554422855377197	2668624.4968961985
1.3597444295883179	3092248.568393808
1.3640443086624146	4506702.530768722
1.3683418035507202	4084688.939257912
1.3726370334625244	3055647.6252210303
1.3769296407699585	3574207.605650947
1.381219506263733	3285652.352927588
1.3855066299438477	1909854.8176299904
1.3897908926010132	2120203.711865826
1.3940720558166504	3476151.5538966144
1.3983501195907593	3260985.518390014
1.4026249647140503	2787926.4540202254
1.4068963527679443	3397144.3186697788
1.4111642837524414	3752433.8668924016
1.4154287576675415	3833331.860189514
1.419689416885376	3606374.6344773
1.4239463806152344	3454106.768643092
1.4281994104385376	2752389.774378315
1.4324485063552856	1907505.3390291845
1.436693549156189	2643407.1380406944
1.440934419631958	4614358.092282469
1.4451709985733032	7754151.066735078
1.449403166770935	11096692.709745647
1.453631043434143	10967724.246131318
1.4578542709350586	9546402.38082561
1.4620729684829712	12099111.371987771
1.4662868976593018	15123582.05319491
1.4704961776733398	11397551.79267354
1.4747005701065063	6152494.889736858
1.4788999557495117	7925006.77206473
1.4830944538116455	13912879.403898975
1.4872838258743286	15865511.035231216
1.491468071937561	12765204.78920578
1.4956470727920532	12586785.705266917
1.4998208284378052	17362850.296513576
1.5039892196655273	19446026.908440743
1.5081522464752197	16457559.786240084
1.5123097896575928	17407996.805706423
1.5164618492126465	26906296.941966396
1.5206083059310913	37043795.94983059
1.5247491598129272	39007838.853301734
1.5288842916488647	37898079.11757414
1.5330137014389038	41443735.69233931
1.5371372699737549	44358720.08101385
1.541254997253418	43407211.60065788
1.545366883277893	45846927.71058046
1.5494728088378906	49635993.233431526
1.5535727739334106	50606133.97272513
1.5576666593551636	52805661.86542621
1.561754584312439	58274702.09991227
1.5658363103866577	65395437.740524895
1.5699119567871094	68700441.71927129
1.5739814043045044	67993733.72727774
1.5780447721481323	70761993.62969045
1.582101821899414	77611410.75740822
1.5861525535583496	82503922.83743513
1.5901970863342285	80856421.63449089
1.5942351818084717	75057501.5100256
1.5982669591903687	74348511.87190622
1.6022924184799194	76246313.81637098
1.606311559677124	73143173.02670877
1.6103241443634033	72071697.13736738
1.6143304109573364	71817449.9989217
1.6183301210403442	66518446.540795855
1.6223233938217163	63103615.01686258
1.6263102293014526	62861705.01548006
1.6302905082702637	64332499.02930979
1.634264349937439	69204381.2277746
1.638231635093689	75252035.50019974
1.6421923637390137	77233203.15604433
1.646146535873413	70497544.21226768
1.6500942707061768	62878242.56436642
1.6540353298187256	62871800.85056593
1.6579699516296387	63894747.07430374
1.661897897720337	59753537.54127041
1.6658192873001099	45997978.906097434
1.6697341203689575	35578058.850673825
1.6736423969268799	42742664.48682975
1.677544116973877	51208216.51682793
1.6814392805099487	51396353.18754212
1.6853278875350952	47287675.99621815
1.6892099380493164	40382846.091255076
1.6930854320526123	33744258.011099555
1.696954369544983	30657269.332780816
1.7008168697357178	30953786.503021497
1.7046726942062378	31373336.170569
1.708522081375122	32136957.52824038
1.712364912033081	31745998.125155933
1.7162011861801147	30665551.10316202
1.7200311422348022	32239169.099944856
1.723854422569275	32707826.796540704
1.7276713848114014	29262600.739723388
1.731481909751892	24477049.45445027
1.7352858781814575	22252476.99517323
1.7390835285186768	23337637.344248667
1.7428747415542603	23437649.94123281
1.7466596364974976	19298897.021542616
1.7504380941390991	15128131.837007318
1.7542102336883545	15934198.554751175
1.7579760551452637	20378679.879153606
1.7617355585098267	26161171.894497167
1.7654887437820435	27866852.346742745
1.7692357301712036	21428388.056466743
1.7729763984680176	13723404.274808988
1.776710867881775	8705887.37222331
1.7804391384124756	6454048.447312489
1.7841613292694092	6478216.242319762
1.7878772020339966	6706278.955677785
1.7915871143341064	9422451.1519111
1.7952908277511597	12329536.548044674
1.7989884614944458	11374275.511563925
1.8026801347732544	8386128.630557616
1.806365728378296	6084208.1541163735
1.8100452423095703	5286078.748556096
1.8137187957763672	4699395.653743679
1.817386507987976	3643272.736753633
1.8210482597351074	6356496.140700546
1.8247040510177612	11338599.593096357
1.828354001045227	10212380.427696621
1.8319982290267944	5496575.691916142
1.8356364965438843	5382791.595015181
1.8392690420150757	8367198.492756008
1.8428958654403687	9102231.270541528
1.8465168476104736	7729751.50060252
1.8501322269439697	6503237.744588159
1.8537418842315674	5574638.112784607
1.8573459386825562	5374514.879009546
1.860944390296936	4310509.862871323
1.864537239074707	2134962.0897735027
1.8681244850158691	1369671.4698033647
1.871706247329712	2607058.085059886
1.8752825260162354	4574926.287395979
1.8788533210754395	5201512.736429763
1.8824186325073242	5544277.176153124
1.8859784603118896	8637621.656513147
1.8895330429077148	11787817.620678768
1.8930821418762207	9803479.235360447
1.8966259956359863	6752654.1489233775
1.9001644849777222	6303529.54331042
1.9036977291107178	5408605.304705362
1.9072256088256836	6548040.9824579945
1.9107483625411987	8234830.340231887
1.9142658710479736	6024279.773453596
1.9177782535552979	4954649.382229189
1.9212853908538818	4764347.0688906945
1.9247875213623047	2418983.3861223785
1.9282845258712769	1458291.796802961
1.9317764043807983	3905401.7964674444
1.9352631568908691	8237111.986022025
1.9387450218200684	8817122.472349025
1.942221760749817	5073241.476024042
1.9456936120986938	2636634.3014089838
1.9491604566574097	2383251.726319916
1.952622413635254	3586057.9205923835
1.956079363822937	7299102.341631848
1.959531545639038	10807341.8715074
1.962978720664978	9212370.512287505
1.966421127319336	6329043.527779472
1.9698586463928223	7107084.27066357
1.9732913970947266	8155104.849231344
1.9767193794250488	8399045.916525045
1.9801424741744995	9086087.072878174
1.9835609197616577	9343474.636775069
1.9869745969772339	11009825.33373581
1.990383505821228	12722168.114201317
1.9937876462936401	12225635.00958683
1.9971871376037598	10239059.28727696
2.000581979751587	8378090.7916338025
2.003972291946411	10058135.06523179
2.007357597351074	12842367.729184575
2.0107386112213135	13903427.193427738
2.0141148567199707	13322365.871198839
2.017486572265625	11464029.379008047
2.0208535194396973	11979836.013547886
2.0242159366607666	14307344.739168834
2.027573823928833	14630537.370859906
2.0309269428253174	14100579.030003514
2.034275770187378	15815012.833636863
2.0376198291778564	20027312.972288005
2.040959596633911	23905631.15523078
2.044294595718384	25131391.403608266
2.0476250648498535	24967060.043325253
2.0509510040283203	23414481.055077724
2.054272413253784	21013206.87808601
2.057589530944824	21705624.54050313
2.0609018802642822	25331376.88290951
2.0642096996307373	28070256.6818906
2.0675129890441895	29107537.619516693
2.0708119869232178	29224688.300685856
2.074106216430664	28743106.19746261
2.0773961544036865	29297966.284535713
2.080681324005127	30535296.468800455
2.0839622020721436	30595129.569176134
2.087238311767578	29696565.12332692
2.090510129928589	29012408.07959655
2.0937774181365967	29318104.75948334
2.0970399379730225	29649271.80810284
2.1002981662750244	28530742.710871965
2.1035518646240234	27486095.160936926
2.1068007946014404	27845852.701592796
2.1100454330444336	28249035.376949076
2.1132853031158447	27911767.72956632
2.116520881652832	26830826.366645947
2.1197516918182373	25696896.542399913
2.1229779720306396	25244116.972403202
2.12619948387146	24908546.029562034
2.1294167041778564	24707155.618025787
2.132629156112671	24974666.980881464
2.1358368396759033	24395114.439661134
2.139039993286133	23103312.928852234
2.1422386169433594	22131505.63249978
2.145432472229004	21320551.347083054
2.1486217975616455	20635537.186244436
2.151806354522705	19724171.17720828
2.1549863815307617	19557286.42399542
2.1581614017486572	20399481.649628323
2.16133189201355	20861654.510712385
2.1644976139068604	20613614.793177273
2.167658567428589	19372703.714363974
2.1708147525787354	17902955.749713227
2.173966407775879	17575481.47779922
2.1771130561828613	18021292.057925474
2.1802549362182617	17855681.91710896
2.183391809463501	16663172.297646541
2.1865241527557373	15387422.20198144
2.1896514892578125	14426894.10700367
2.1927738189697266	12824377.486283764
2.1958916187286377	9839708.288432473
2.1990041732788086	6641941.085079369
2.2021119594573975	5018127.849189394
2.2052149772644043	4874003.618158205
2.208312749862671	5307860.564588733
2.2114057540893555	6358627.458354063
2.214493751525879	7386544.9757367615
2.217576742172241	7079768.414117582
2.2206547260284424	6198989.303757952
2.2237277030944824	5550930.421537813
2.2267956733703613	4648126.645041611
2.2298583984375	3876383.178122452
2.2329163551330566	3684580.870624603
2.235969066619873	3912965.765233278
2.2390167713165283	3955681.857234026
2.2420592308044434	3522745.3828987167
2.2450966835021973	3087029.3943953905
2.248128890991211	2978389.8833544687
2.2511560916900635	3164594.7116208486
2.254178285598755	3759531.7645487525
2.257194995880127	4757388.512840975
2.260206699371338	4647492.244072772
2.2632133960723877	3042927.1962400666
2.266214609146118	2348969.7561144615
2.2692108154296875	3446443.0583650935
2.2722020149230957	4546878.34552603
2.2751877307891846	4419794.453877898
2.278168201446533	3908177.702547353
2.2811436653137207	3807428.1708898335
2.284113883972168	3589260.467213011
2.287078857421875	2966229.335863208
2.290038824081421	2543577.159340179
2.2929933071136475	2576118.378714306
2.295942783355713	2665415.160724908
2.298887014389038	2822183.3436545976
2.301826238632202	3228538.0957230814
2.304760217666626	3657971.314457732
2.3076889514923096	4395106.411570315
2.310612440109253	5973203.620707356
2.3135311603546143	7502624.2385740895
2.3164443969726562	6888387.184094202
2.319352865219116	4123526.8161047166
2.322256088256836	2063203.6715547596
2.3251543045043945	1501887.4504617713
2.328047275543213	1352798.9110747608
2.330935478210449	1459966.4373224794
2.3338186740875244	1524499.0225857652
2.3366971015930176	1366993.86155197
2.3395702838897705	1213417.080905272
2.3424389362335205	1166012.5175811124
2.3453025817871094	1153467.118625537
2.348161458969116	1150904.9899239386
2.351015567779541	1523267.0335831968
2.353865146636963	2659382.300119616
2.3567099571228027	4114987.3200675235
2.3595502376556396	5009193.249060997
2.3623859882354736	4816845.23137809
2.3652172088623047	3545900.7616660055
2.368043899536133	2028758.3918890257
2.370866537094116	1200799.2367355982
2.3736846446990967	1155913.6331226202
2.3764986991882324	1314006.605503512
2.3793084621429443	1325132.1990420194
2.3821144104003906	1383848.4751825584
2.384916305541992	1761043.4409476414
2.387714147567749	2224146.4149660426
2.3905084133148193	2284596.5923923487
2.393299102783203	2078209.891676298
2.3960859775543213	1867084.5197044997
2.398869514465332	1857987.342777029
2.4016497135162354	2308632.967096876
2.4044265747070312	3123472.668067976
2.407200336456299	3670302.149538218
2.409970998764038	3453965.7129708296
2.4127390384674072	2940806.438486162
2.415503978729248	2764186.8388130753
2.418266534805298	2918524.0896712374
2.4210267066955566	3106508.083251433
2.4237842559814453	3180934.506282335
2.426539897918701	3370776.489157625
2.429293394088745	3898609.2182837217
2.4320452213287354	4322011.837252157
2.4347951412200928	4170124.846581921
2.4375438690185547	3813036.039471177
2.440291166305542	3726966.833879731
2.443037271499634	3775151.3146116226
2.445782423019409	3894036.1814481276
2.4485268592834473	4165654.3822914143
2.451270818710327	4284859.174306612
2.454014539718628	4228681.8368933685
2.4567582607269287	4228160.897712494
2.4595019817352295	4282772.893083972
2.4622461795806885	4856944.5287214145
2.4649908542633057	5589787.228327834
2.4677364826202393	5217004.150751463
2.4704833030700684	3830170.543789739
2.473231554031372	2468839.044731323
2.4759814739227295	1684046.8322224184
2.4787333011627197	1374138.7907748132
