#wavelength	surface flux
0.6450077295303345	277535.6428370327
0.6472567915916443	418110.26931183133
0.6494921445846558	503578.1293980235
0.6517150402069092	526436.0010003769
0.6539263725280762	545228.0748444296
0.6561272740364075	563597.013816669
0.6583186388015747	582473.750359605
0.6605015397071838	601859.1807245212
0.6626768708229065	620619.8655231461
0.6648455858230591	639106.6530556015
0.6670085787773132	645302.2555838436
0.6691668033599854	613653.0214811428
0.6713210344314575	600890.1480459827
0.6734722256660461	665833.6685367192
0.6756211519241333	735031.7535442157
0.6777685880661011	766861.8742041265
0.6799154281616211	788848.9537211919
0.6820623278617859	811370.5995841777
0.6842101216316223	836676.6050114942
0.6863595843315125	861296.4016070334
0.688511312007904	883366.7024217374
0.6906660795211792	902330.8121885903
0.6928245425224304	923615.8210089877
0.6949873566627502	952530.419743943
0.6971551775932312	982436.1416083125
0.6993286609649658	1008725.3407751824
0.7015084028244019	1033903.5339733958
0.7036949396133423	1060156.1448052663
0.7058889269828796	1087599.5198023962
0.7080909013748169	1114585.8523030458
0.710301399230957	1141611.2664997694
0.712520956993103	1168969.5150826434
0.7147500514984131	1193697.0948328099
0.7169892191886902	1216308.1712118555
0.7192389369010925	1242550.0585973512
0.7214996814727783	1270878.806404426
0.723771870136261	1296890.5213225414
0.7260559797286987	1322074.2070777712
0.7283523678779602	1346931.6315385012
0.7306615710258484	1372206.8590040377
0.7329838871955872	1399029.4887539013
0.7353196740150452	1424160.2290580773
0.7376693487167358	1446398.8544699962
0.7400332689285278	1465037.1214354606
0.7424117922782898	1476228.0677793336
0.7448052167892456	1479083.3538158722
0.7472138404846191	1470064.187968478
0.7496379613876343	1441038.4649155652
0.7520779371261597	1381350.1594569476
0.7545340061187744	1274847.7448629863
0.7570064663887024	1099712.8496114837
0.7594954967498779	837375.9926063719
0.7620013952255249	507554.54461686965
0.7645244002342224	210457.45092639074
0.7670646905899048	55768.314616260075
0.7696225643157959	62968.846566763066
0.7721980810165405	255454.66630098096
0.7747915983200073	629339.2906055886
0.7774031162261963	1021836.7470575634
0.7800329327583313	1334997.558192397
0.7826811671257019	1642448.524721288
0.7853479981422424	1921217.0327264385
0.7880334854125977	2107417.1896027247
0.7907378077507019	2133346.2846423294
0.7934610247612	1935568.5773515825
0.7962033748626709	1976868.3206206306
0.7989648580551147	2393454.7011321383
0.801745593547821	2674697.227241755
0.8045456409454346	2774977.0002387557
0.8073651194572449	2853557.6268953374
0.8102040886878967	2919124.782112277
0.8130625486373901	2991048.080344609
0.8159406185150146	3083372.2112398143
0.8188382983207703	3176766.410936288
0.8217556476593018	3261781.4477689713
0.8246926665306091	3349651.0739767575
0.8276493549346924	3437022.626669752
0.8306257724761963	3519407.2206369187
0.8336219191551208	3603203.882833174
0.8366377949714661	3685736.8159946846
0.8396733403205872	3777168.103817053
0.8427285552024841	3886714.568609253
0.8458034992218018	3994952.337246032
0.8488980531692505	4088726.227725492
0.8520121574401855	4180026.714127771
0.8551458716392517	4289405.337657872
0.8582990765571594	4389117.998572762
0.8614717125892639	4435423.252575708
0.8646637797355652	4493197.387945656
0.8678751587867737	4614711.194936315
0.8711057901382446	4743033.75084639
0.8743556141853333	4855425.093419463
0.87762451171875	4959194.467944354
0.8809124231338501	5060407.768961539
0.8842192888259888	5176941.782744397
0.8875449895858765	5280315.882090104
0.8908893465995789	5336907.230799044
0.894252359867096	5409062.5938967755
0.8976338505744934	5565185.395814552
0.9010337591171265	5757116.99026293
0.9044519662857056	5926455.622188735
0.9078882932662964	6072886.76095733
0.9113426208496094	6197866.051796759
0.914814829826355	6287947.682905432
0.9183048605918884	6383659.320974115
0.9218124747276306	6470895.590019946
0.925337553024292	6314508.045328746
0.9288799166679382	5946296.623186858
0.9324395060539246	5854160.787060413
0.9360161423683167	6137356.520518559
0.9396095871925354	6467852.839171028
0.943219780921936	6565647.7639192315
0.9468464851379395	6554248.88702293
0.9504896402359009	6714053.861543037
0.9541489481925964	6963035.527023942
0.9578243494033813	7051586.799928469
0.9615156054496765	6942103.437197109
0.9652225375175476	6940774.281911747
0.9689450263977051	7246943.344210695
0.9726828336715698	7769633.86141345
0.9764357805252075	8188011.933949696
0.9802037477493286	8435107.958675433
0.983986496925354	8670254.665469645
0.9877838492393494	8918165.960088605
0.9915955662727356	9180044.115002284
0.9954215884208679	9421619.429911744
0.9992615580558777	9620085.197852124
1.0031154155731201	9802535.104264813
1.0069829225540161	10028387.619665822
1.0108637809753418	10294360.220062446
1.0147579908370972	10563199.929544551
1.018665075302124	10797131.38685766
1.022585153579712	10958415.47124658
1.0265177488327026	11085675.642505812
1.0304628610610962	11279438.609259335
1.0344202518463135	11567493.725857168
1.0383895635604858	11843609.66510003
1.0423706769943237	12059625.729860876
1.0463634729385376	12252723.435084468
1.0503677129745483	12440318.238072868
1.0543830394744873	12654982.332626298
1.058409333229065	12882785.59734008
1.0624464750289917	13090954.430452436
1.0664942264556885	13285411.528798532
1.0705522298812866	13477907.017127551
1.0746204853057861	13685041.607363282
1.0786986351013184	13901217.458293144
1.0827864408493042	14102419.247282801
1.086883783340454	14235893.271033272
1.0909905433654785	14263519.05802316
1.0951062440872192	14139611.125835225
1.0992310047149658	13437122.68520179
1.10336434841156	12294798.290167728
1.1075061559677124	11867731.254417805
1.1116561889648438	11870125.786749592
1.115814208984375	11563478.502445072
1.1199802160263062	11414103.434051773
1.124153733253479	11789598.313475218
1.1283347606658936	12094006.287044488
1.1325229406356812	11610555.248162268
1.1367181539535522	11852616.957910907
1.1409201622009277	13215840.7451361
1.145128846168518	14035617.824397609
1.1493438482284546	13334030.185744224
1.1535650491714478	11708990.256458756
1.1577922105789185	11181265.77211805
1.1620250940322876	12090297.699415557
1.1662636995315552	13424017.06975537
1.170507550239563	14322663.322829487
1.174756646156311	15203527.190366153
1.1790107488632202	16497284.385955125
1.1832695007324219	17511392.110237908
1.1875330209732056	18086247.773162812
1.191800832748413	18606795.784720767
1.1960728168487549	19219369.437267713
1.2003488540649414	19655706.536929645
1.2046287059783936	19910659.023548115
1.2089121341705322	20167796.335718926
1.2131990194320679	20501577.629008025
1.2174891233444214	20899112.310791798
1.2217823266983032	21282406.46671982
1.2260783910751343	21614032.51352335
1.230377197265625	21902104.600766998
1.2346785068511963	22165977.86363065
1.238982081413269	22444554.122234333
1.2432878017425537	22706796.58888901
1.2475954294204712	22881898.924196452
1.2519049644470215	23010099.003791705
1.256216049194336	23287233.590583093
1.2605286836624146	23600865.515064143
1.2648425102233887	23787115.301609926
1.2691574096679688	23948718.88399839
1.2734732627868652	24136008.851053067
1.2777899503707886	24323980.220996752
1.2821072340011597	24467530.617420223
1.2864248752593994	24521237.13588312
1.2907428741455078	24486426.531579338
1.2950609922409058	24571456.645249214
1.2993791103363037	24687256.495957263
1.303696870803833	24644653.01032858
1.3080145120620728	24706364.137285076
1.3123314380645752	24984252.46510684
1.3166478872299194	25294843.463021737
1.3209635019302368	25052973.719382208
1.3252781629562378	23843590.362876326
1.3295916318893433	20967369.20090555
1.3339040279388428	15478258.294571145
1.3382149934768677	9144848.82602085
1.3425244092941284	6008414.653738218
1.3468321561813354	6185524.592716011
1.3511382341384888	5614709.373515451
1.3554422855377197	4286460.967765817
1.3597444295883179	4013165.8803948434
1.3640443086624146	4466655.246711679
1.3683418035507202	5548342.063778473
1.3726370334625244	8016322.526557975
1.3769296407699585	10281290.904323177
1.381219506263733	8312974.874496657
1.3855066299438477	4564450.181172005
1.3897908926010132	3336628.9919560077
1.3940720558166504	3579761.6311406796
1.3983501195907593	4201246.491069494
1.4026249647140503	6124067.885337467
1.4068963527679443	7715176.004642648
1.4111642837524414	6348737.201981523
1.4154287576675415	5135308.017626062
1.419689416885376	5298450.304360292
1.4239463806152344	5206692.689400657
1.4281994104385376	5981725.240240119
1.4324485063552856	6554060.638791401
1.436693549156189	6491228.895672903
1.440934419631958	7510073.190455467
1.4451709985733032	9910520.598821478
1.449403166770935	13012655.410297327
1.453631043434143	14990705.895937897
1.4578542709350586	15907395.762909949
1.4620729684829712	16941700.307460085
1.4662868976593018	17143445.52494741
1.4704961776733398	16491992.14434251
1.4747005701065063	16404586.11831663
1.4788999557495117	17205658.732969727
1.4830944538116455	19003774.502209004
1.4872838258743286	20862805.761215728
1.491468071937561	21390109.405595727
1.4956470727920532	21427518.9462362
1.4998208284378052	22559570.2791559
1.5039892196655273	24032021.002511058
1.5081522464752197	24361363.0098801
1.5123097896575928	24720136.274820365
1.5164618492126465	26100952.35394748
1.5206083059310913	28083575.378974628
1.5247491598129272	29466068.424950372
1.5288842916488647	29682320.047812216
1.5330137014389038	30121677.28453513
1.5371372699737549	30944014.06009218
1.541254997253418	31317264.997651163
1.545366883277893	31770118.24109874
1.5494728088378906	32503248.15191923
1.5535727739334106	32888937.089883957
1.5576666593551636	32782345.831695735
1.561754584312439	33034734.701417398
1.5658363103866577	33979722.62741663
1.5699119567871094	34624378.64162748
1.5739814043045044	34413975.9995073
1.5780447721481323	33945513.88661135
1.582101821899414	34419125.72449133
1.5861525535583496	35595931.26009944
1.5901970863342285	36145678.84615606
1.5942351818084717	36062644.857414916
1.5982669591903687	35900309.26031167
1.6022924184799194	35995399.901878804
1.606311559677124	36285732.56654454
1.6103241443634033	36398289.491159454
1.6143304109573364	36338797.3270954
1.6183301210403442	36262793.74685099
1.6223233938217163	36245656.18267171
1.6263102293014526	36238011.54461982
1.6302905082702637	36083566.8684952
1.634264349937439	36462703.072501846
1.638231635093689	37591821.8351174
1.6421923637390137	38261296.054518245
1.646146535873413	37970465.71083957
1.6500942707061768	37527677.98053431
1.6540353298187256	37747807.67388292
1.6579699516296387	38081565.763185695
1.661897897720337	37398139.6683601
1.6658192873001099	35544032.779677
1.6697341203689575	34916637.30851824
1.6736423969268799	36693623.06996097
1.677544116973877	38035856.87704092
1.6814392805099487	38098738.59282185
1.6853278875350952	37993959.8526625
1.6892099380493164	37472009.28254156
1.6930854320526123	36115601.09725821
1.696954369544983	34822703.237430625
1.7008168697357178	34811014.23312654
1.7046726942062378	35326925.39795727
1.708522081375122	35570304.337182246
1.712364912033081	35702725.48289049
1.7162011861801147	36082788.99003608
1.7200311422348022	36658512.65015789
1.723854422569275	36674190.293663904
1.7276713848114014	35981408.21847815
1.731481909751892	34649952.720814794
1.7352858781814575	33100282.007580075
1.7390835285186768	31983311.59765802
1.7428747415542603	30720419.134388793
1.7466596364974976	28838869.66498268
1.7504380941390991	26607198.110389292
1.7542102336883545	25276698.038008936
1.7579760551452637	27596363.760505535
1.7617355585098267	30667955.37625519
1.7654887437820435	29078610.89218173
1.7692357301712036	24108566.893948622
1.7729763984680176	18527916.169064518
1.776710867881775	13345641.44354247
1.7804391384124756	11295974.504025271
1.7841613292694092	11549434.694773419
1.7878772020339966	10656839.30554465
1.7915871143341064	10972731.324112438
1.7952908277511597	13164014.80707983
1.7989884614944458	13250547.055880243
1.8026801347732544	9637517.720618643
1.806365728378296	5701798.12394805
1.8100452423095703	5825644.494944851
1.8137187957763672	7339931.038901617
1.817386507987976	6521250.846305151
1.8210482597351074	7405309.874374622
1.8247040510177612	8196411.659883382
1.828354001045227	5492111.589635872
1.8319982290267944	4809755.340248042
1.8356364965438843	7409493.868755249
1.8392690420150757	9867906.202867161
1.8428958654403687	10166983.858180763
1.8465168476104736	9811207.658501342
1.8501322269439697	9701385.53561599
1.8537418842315674	7552791.437957769
1.8573459386825562	5546282.501705124
1.860944390296936	4996390.662991378
1.864537239074707	4200421.920191857
1.8681244850158691	4906375.909035941
1.871706247329712	7571922.898855164
1.8752825260162354	10302054.068872347
1.8788533210754395	13241364.763240628
1.8824186325073242	15252555.795785666
1.8859784603118896	14420385.140089067
1.8895330429077148	13724473.761126293
1.8930821418762207	15882734.737342056
1.8966259956359863	15608743.240989756
1.9001644849777222	9808478.60734542
1.9036977291107178	5561684.008969474
1.9072256088256836	6125000.439334511
1.9107483625411987	6087128.133164443
1.9142658710479736	3943494.066048277
1.9177782535552979	3662808.0374408313
1.9212853908538818	4948360.670178323
1.9247875213623047	5036125.5139219705
1.9282845258712769	5171212.825578011
1.9317764043807983	6532094.561376067
1.9352631568908691	7129689.109133907
1.9387450218200684	6646188.5008070115
1.942221760749817	6910334.852448733
1.9456936120986938	7649727.071639035
1.9491604566574097	8366560.946140911
1.952622413635254	8025278.628733169
1.956079363822937	6679571.587852414
1.959531545639038	6654568.005331629
1.962978720664978	7320581.825467217
1.966421127319336	8875770.228909465
1.9698586463928223	11653813.948678803
1.9732913970947266	12999455.348650789
1.9767193794250488	13693929.166967617
1.9801424741744995	15746532.05968485
1.9835609197616577	17835842.35641787
1.9869745969772339	17996527.646097545
1.990383505821228	15996180.775542933
1.9937876462936401	15192253.405797884
1.9971871376037598	15533992.727940908
2.000581979751587	16653012.627821956
2.003972291946411	19818647.32603144
2.007357597351074	22302731.473716777
2.0107386112213135	24394047.603332162
2.0141148567199707	25306568.515272647
2.017486572265625	23663068.3143407
2.0208535194396973	24113078.313972414
2.0242159366607666	27110529.854582764
2.027573823928833	29052747.42189581
2.0309269428253174	30255423.94448066
2.034275770187378	31778005.464422617
2.0376198291778564	32989433.03005585
2.040959596633911	34057384.45299092
2.044294595718384	35507613.20247184
2.0476250648498535	37045498.00889027
2.0509510040283203	37441993.542886764
2.054272413253784	36661214.72497091
2.057589530944824	36861593.498161644
2.0609018802642822	38113369.32114811
2.0642096996307373	39185316.17001058
2.0675129890441895	39918497.078660406
2.0708119869232178	40221574.02228433
2.074106216430664	40024828.10305098
2.0773961544036865	39878423.03472789
2.080681324005127	40210570.81951614
2.0839622020721436	40684451.48077517
2.087238311767578	41037481.10149419
2.090510129928589	41042314.83691885
2.0937774181365967	40780506.488884926
2.0970399379730225	40785255.57561437
2.1002981662750244	40887409.18238339
2.1035518646240234	40655975.279824145
2.1068007946014404	40316539.144589275
2.1100454330444336	40676852.9897879
2.1132853031158447	41379661.19337542
2.116520881652832	41371520.706599
2.1197516918182373	41196330.18809644
2.1229779720306396	41434174.77286033
2.12619948387146	41704178.84056968
2.1294167041778564	41780190.4389536
2.132629156112671	41834750.66960056
2.1358368396759033	41679928.741944194
2.139039993286133	41233426.90206131
2.1422386169433594	40862541.35155401
2.145432472229004	40628604.81895149
2.1486217975616455	40395893.42907199
2.151806354522705	40056544.71035057
2.1549863815307617	39984034.55605737
2.1581614017486572	40120601.41660566
2.16133189201355	39935990.74965666
2.1644976139068604	39707315.23142278
2.167658567428589	39606223.492069826
2.1708147525787354	39483575.222409345
2.173966407775879	39220896.01742664
2.1771130561828613	38945733.93424939
2.1802549362182617	38831912.67161548
2.183391809463501	38610551.66729136
2.1865241527557373	38138940.52549271
2.1896514892578125	37379034.79501545
2.1927738189697266	35638106.20543893
2.1958916187286377	32601317.605551176
2.1990041732788086	29642481.556793474
2.2021119594573975	28056297.936960854
2.2052149772644043	27532892.283733547
2.208312749862671	27846406.733221345
2.2114057540893555	29006293.439384855
2.214493751525879	30000908.010275118
2.217576742172241	29931139.679722678
2.2206547260284424	29538617.679630924
2.2237277030944824	29208222.554464668
2.2267956733703613	27918692.89800518
2.2298583984375	26016100.610810686
2.2329163551330566	24831042.69662301
2.235969066619873	24558160.216117375
2.2390167713165283	24163096.00588252
2.2420592308044434	22603161.75189234
2.2450966835021973	20764483.353414774
2.248128890991211	20801972.040224876
2.2511560916900635	22355973.72540513
2.254178285598755	23414474.1813295
2.257194995880127	24027043.475096595
2.260206699371338	24024875.45926303
2.2632133960723877	22361446.191119857
2.266214609146118	20136248.637469023
2.2692108154296875	19301353.830434732
2.2722020149230957	20275000.76000492
2.2751877307891846	21570797.76903644
2.278168201446533	21455183.452701684
2.2811436653137207	20284977.15620461
2.284113883972168	19427735.35096181
2.287078857421875	18843732.324606303
2.290038824081421	17808834.62897331
2.2929933071136475	16235503.67823326
2.295942783355713	14400739.738801574
2.298887014389038	12711959.18891498
2.301826238632202	11580367.327252274
2.304760217666626	11124989.838035919
2.3076889514923096	11256693.629477724
2.310612440109253	11889914.348066272
2.3135311603546143	11996138.459128015
2.3164443969726562	10416730.25989335
2.319352865219116	8494608.77462879
2.322256088256836	7824807.64919985
2.3251543045043945	7779470.051135644
2.328047275543213	7746433.1704090005
2.330935478210449	7962977.575587971
2.3338186740875244	8347784.82407621
2.3366971015930176	8712098.187131079
2.3395702838897705	9082791.904511282
2.3424389362335205	9371794.085381126
2.3453025817871094	9612989.250713026
2.348161458969116	9830340.167972185
2.351015567779541	10160786.202720728
2.353865146636963	10786009.120126162
2.3567099571228027	11301286.259267047
2.3595502376556396	11893646.306592029
2.3623859882354736	13035643.626933714
2.3652172088623047	13085507.277748937
2.368043899536133	10583802.166051267
2.370866537094116	8137418.345585035
2.3736846446990967	8296182.248015857
2.3764986991882324	8736696.332113756
2.3793084621429443	7947239.444406535
2.3821144104003906	7841937.726809093
2.384916305541992	9456401.189232834
2.387714147567749	11708498.063991994
2.3905084133148193	13001579.334842997
2.393299102783203	12959202.229216143
2.3960859775543213	11812100.749642765
2.398869514465332	10571164.818223782
2.4016497135162354	9892043.235631427
2.4044265747070312	9660704.960721547
2.407200336456299	10304336.442018861
2.409970998764038	11485820.62052589
2.4127390384674072	12194862.927749895
2.415503978729248	12613993.544779789
2.418266534805298	13547837.327809509
2.4210267066955566	14345718.235133698
2.4237842559814453	13838676.999234553
2.426539897918701	12760914.924167518
2.429293394088745	12567403.513144137
2.4320452213287354	13185407.284926541
2.4347951412200928	13725170.066951975
2.4375438690185547	13779379.633121105
2.440291166305542	13321753.653604146
2.443037271499634	12343204.323996978
2.445782423019409	11058111.83202529
2.4485268592834473	9843469.604990855
2.451270818710327	9452685.953844067
2.454014539718628	10956990.446160056
2.4567582607269287	12760066.613257315
2.4595019817352295	12436297.255618421
2.4622461795806885	12251106.031605428
2.4649908542633057	12325080.252672205
2.4677364826202393	10229665.709148778
2.4704833030700684	7502806.043590157
2.473231554031372	5578700.9224374015
2.4759814739227295	4341447.645550737
2.4787333011627197	3931888.6855990295
