#wavelength	surface flux
0.6450077295303345	29603.748042261865
0.6472567915916443	44673.892337037105
0.6494921445846558	53927.68149048616
0.6517150402069092	56520.58680501245
0.6539263725280762	58752.66729626118
0.6561272740364075	60999.73297253415
0.6583186388015747	63294.65303257125
0.6605015397071838	65648.04598070812
0.6626768708229065	68027.90137015823
0.6648455858230591	70395.48566165942
0.6670085787773132	71996.64270106523
0.6691668033599854	71368.38818500176
0.6713210344314575	71985.35386613596
0.6734722256660461	77341.57217568727
0.6756211519241333	82937.90825981555
0.6777685880661011	86324.74304996523
0.6799154281616211	89236.91291528243
0.6820623278617859	92177.0187021993
0.6842101216316223	95214.58894449656
0.6863595843315125	98290.17624457116
0.688511312007904	101347.97044367541
0.6906660795211792	104311.62998772126
0.6928245425224304	107380.86198192045
0.6949873566627502	110862.93148495362
0.6971551775932312	114500.8389368621
0.6993286609649658	118023.05267722589
0.7015084028244019	121534.38951903595
0.7036949396133423	125181.325812218
0.7058889269828796	128970.26859405261
0.7080909013748169	132782.4065712302
0.710301399230957	136657.10815874045
0.712520956993103	140614.65107322694
0.7147500514984131	144438.74416130752
0.7169892191886902	148168.43363975317
0.7192389369010925	152227.64075682923
0.7214996814727783	156499.08657402577
0.723771870136261	160656.8742813222
0.7260559797286987	164820.13028754023
0.7283523678779602	169034.8140021744
0.7306615710258484	173374.11758846306
0.7329838871955872	177926.33108184452
0.7353196740150452	182424.433802287
0.7376693487167358	186773.04040138554
0.7400332689285278	190922.39710282793
0.7424117922782898	194580.14315388747
0.7448052167892456	197679.41379928723
0.7472138404846191	199928.96076528355
0.7496379613876343	200667.91736612772
0.7520779371261597	198983.15710685338
0.7545340061187744	193326.2463248617
0.7570064663887024	181020.52320582702
0.7594954967498779	157335.88486440285
0.7620013952255249	116054.41761448934
0.7645244002342224	62427.966857690495
0.7670646905899048	23876.386555532525
0.7696225643157959	24953.222758550557
0.7721980810165405	71806.05309292943
0.7747915983200073	141987.93657509517
0.7774031162261963	197676.755915677
0.7800329327583313	233066.87064309468
0.7826811671257019	264151.10706735024
0.7853479981422424	292023.9330574239
0.7880334854125977	311940.7794936086
0.7907378077507019	316651.78133728943
0.7934610247612	297823.79746004625
0.7962033748626709	303537.4012479851
0.7989648580551147	350327.9959957379
0.801745593547821	383830.52598842484
0.8045456409454346	398017.33034723665
0.8073651194572449	410407.0534793046
0.8102040886878967	421893.34920221986
0.8130625486373901	434050.462603063
0.8159406185150146	448193.18162168714
0.8188382983207703	462705.10842129146
0.8217556476593018	476546.7786170349
0.8246926665306091	490754.9146406644
0.8276493549346924	505238.33684413997
0.8306257724761963	519540.6048645232
0.8336219191551208	534201.6496550116
0.8366377949714661	549038.0052355919
0.8396733403205872	564902.7891893042
0.8427285552024841	582556.9522686467
0.8458034992218018	600350.2927451454
0.8488980531692505	617194.27998086
0.8520121574401855	634078.5727548015
0.8551458716392517	652700.5460543411
0.8582990765571594	671291.9481162534
0.8614717125892639	687016.5748293715
0.8646637797355652	703517.9755556209
0.8678751587867737	723860.7688650924
0.8711057901382446	745054.6499878936
0.8743556141853333	765460.0891480915
0.87762451171875	785317.7932904363
0.8809124231338501	805409.314563596
0.8842192888259888	826823.6676690468
0.8875449895858765	847538.1116368076
0.8908893465995789	864891.8416585664
0.894252359867096	883277.6085699658
0.8976338505744934	909358.6157531303
0.9010337591171265	939863.2731082794
0.9044519662857056	968735.6330573581
0.9078882932662964	995609.497045015
0.9113426208496094	1021093.5313207759
0.914814829826355	1043948.6382526993
0.9183048605918884	1067628.7686152905
0.9218124747276306	1090779.7581247438
0.925337553024292	1090281.1956106129
0.9288799166679382	1067477.5534542152
0.9324395060539246	1071891.3590326014
0.9360161423683167	1116289.8021762087
0.9396095871925354	1166250.3500350083
0.943219780921936	1191027.782051708
0.9468464851379395	1204778.2035201583
0.9504896402359009	1237858.0776217766
0.9541489481925964	1280971.7854986081
0.9578243494033813	1308048.4506823812
0.9615156054496765	1315177.824820987
0.9652225375175476	1334283.4577416305
0.9689450263977051	1386076.3268536432
0.9726828336715698	1459745.886426987
0.9764357805252075	1522009.0281044631
0.9802037477493286	1567252.322186258
0.983986496925354	1612224.895136859
0.9877838492393494	1659567.4272295204
0.9915955662727356	1709141.5091213952
0.9954215884208679	1756439.454314222
0.9992615580558777	1800083.7312538254
1.0031154155731201	1842855.437204163
1.0069829225540161	1888948.6339756178
1.0108637809753418	1938454.772417627
1.0147579908370972	1988611.2498514445
1.018665075302124	2036090.1579840616
1.022585153579712	2077868.6086707972
1.0265177488327026	2116584.897003454
1.0304628610610962	2161274.7694246904
1.0344202518463135	2216543.1461544954
1.0383895635604858	2272089.002013419
1.0423706769943237	2322090.671229463
1.0463634729385376	2369953.0221854653
1.0503677129745483	2417598.3513151156
1.0543830394744873	2468658.2559743235
1.058409333229065	2521744.8161162874
1.0624464750289917	2573484.39451343
1.0664942264556885	2624156.0675006285
1.0705522298812866	2674959.306389457
1.0746204853057861	2727870.9199008537
1.0786986351013184	2782295.815343099
1.0827864408493042	2835799.777559985
1.086883783340454	2883515.9176263795
1.0909905433654785	2921801.9014168684
1.0951062440872192	2943361.3285890226
1.0992310047149658	2897308.5319484454
1.10336434841156	2797071.824500143
1.1075061559677124	2776545.720953751
1.1116561889648438	2798450.6294390867
1.115814208984375	2774524.847462632
1.1199802160263062	2774439.868551703
1.124153733253479	2853479.881512543
1.1283347606658936	2926479.229573647
1.1325229406356812	2885547.8027178347
1.1367181539535522	2949161.4905855153
1.1409201622009277	3178871.9268656806
1.145128846168518	3324662.6390908095
1.1493438482284546	3241207.7016976574
1.1535650491714478	3028776.9194546626
1.1577922105789185	2991612.9861145513
1.1620250940322876	3171269.0011504665
1.1662636995315552	3410357.7908207434
1.170507550239563	3584523.8765684785
1.174756646156311	3745334.6970279203
1.1790107488632202	3949474.5648652324
1.1832695007324219	4110914.4960580827
1.1875330209732056	4219090.1710777
1.191800832748413	4320809.351604911
1.1960728168487549	4431818.598707446
1.2003488540649414	4523591.476576438
1.2046287059783936	4596131.587030421
1.2089121341705322	4670290.791499399
1.2131990194320679	4751906.771792711
1.2174891233444214	4838747.59011504
1.2217823266983032	4924943.911198714
1.2260783910751343	5007001.365261336
1.230377197265625	5084868.310450961
1.2346785068511963	5160449.734254475
1.238982081413269	5238285.444820278
1.2432878017425537	5314911.919867645
1.2475954294204712	5384726.797049232
1.2519049644470215	5451902.287948128
1.256216049194336	5529567.727934584
1.2605286836624146	5607896.173782826
1.2648425102233887	5676342.856602134
1.2691574096679688	5743558.508209449
1.2734732627868652	5813883.971054047
1.2777899503707886	5884634.860950018
1.2821072340011597	5950114.493212392
1.2864248752593994	6004413.255447237
1.2907428741455078	6048129.225087836
1.2950609922409058	6106281.359957142
1.2993791103363037	6167793.780985003
1.303696870803833	6210428.85268517
1.3080145120620728	6264489.324055827
1.3123314380645752	6345132.240318769
1.3166478872299194	6435428.0341301225
1.3209635019302368	6458574.977553824
1.3252781629562378	6348164.275440706
1.3295916318893433	5969758.355164492
1.3339040279388428	5069109.963267559
1.3382149934768677	3755439.3669192255
1.3425244092941284	3003102.2129460587
1.3468321561813354	3082462.2096495316
1.3511382341384888	2824762.59552022
1.3554422855377197	2296664.526662996
1.3597444295883179	2181001.4525397127
1.3640443086624146	2366067.868485577
1.3683418035507202	2798409.394016266
1.3726370334625244	3606615.857734835
1.3769296407699585	4235263.5393477585
1.381219506263733	3539451.4326977124
1.3855066299438477	2372762.0494328365
1.3897908926010132	2031691.5078867604
1.3940720558166504	2110160.8282192145
1.3983501195907593	2342230.739523751
1.4026249647140503	3082370.8925465085
1.4068963527679443	3676996.79519258
1.4111642837524414	3203254.445768783
1.4154287576675415	2842563.8971218774
1.419689416885376	3000906.7887256504
1.4239463806152344	2980486.3073131978
1.4281994104385376	3234537.113536015
1.4324485063552856	3412321.737126169
1.436693549156189	3391594.7606515056
1.440934419631958	3828372.994552299
1.4451709985733032	4697661.14176536
1.449403166770935	5640505.197902336
1.453631043434143	6190368.159558277
1.4578542709350586	6433393.176398062
1.4620729684829712	6682022.958716471
1.4662868976593018	6747920.8781768
1.4704961776733398	6625097.432643442
1.4747005701065063	6622209.029896708
1.4788999557495117	6821316.48026663
1.4830944538116455	7246508.392487511
1.4872838258743286	7696291.511830201
1.491468071937561	7857748.8581352
1.4956470727920532	7872670.966711397
1.4998208284378052	8080316.057082614
1.5039892196655273	8376776.215169118
1.5081522464752197	8488122.678025227
1.5123097896575928	8608167.50386991
1.5164618492126465	8884787.675046328
1.5206083059310913	9234899.446640735
1.5247491598129272	9490981.717868064
1.5288842916488647	9578524.815617267
1.5330137014389038	9691089.470100658
1.5371372699737549	9852980.035394806
1.541254997253418	9947199.913466258
1.545366883277893	10047982.11545612
1.5494728088378906	10190949.6348056
1.5535727739334106	10288655.96691103
1.5576666593551636	10314555.490708923
1.561754584312439	10389804.506142316
1.5658363103866577	10565791.620780203
1.5699119567871094	10698572.752713224
1.5739814043045044	10693470.856728328
1.5780447721481323	10631954.65192846
1.582101821899414	10737846.26083494
1.5861525535583496	10985858.435795156
1.5901970863342285	11124782.436108632
1.5942351818084717	11145853.007770063
1.5982669591903687	11146401.29536086
1.6022924184799194	11186144.208909797
1.606311559677124	11267904.256803708
1.6103241443634033	11319870.963265335
1.6143304109573364	11331267.564484144
1.6183301210403442	11331406.218942463
1.6223233938217163	11327662.928679373
1.6263102293014526	11313974.664965292
1.6302905082702637	11284684.225740258
1.634264349937439	11403755.296616687
1.638231635093689	11704187.177894564
1.6421923637390137	11889313.25578297
1.646146535873413	11834386.855525455
1.6500942707061768	11757202.520237297
1.6540353298187256	11863564.968444888
1.6579699516296387	12001806.51626881
1.661897897720337	11875339.908094643
1.6658192873001099	11434782.60860491
1.6697341203689575	11312457.343838615
1.6736423969268799	11772336.46263038
1.677544116973877	12094809.121772507
1.6814392805099487	12121837.71464267
1.6853278875350952	12126110.690343348
1.6892099380493164	12061721.502126444
1.6930854320526123	11827952.33505467
1.696954369544983	11568490.834339386
1.7008168697357178	11562682.504312709
1.7046726942062378	11719222.630489277
1.708522081375122	11884449.9467241
1.712364912033081	12040512.943595745
1.7162011861801147	12212269.188074825
1.7200311422348022	12394484.739929313
1.723854422569275	12457999.580601988
1.7276713848114014	12395484.631690238
1.731481909751892	12235965.78161714
1.7352858781814575	12042307.240738671
1.7390835285186768	11920691.997725952
1.7428747415542603	11769903.153146878
1.7466596364974976	11486502.39041504
1.7504380941390991	11083698.13239071
1.7542102336883545	10820980.802750923
1.7579760551452637	11281447.933831092
1.7617355585098267	11875685.226386253
1.7654887437820435	11580079.972110724
1.7692357301712036	10598153.148219388
1.7729763984680176	9197710.02188347
1.776710867881775	7612708.589777593
1.7804391384124756	6955295.103824136
1.7841613292694092	6990671.6864461955
1.7878772020339966	6632165.914318811
1.7915871143341064	6758948.735668395
1.7952908277511597	7319374.736319754
1.7989884614944458	6908273.367318052
1.8026801347732544	5350247.147311422
1.806365728378296	3746181.088797961
1.8100452423095703	3749523.9789141496
1.8137187957763672	4475597.329705523
1.817386507987976	4186140.679843096
1.8210482597351074	4674163.506878272
1.8247040510177612	5092371.119786759
1.828354001045227	3808788.412439419
1.8319982290267944	3607095.7213269626
1.8356364965438843	4925172.39591295
1.8392690420150757	6083139.336538715
1.8428958654403687	6466258.546262651
1.8465168476104736	6459395.209653164
1.8501322269439697	6160409.307189112
1.8537418842315674	4882781.913863848
1.8573459386825562	4076401.512618163
1.860944390296936	3971995.5675083203
1.864537239074707	3468453.337665219
1.8681244850158691	3873009.559502228
1.871706247329712	5402696.887111733
1.8752825260162354	6793804.956720309
1.8788533210754395	8012401.583673811
1.8824186325073242	8836554.86814856
1.8859784603118896	8510341.287810415
1.8895330429077148	8066236.277494786
1.8930821418762207	8714978.202655036
1.8966259956359863	8493791.186139505
1.9001644849777222	6016245.989077471
1.9036977291107178	4037186.9795106924
1.9072256088256836	4285088.888822693
1.9107483625411987	4304019.922535633
1.9142658710479736	3138904.5503876023
1.9177782535552979	3082473.6663330453
1.9212853908538818	3984577.463278446
1.9247875213623047	4081427.688900994
1.9282845258712769	4204965.634996836
1.9317764043807983	5101045.089649981
1.9352631568908691	5499292.102082985
1.9387450218200684	5234109.472895843
1.942221760749817	5414838.70627782
1.9456936120986938	5769682.469266487
1.9491604566574097	5910721.597211003
1.952622413635254	5615762.302876704
1.956079363822937	5105340.556331341
1.959531545639038	5350085.5728461705
1.962978720664978	5822215.76874592
1.966421127319336	6631237.032654617
1.9698586463928223	7997886.53306995
1.9732913970947266	8683733.558833769
1.9767193794250488	8980876.921440406
1.9801424741744995	9787750.413734358
1.9835609197616577	10556113.349484267
1.9869745969772339	10559815.772647958
1.990383505821228	9861624.42819336
1.9937876462936401	9671481.821682345
1.9971871376037598	9838018.034575598
2.000581979751587	10165315.177184138
2.003972291946411	11220465.422748065
2.007357597351074	12075748.611591589
2.0107386112213135	12660225.505477784
2.0141148567199707	12893504.566396696
2.017486572265625	12485654.980691135
2.0208535194396973	12650780.246774975
2.0242159366607666	13440040.069115838
2.027573823928833	13907559.32525983
2.0309269428253174	14166227.037635995
2.034275770187378	14495065.508370833
2.0376198291778564	14754388.83243231
2.040959596633911	14962403.314453574
2.044294595718384	15239503.085314093
2.0476250648498535	15522165.453036264
2.0509510040283203	15590165.07487208
2.054272413253784	15481170.695978235
2.057589530944824	15549402.355114091
2.0609018802642822	15772581.602838486
2.0642096996307373	15952053.470172644
2.0675129890441895	16075994.79358185
2.0708119869232178	16143130.409885889
2.074106216430664	16138834.892856067
2.0773961544036865	16132560.627800139
2.080681324005127	16194594.430518817
2.0839622020721436	16273047.85856955
2.087238311767578	16330789.627851417
2.090510129928589	16345635.467667416
2.0937774181365967	16322235.171273304
2.0970399379730225	16333048.434549784
2.1002981662750244	16355719.971745884
2.1035518646240234	16325179.136407353
2.1068007946014404	16272315.56665062
2.1100454330444336	16322755.419579433
2.1132853031158447	16425091.640836857
2.116520881652832	16417150.993400278
2.1197516918182373	16385549.300521564
2.1229779720306396	16425358.242885832
2.12619948387146	16481238.584757809
2.1294167041778564	16509626.885227738
2.132629156112671	16527897.55824499
2.1358368396759033	16496225.808120575
2.139039993286133	16406843.407186512
2.1422386169433594	16319452.165855832
2.145432472229004	16250422.789314592
2.1486217975616455	16198480.837542564
2.151806354522705	16127261.23229047
2.1549863815307617	16124369.319242572
2.1581614017486572	16158139.501184741
2.16133189201355	16091751.01925182
2.1644976139068604	16033329.713548984
2.167658567428589	16037671.881303594
2.1708147525787354	16063344.095946658
2.173966407775879	16065119.187215287
2.1771130561828613	16031259.531887671
2.1802549362182617	15981765.71662093
2.183391809463501	15884568.978635628
2.1865241527557373	15734974.379829515
2.1896514892578125	15503725.449210184
2.1927738189697266	14974036.661147285
2.1958916187286377	14043893.010963328
2.1990041732788086	13097323.19350942
2.2021119594573975	12560958.309608592
2.2052149772644043	12410333.509739557
2.208312749862671	12565664.325261706
2.2114057540893555	12979993.234866582
2.214493751525879	13317061.45110067
2.217576742172241	13298381.371503018
2.2206547260284424	13162081.76349459
2.2237277030944824	13040646.221332453
2.2267956733703613	12609008.13350621
2.2298583984375	11958028.336626487
2.2329163551330566	11528575.311875042
2.235969066619873	11405552.720561972
2.2390167713165283	11251320.63158688
2.2420592308044434	10725102.477202
2.2450966835021973	10131236.090231245
2.248128890991211	10214508.98629667
2.2511560916900635	10800770.205090128
2.254178285598755	11151190.780265067
2.257194995880127	11344131.397845069
2.260206699371338	11347276.115660077
2.2632133960723877	10804991.902031219
2.266214609146118	10093736.800031513
2.2692108154296875	9852025.889134627
2.2722020149230957	10229507.705851043
2.2751877307891846	10700963.020282242
2.278168201446533	10682374.438177448
2.2811436653137207	10322193.226250108
2.284113883972168	10028282.51185567
2.287078857421875	9765384.612702135
2.290038824081421	9441182.054504104
2.2929933071136475	9162476.68048383
2.295942783355713	8901359.690033836
2.298887014389038	8605177.16511594
2.301826238632202	8407518.595976882
2.304760217666626	8467098.874016631
2.3076889514923096	8790291.9200735
2.310612440109253	9209394.501867771
2.3135311603546143	9101540.617984608
2.3164443969726562	7972774.828517646
2.319352865219116	6745433.064029377
2.322256088256836	6369171.194963358
2.3251543045043945	6371373.028915866
2.328047275543213	6331298.845446484
2.330935478210449	6427536.9014465455
2.3338186740875244	6599515.784466787
2.3366971015930176	6721412.940197903
2.3395702838897705	6823990.007524626
2.3424389362335205	6834335.679515902
2.3453025817871094	6758748.144910602
2.348161458969116	6761182.095247423
2.351015567779541	7057759.971870756
2.353865146636963	7640297.046997784
2.3567099571228027	8114823.782814597
2.3595502376556396	8471667.832807863
2.3623859882354736	8929562.307013769
2.3652172088623047	8812389.264402803
2.368043899536133	7457327.92328203
2.370866537094116	5985579.654702372
2.3736846446990967	5856278.217740942
2.3764986991882324	6247256.04459138
2.3793084621429443	6184642.211717765
2.3821144104003906	6307742.381042262
2.384916305541992	7105784.479082764
2.387714147567749	8062510.545352325
2.3905084133148193	8456441.257857185
2.393299102783203	8376322.513942434
2.3960859775543213	8104946.6559872655
2.398869514465332	7857614.822428331
2.4016497135162354	7658190.164994134
2.4044265747070312	7528410.4405279085
2.407200336456299	7875796.938527581
2.409970998764038	8569436.45947043
2.4127390384674072	8998442.000938319
2.415503978729248	9197133.107165929
2.418266534805298	9619340.89932202
2.4210267066955566	9980690.78781722
2.4237842559814453	9690009.882402314
2.426539897918701	9161762.901151892
2.429293394088745	9200380.489754755
2.4320452213287354	9669819.43138842
2.4347951412200928	9957724.691868694
2.4375438690185547	9938806.813951325
2.440291166305542	9759539.413935097
2.443037271499634	9355868.018592495
2.445782423019409	8689107.843365768
2.4485268592834473	7968754.304117396
2.451270818710327	7705440.294347299
2.454014539718628	8391580.877489101
2.4567582607269287	9155431.539405793
2.4595019817352295	8974251.570736153
2.4622461795806885	9030285.035255685
2.4649908542633057	9190049.434236266
2.4677364826202393	8085386.632463814
2.4704833030700684	6448059.836480273
2.473231554031372	5094902.0326871965
2.4759814739227295	4110393.636403746
2.4787333011627197	3762192.6213546763
2.481487512588501	4290587.648068247
