#wavelength	surface flux
0.6450077295303345	3264.87917803446
0.6472567915916443	5089.774992588244
0.6494921445846558	6535.679525446405
0.6517150402069092	7383.494692167491
0.6539263725280762	8248.379074429049
0.6561272740364075	9169.230587358099
0.6583186388015747	10153.54626319528
0.6605015397071838	11208.625156611704
0.6626768708229065	12339.128848108097
0.6648455858230591	13538.938674665902
0.6670085787773132	14598.647515572125
0.6691668033599854	15068.354885167399
0.6713210344314575	15872.494957927394
0.6734722256660461	18099.220071488937
0.6756211519241333	20520.9373349212
0.6777685880661011	22347.748913116295
0.6799154281616211	24064.209662070003
0.6820623278617859	25806.07848706085
0.6842101216316223	27574.86727935321
0.6863595843315125	29358.590983702885
0.688511312007904	31118.152986697634
0.6906660795211792	32730.396880121658
0.6928245425224304	34210.34351439864
0.6949873566627502	35902.29959419879
0.6971551775932312	37746.61298356124
0.6993286609649658	39378.642912166666
0.7015084028244019	40845.651981008356
0.7036949396133423	42178.2259758955
0.7058889269828796	43272.09319486877
0.7080909013748169	44130.86616324508
0.710301399230957	44805.012538175746
0.712520956993103	45213.90449716855
0.7147500514984131	45139.61686000637
0.7169892191886902	44559.23370898539
0.7192389369010925	43709.4459092231
0.7214996814727783	42586.263801764835
0.723771870136261	40939.075223977336
0.7260559797286987	38911.631794608096
0.7283523678779602	36729.97962975822
0.7306615710258484	34854.24883872184
0.7329838871955872	33438.55607490644
0.7353196740150452	31466.445189934457
0.7376693487167358	28742.752598587118
0.7400332689285278	25871.315930795732
0.7424117922782898	22992.941192994316
0.7448052167892456	20197.313542711316
0.7472138404846191	17459.35059558916
0.7496379613876343	14744.02075792551
0.7520779371261597	12128.569266187862
0.7545340061187744	9657.616962081249
0.7570064663887024	7361.510061226989
0.7594954967498779	5260.118708828441
0.7620013952255249	3345.471001789638
0.7645244002342224	1723.9768362975149
0.7670646905899048	770.1490165167277
0.7696225643157959	816.4591171145329
0.7721980810165405	2087.9220655148497
0.7747915983200073	4476.1907314435075
0.7774031162261963	7329.813448675008
0.7800329327583313	10686.217056128682
0.7826811671257019	15572.561554919508
0.7853479981422424	21888.712647044576
0.7880334854125977	28756.864112372685
0.7907378077507019	33789.742911118374
0.7934610247612	35291.03220651023
0.7962033748626709	44047.56107296394
0.7989648580551147	64074.79781722415
0.801745593547821	83712.55324443041
0.8045456409454346	100829.52712574569
0.8073651194572449	118512.56430623805
0.8102040886878967	136565.51789737894
0.8130625486373901	157520.10602297695
0.8159406185150146	184045.34235158595
0.8188382983207703	215071.7288779326
0.8217556476593018	249263.82321132356
0.8246926665306091	285434.2434335105
0.8276493549346924	322547.8108557254
0.8306257724761963	363812.5639691332
0.8336219191551208	412297.5466863963
0.8366377949714661	464033.41651104635
0.8396733403205872	518717.4027388923
0.8427285552024841	581054.7900350563
0.8458034992218018	645190.0885090508
0.8488980531692505	677364.5753891391
0.8520121574401855	699297.3074921451
0.8551458716392517	813732.3468214626
0.8582990765571594	982765.7985499019
0.8614717125892639	1114238.4586231841
0.8646637797355652	1232054.285445024
0.8678751587867737	1362617.394726314
0.8711057901382446	1505879.9537873918
0.8743556141853333	1655324.5906948105
0.87762451171875	1803376.354138578
0.8809124231338501	1939647.5757779176
0.8842192888259888	2066885.770211433
0.8875449895858765	2171307.191717169
0.8908893465995789	2134921.3683725144
0.894252359867096	2042280.711641346
0.8976338505744934	2331105.591566036
0.9010337591171265	2947547.774996236
0.9044519662857056	3462905.3806491457
0.9078882932662964	3806794.652250943
0.9113426208496094	4048707.310906645
0.914814829826355	4218648.614748981
0.9183048605918884	4417840.802868926
0.9218124747276306	4492683.593435126
0.925337553024292	3870470.7940691183
0.9288799166679382	2903140.8514376893
0.9324395060539246	2602397.10427128
0.9360161423683167	2999230.455543126
0.9396095871925354	3478883.9342178386
0.943219780921936	3454545.1845695223
0.9468464851379395	2958816.752714416
0.9504896402359009	3144760.7819908625
0.9541489481925964	4246730.541177288
0.9578243494033813	4719092.425846833
0.9615156054496765	4056855.507913296
0.9652225375175476	3566168.6646185694
0.9689450263977051	4568025.403633357
0.9726828336715698	6419458.210440663
0.9764357805252075	7439848.578142696
0.9802037477493286	7975784.09943997
0.983986496925354	9023081.598238457
0.9877838492393494	10203401.173097827
0.9915955662727356	11169643.399111386
0.9954215884208679	11970636.186991325
0.9992615580558777	12459004.131781653
1.0031154155731201	12876915.700793061
1.0069829225540161	13780399.86292458
1.0108637809753418	15091354.711384542
1.0147579908370972	16369449.493547408
1.018665075302124	17315803.09455092
1.022585153579712	17871084.080756195
1.0265177488327026	18385093.55380549
1.0304628610610962	19186758.077032834
1.0344202518463135	20151791.371455155
1.0383895635604858	20985710.55192985
1.0423706769943237	21599673.134183187
1.0463634729385376	22004414.660564605
1.0503677129745483	22392049.264287412
1.0543830394744873	23041938.988983642
1.058409333229065	23812219.552327055
1.0624464750289917	24372154.72846009
1.0664942264556885	24481885.231012784
1.0705522298812866	24328023.25003043
1.0746204853057861	24353271.61058137
1.0786986351013184	24418925.920773298
1.0827864408493042	24397530.25006674
1.086883783340454	23511774.741321187
1.0909905433654785	20802968.211596802
1.0951062440872192	17255333.494715974
1.0992310047149658	12717692.493556177
1.10336434841156	7534119.821042972
1.1075061559677124	4741196.463192072
1.1116561889648438	3688670.2294197893
1.115814208984375	2763106.881749694
1.1199802160263062	2680633.0170949255
1.124153733253479	3028468.9384390363
1.1283347606658936	2878406.155482959
1.1325229406356812	2434893.400286317
1.1367181539535522	3450084.1436847984
1.1409201622009277	5502803.923284294
1.145128846168518	6250202.7826029835
1.1493438482284546	5162599.344660015
1.1535650491714478	3326099.542904381
1.1577922105789185	2529849.2265047934
1.1620250940322876	2979488.1902739992
1.1662636995315552	4241085.068260705
1.170507550239563	6021184.8594745025
1.174756646156311	8375034.296471324
1.1790107488632202	11446513.950631067
1.1832695007324219	13665129.445664056
1.1875330209732056	14438144.085327424
1.191800832748413	17025381.574016593
1.1960728168487549	21595772.65793173
1.2003488540649414	24633442.898848977
1.2046287059783936	26320183.297336653
1.2089121341705322	27421180.793459777
1.2131990194320679	28482935.87813874
1.2174891233444214	30473567.194102477
1.2217823266983032	32506364.776320957
1.2260783910751343	34092903.578907594
1.230377197265625	35619085.2706828
1.2346785068511963	36949387.507687494
1.238982081413269	38037732.77937184
1.2432878017425537	39125440.25786419
1.2475954294204712	40125901.56562897
1.2519049644470215	40957264.60838935
1.256216049194336	42695544.80698328
1.2605286836624146	44387654.14571493
1.2648425102233887	44799879.1305252
1.2691574096679688	45626205.20931138
1.2734732627868652	47153423.34973338
1.2777899503707886	47080480.075005114
1.2821072340011597	45187538.566378966
1.2864248752593994	43815457.18150114
1.2907428741455078	42853824.3823773
1.2950609922409058	41200040.49654656
1.2993791103363037	37289122.54235458
1.303696870803833	34261052.57783015
1.3080145120620728	34098740.03580813
1.3123314380645752	34248247.81868987
1.3166478872299194	34859933.43353263
1.3209635019302368	31896080.472766913
1.3252781629562378	24763850.163563695
1.3295916318893433	16186114.899867376
1.3339040279388428	7188146.26438099
1.3382149934768677	1877703.469584942
1.3425244092941284	564243.7601733231
1.3468321561813354	336912.8075028538
1.3511382341384888	242994.4392427349
1.3554422855377197	162782.53607005448
1.3597444295883179	185919.44266113575
1.3640443086624146	285148.9104512003
1.3683418035507202	298079.82103621674
1.3726370334625244	265024.89039762825
1.3769296407699585	307793.5390107958
1.381219506263733	265565.3645833764
1.3855066299438477	145761.4074261721
1.3897908926010132	146741.31587642018
1.3940720558166504	219417.88512885294
1.3983501195907593	220300.9269390023
1.4026249647140503	250707.80753540128
1.4068963527679443	305004.4762755947
1.4111642837524414	243113.53398966015
1.4154287576675415	186444.0121607011
1.419689416885376	181504.07593870157
1.4239463806152344	175864.2899911632
1.4281994104385376	158180.85011467588
1.4324485063552856	167891.9661676707
1.436693549156189	318211.1288187516
1.440934419631958	658834.0080731476
1.4451709985733032	1281464.2882803555
1.449403166770935	2063606.7750961103
1.453631043434143	2377572.654891643
1.4578542709350586	2536967.968800001
1.4620729684829712	3165303.817918059
1.4662868976593018	3475518.7380061136
1.4704961776733398	2408723.6029348588
1.4747005701065063	1197190.5601851437
1.4788999557495117	1583688.1589692312
1.4830944538116455	2918881.0827157875
1.4872838258743286	3318686.760400303
1.491468071937561	2688667.531402388
1.4956470727920532	3076906.8646026654
1.4998208284378052	5006044.0545043945
1.5039892196655273	6034247.067060959
1.5081522464752197	5217224.695094438
1.5123097896575928	5160536.525411205
1.5164618492126465	7279211.952696734
1.5206083059310913	10259525.027227508
1.5247491598129272	12225310.28641442
1.5288842916488647	13018868.493357548
1.5330137014389038	13909268.59945801
1.5371372699737549	14862504.887320977
1.541254997253418	15143281.277696965
1.545366883277893	15774199.888211949
1.5494728088378906	17125113.817796756
1.5535727739334106	18539603.917890586
1.5576666593551636	20009933.74647188
1.561754584312439	21692765.026573196
1.5658363103866577	23258185.440991852
1.5699119567871094	23881968.054706883
1.5739814043045044	23516896.234200656
1.5780447721481323	23333965.109598115
1.582101821899414	23935794.142251205
1.5861525535583496	24437673.77835384
1.5901970863342285	23934318.69051295
1.5942351818084717	22609201.404417068
1.5982669591903687	21512244.449841313
1.6022924184799194	20436000.25271845
1.606311559677124	19108750.584450655
1.6103241443634033	18404630.151143197
1.6143304109573364	17169769.72806771
1.6183301210403442	14904660.702677075
1.6223233938217163	13056071.716582
1.6263102293014526	11828594.570433928
1.6302905082702637	11747626.068712624
1.634264349937439	13238791.494472759
1.638231635093689	14904389.22505554
1.6421923637390137	14784747.19429835
1.646146535873413	12021550.976937365
1.6500942707061768	9927493.644015409
1.6540353298187256	10763729.94342713
1.6579699516296387	11619681.060305897
1.661897897720337	10682490.556061449
1.6658192873001099	7536124.07180613
1.6697341203689575	5079076.557981981
1.6736423969268799	5811289.897303089
1.677544116973877	6581935.046062237
1.6814392805099487	6295924.531375594
1.6853278875350952	5699168.316199981
1.6892099380493164	4936421.485669068
1.6930854320526123	4404491.419741418
1.696954369544983	3783174.2226386783
1.7008168697357178	3270269.624430114
1.7046726942062378	3205078.68613452
1.708522081375122	3788297.1976055764
1.712364912033081	4415836.196313113
1.7162011861801147	4628840.722106691
1.7200311422348022	5032190.389290786
1.723854422569275	5046191.614869384
1.7276713848114014	4380975.739949607
1.731481909751892	3984525.882499698
1.7352858781814575	4022615.061172398
1.7390835285186768	4197896.461286587
1.7428747415542603	4211405.751422639
1.7466596364974976	3590060.026791628
1.7504380941390991	2780271.8882523356
1.7542102336883545	2743694.2218977637
1.7579760551452637	3270491.927396473
1.7617355585098267	3469653.723682615
1.7654887437820435	3058587.8952646363
1.7692357301712036	2289964.9592412254
1.7729763984680176	1563752.4467237669
1.776710867881775	1072849.8964510271
1.7804391384124756	922650.5757796739
1.7841613292694092	940715.5576366206
1.7878772020339966	926335.4111185916
1.7915871143341064	1149596.80847151
1.7952908277511597	1324282.0163350925
1.7989884614944458	1113149.401556775
1.8026801347732544	748865.8787723496
1.806365728378296	553909.9898728161
1.8100452423095703	494602.29604205705
1.8137187957763672	377198.77734637755
1.817386507987976	254126.57051993755
1.8210482597351074	373454.7858507144
1.8247040510177612	646075.999514605
1.828354001045227	646301.9712705705
1.8319982290267944	415909.46198400285
1.8356364965438843	382248.5911938912
1.8392690420150757	662076.4648480554
1.8428958654403687	963838.5218335696
1.8465168476104736	966296.674978632
1.8501322269439697	722181.4922695087
1.8537418842315674	550566.3138529176
1.8573459386825562	568466.4418417915
1.860944390296936	466698.50369097164
1.864537239074707	218515.30874398438
1.8681244850158691	105057.0941585896
1.871706247329712	172402.91579627906
1.8752825260162354	390604.81670900667
1.8788533210754395	640702.342943727
1.8824186325073242	827157.557533976
1.8859784603118896	1051456.7911875746
1.8895330429077148	1225401.0960626602
1.8930821418762207	1023235.7447396158
1.8966259956359863	673274.784255691
1.9001644849777222	493363.602439485
1.9036977291107178	402631.85472704406
1.9072256088256836	573309.5864041214
1.9107483625411987	735464.952806041
1.9142658710479736	494722.04872566543
1.9177782535552979	339979.5657698845
1.9212853908538818	321319.44240808574
1.9247875213623047	173555.66626388291
1.9282845258712769	131494.35295150126
1.9317764043807983	301119.5435743621
1.9352631568908691	559102.6933838322
1.9387450218200684	610771.0608069905
1.942221760749817	443025.566752091
1.9456936120986938	316711.7989138267
1.9491604566574097	274839.23108524963
1.952622413635254	290872.4606114961
1.956079363822937	426764.70467007166
1.959531545639038	683409.5337077891
1.962978720664978	764875.1580025791
1.966421127319336	714799.9563813352
1.9698586463928223	845789.2309241176
1.9732913970947266	1004995.2762803219
1.9767193794250488	1111090.5751238684
1.9801424741744995	1255691.424840109
1.9835609197616577	1355402.7423208351
1.9869745969772339	1476268.558134737
1.990383505821228	1557575.2924857915
1.9937876462936401	1478736.2731326174
1.9971871376037598	1195724.196815991
2.000581979751587	996121.3515218714
2.003972291946411	1330081.1996672016
2.007357597351074	1853120.797138144
2.0107386112213135	2114477.491580192
2.0141148567199707	2066212.2116652501
2.017486572265625	1835497.4808776455
2.0208535194396973	1667965.3046036472
2.0242159366607666	1621751.4722363402
2.027573823928833	1639823.72589143
2.0309269428253174	1650102.888394559
2.034275770187378	1868936.7873404361
2.0376198291778564	2356938.8251350764
2.040959596633911	2658075.1683226684
2.044294595718384	2722852.829267525
2.0476250648498535	2705336.6688813027
2.0509510040283203	2581401.6652631816
2.054272413253784	2506101.000632838
2.057589530944824	2590886.4152571238
2.0609018802642822	2701054.9714145064
2.0642096996307373	2748037.9876914895
2.0675129890441895	2743443.0212544804
2.0708119869232178	2703111.8379552374
2.074106216430664	2658281.5169971827
2.0773961544036865	2647044.36333239
2.080681324005127	2649349.72643242
2.0839622020721436	2626040.984169063
2.087238311767578	2589424.101520918
2.090510129928589	2565427.92498925
2.0937774181365967	2549793.2134504695
2.0970399379730225	2512461.9646678334
2.1002981662750244	2441294.4850666784
2.1035518646240234	2390742.231477572
2.1068007946014404	2385807.7007308253
2.1100454330444336	2379963.8572688564
2.1132853031158447	2337015.394821614
2.116520881652832	2243664.8218463575
2.1197516918182373	2139604.0240659826
2.1229779720306396	2068210.256268144
2.12619948387146	2016095.293278418
2.1294167041778564	1999527.247955951
2.132629156112671	2015895.0670410832
2.1358368396759033	1956835.8016773406
2.139039993286133	1851594.5573935637
2.1422386169433594	1764025.1502017102
2.145432472229004	1678473.7482165026
2.1486217975616455	1600566.9574099015
2.151806354522705	1487319.8750827836
2.1549863815307617	1461270.1150725726
2.1581614017486572	1558538.7627490715
2.16133189201355	1608828.5587014842
2.1644976139068604	1572363.2145443638
2.167658567428589	1450111.5958159107
2.1708147525787354	1368456.4469007829
2.173966407775879	1465289.1511630523
2.1771130561828613	1613888.4576329978
2.1802549362182617	1619989.5124774154
2.183391809463501	1480395.6364465435
2.1865241527557373	1337176.4312290093
2.1896514892578125	1243252.892810636
2.1927738189697266	1082578.2304085155
2.1958916187286377	769217.395580493
2.1990041732788086	437883.9835722116
2.2021119594573975	279068.1049465694
2.2052149772644043	310218.5217704983
2.208312749862671	441635.2735585442
2.2114057540893555	601930.5272435333
2.214493751525879	687049.674178751
2.217576742172241	585989.9232065068
2.2206547260284424	407668.2126102489
2.2237277030944824	307456.0505832885
2.2267956733703613	257357.58919301003
2.2298583984375	223911.88763229846
2.2329163551330566	211946.78544412713
2.235969066619873	225214.7488739676
2.2390167713165283	228034.51929141252
2.2420592308044434	196243.53298772278
2.2450966835021973	162448.94934490797
2.248128890991211	150730.69487028435
2.2511560916900635	162757.09469831598
2.254178285598755	212615.42898561028
2.257194995880127	306844.4740266199
2.260206699371338	309727.7135574894
2.2632133960723877	176662.2638833858
2.266214609146118	120286.18324126262
2.2692108154296875	232415.62986222326
2.2722020149230957	352327.36500854144
2.2751877307891846	332532.93845543975
2.278168201446533	253450.663432784
2.2811436653137207	241819.03530196994
2.284113883972168	246811.02035389055
2.287078857421875	193320.19882069438
2.290038824081421	136489.86591855908
2.2929933071136475	128638.58003832122
2.295942783355713	133707.69849115878
2.298887014389038	138271.6117474117
2.301826238632202	166695.4498019478
2.304760217666626	244412.92853964883
2.3076889514923096	373662.8350826177
2.310612440109253	511705.10548544856
2.3135311603546143	614341.26510074
2.3164443969726562	557719.0757703253
2.319352865219116	313174.9078669335
2.322256088256836	135997.02300243557
2.3251543045043945	110707.77752203401
2.328047275543213	105974.811211826
2.330935478210449	92307.60212146761
2.3338186740875244	76798.80262589263
2.3366971015930176	60005.67975909787
2.3395702838897705	48713.82958973892
2.3424389362335205	43309.96448089902
2.3453025817871094	38982.763929837216
2.348161458969116	38294.481984096026
2.351015567779541	68580.05649029282
2.353865146636963	160531.76061042107
2.3567099571228027	285198.338397585
2.3595502376556396	377392.34878440836
2.3623859882354736	377609.9597462015
2.3652172088623047	260696.80667182038
2.368043899536133	117001.26439712681
2.370866537094116	46418.67428248925
2.3736846446990967	38898.71966840868
2.3764986991882324	45927.350748356526
2.3793084621429443	55642.28511717895
2.3821144104003906	86535.54983949428
2.384916305541992	135595.84846415822
2.387714147567749	157086.5273779974
2.3905084133148193	132109.28450839137
2.393299102783203	104540.83473152571
2.3960859775543213	90531.88054386945
2.398869514465332	93522.92442464868
2.4016497135162354	145030.2084232532
2.4044265747070312	253958.03206167728
2.407200336456299	342309.55432242184
2.409970998764038	334925.2070196006
2.4127390384674072	288134.03958451166
2.415503978729248	287046.2858287854
2.418266534805298	337933.9151810065
2.4210267066955566	377334.2829438494
2.4237842559814453	353180.7294962226
2.426539897918701	334484.40619906253
2.429293394088745	410788.98825768236
2.4320452213287354	500043.24757591204
2.4347951412200928	493152.95889868686
2.4375438690185547	469351.9203429712
2.440291166305542	512227.5970349113
2.443037271499634	531364.872886871
2.445782423019409	485235.98581863777
2.4485268592834473	471478.35258717195
2.451270818710327	547917.5325095959
2.454014539718628	659295.0421900002
2.4567582607269287	716849.7898549272
2.4595019817352295	738308.566487083
2.4622461795806885	815156.7311243495
2.4649908542633057	925422.612996912
2.4677364826202393	940508.1600613698
2.4704833030700684	796766.6582937668
2.473231554031372	568824.7154001135
2.4759814739227295	383790.2778552066
2.4787333011627197	279995.2616748079
