#wavelength	surface flux
0.6450077295303345	515824.2464525431
0.6472567915916443	805600.5639585431
0.6494921445846558	1035379.2608613124
0.6517150402069092	1167481.257310383
0.6539263725280762	1299542.3378142936
0.6561272740364075	1437004.7330662168
0.6583186388015747	1577881.7801657347
0.6605015397071838	1716859.2568673077
0.6626768708229065	1842542.2425082962
0.6648455858230591	1922577.5647760618
0.6670085787773132	1825009.8693107164
0.6691668033599854	1432335.989015604
0.6713210344314575	1227970.137257033
0.6734722256660461	1731387.754411623
0.6756211519241333	2464738.4691688204
0.6777685880661011	2928898.844670298
0.6799154281616211	3215823.4857108104
0.6820623278617859	3444973.436239332
0.6842101216316223	3652344.661001096
0.6863595843315125	3840094.2363030124
0.688511312007904	3996505.1780453883
0.6906660795211792	4121123.413082755
0.6928245425224304	4254020.5168885
0.6949873566627502	4437973.001191345
0.6971551775932312	4644481.638277439
0.6993286609649658	4804935.696123793
0.7015084028244019	4909551.592929915
0.7036949396133423	4978761.935853929
0.7058889269828796	5015778.395891749
0.7080909013748169	5022269.371572988
0.710301399230957	5001872.756897555
0.712520956993103	4952582.840636335
0.7147500514984131	4863845.917732786
0.7169892191886902	4734780.540538883
0.7192389369010925	4573232.555390701
0.7214996814727783	4379895.787048387
0.723771870136261	4157995.10975663
0.7260559797286987	3914408.335142334
0.7283523678779602	3648600.5466012806
0.7306615710258484	3386840.589271886
0.7329838871955872	3142607.9979612017
0.7353196740150452	2866547.7040672526
0.7376693487167358	2551925.5555769014
0.7400332689285278	2233450.5301642786
0.7424117922782898	1919468.4112102604
0.7448052167892456	1616363.0480528285
0.7472138404846191	1325369.1191284137
0.7496379613876343	1047938.5875491621
0.7520779371261597	791961.636013756
0.7545340061187744	563390.542444995
0.7570064663887024	367990.83226723905
0.7594954967498779	211835.43162786268
0.7620013952255249	99806.34754856596
0.7645244002342224	34141.325609517524
0.7670646905899048	8252.790969591064
0.7696225643157959	9245.43296110447
0.7721980810165405	42473.99207584188
0.7747915983200073	128080.05462430177
0.7774031162261963	257913.582778488
0.7800329327583313	444929.05436982587
0.7826811671257019	764568.6948383698
0.7853479981422424	1199866.2146315821
0.7880334854125977	1666523.3827367488
0.7907378077507019	1964281.3725527842
0.7934610247612	1962923.3069760865
0.7962033748626709	2504381.3089936045
0.7989648580551147	3882899.6743063987
0.801745593547821	5182459.118711273
0.8045456409454346	6225721.0552282175
0.8073651194572449	7266255.633636179
0.8102040886878967	8342549.821531776
0.8130625486373901	9514878.09977262
0.8159406185150146	10600110.32735691
0.8188382983207703	11715557.994831813
0.8217556476593018	13561908.018570395
0.8246926665306091	15777633.492621172
0.8276493549346924	17688217.301327072
0.8306257724761963	19658738.601138078
0.8336219191551208	21950116.74468146
0.8366377949714661	24269849.245292187
0.8396733403205872	26539456.015098486
0.8427285552024841	28973160.235064153
0.8458034992218018	31086430.424480192
0.8488980531692505	30537200.50324614
0.8520121574401855	29155775.731325418
0.8551458716392517	33968617.33032694
0.8582990765571594	39402192.21855179
0.8614717125892639	35223610.807828024
0.8646637797355652	29514999.780974697
0.8678751587867737	30469573.281112988
0.8711057901382446	32904372.297840174
0.8743556141853333	35285250.04933577
0.87762451171875	39397301.801718354
0.8809124231338501	43051914.42310734
0.8842192888259888	45719196.280633256
0.8875449895858765	46815486.86913378
0.8908893465995789	45217217.94826446
0.894252359867096	46028627.46107603
0.8976338505744934	54142249.37481298
0.9010337591171265	66588926.08316002
0.9044519662857056	77812186.0669704
0.9078882932662964	86063267.06197843
0.9113426208496094	92334348.32514235
0.914814829826355	95808991.64143763
0.9183048605918884	98608256.4914224
0.9218124747276306	98344158.46967813
0.925337553024292	89488822.05541103
0.9288799166679382	83101602.56179759
0.9324395060539246	85792871.18312953
0.9360161423683167	90819392.77333874
0.9396095871925354	93400402.6470004
0.943219780921936	92353146.07995065
0.9468464851379395	89336680.95026956
0.9504896402359009	95397720.02449839
0.9541489481925964	113362655.66473776
0.9578243494033813	121121204.16225001
0.9615156054496765	108227687.6206835
0.9652225375175476	92898250.11616391
0.9689450263977051	102444908.47400175
0.9726828336715698	130945872.72026785
0.9764357805252075	144861723.8136058
0.9802037477493286	146559158.77082038
0.983986496925354	154552744.7169996
0.9877838492393494	152014644.22199377
0.9915955662727356	132081816.9553957
0.9954215884208679	115741380.83064616
0.9992615580558777	101021551.58432184
1.0031154155731201	89402544.53071141
1.0069829225540161	92605422.20233078
1.0108637809753418	106516983.09461196
1.0147579908370972	124038197.21369658
1.018665075302124	135818839.80486584
1.022585153579712	135739072.06877473
1.0265177488327026	135206334.66329932
1.0304628610610962	147967362.83527526
1.0344202518463135	167173228.19400752
1.0383895635604858	179540336.0882911
1.0423706769943237	184874967.44828245
1.0463634729385376	191754013.6678946
1.0503677129745483	199777166.89700136
1.0543830394744873	209471627.35470486
1.058409333229065	219973378.61329484
1.0624464750289917	226959585.81885144
1.0664942264556885	234111740.77409157
1.0705522298812866	243368153.71240813
1.0746204853057861	252741273.98349184
1.0786986351013184	259886857.4673383
1.0827864408493042	264584829.85050097
1.086883783340454	256558749.96432513
1.0909905433654785	229746969.26845878
1.0951062440872192	202998334.63070515
1.0992310047149658	165528802.5960895
1.10336434841156	110635819.53054191
1.1075061559677124	81787598.30023907
1.1116561889648438	74840845.5318392
1.115814208984375	66555606.51369526
1.1199802160263062	68014517.1027081
1.124153733253479	73324750.39776826
1.1283347606658936	63747144.92248721
1.1325229406356812	48039973.22750557
1.1367181539535522	56044008.573090665
1.1409201622009277	86373194.4959812
1.145128846168518	109543708.8327761
1.1493438482284546	103417426.29954222
1.1535650491714478	83937503.143349
1.1577922105789185	76718096.4463598
1.1620250940322876	76164617.32775037
1.1662636995315552	81264866.15251078
1.170507550239563	87121320.09185836
1.174756646156311	92251425.39506379
1.1790107488632202	110693154.47335206
1.1832695007324219	130152119.99624208
1.1875330209732056	133615081.95443329
1.191800832748413	154375510.43678108
1.1960728168487549	193735108.49678972
1.2003488540649414	211841340.50192314
1.2046287059783936	218938004.1031286
1.2089121341705322	224875025.38358092
1.2131990194320679	234288754.29467642
1.2174891233444214	255990015.1020953
1.2217823266983032	273149372.84984237
1.2260783910751343	281213745.5111052
1.230377197265625	289429807.62632
1.2346785068511963	291532906.2048822
1.238982081413269	272710650.23472536
1.2432878017425537	246387838.7974566
1.2475954294204712	236395545.8627921
1.2519049644470215	235579785.37622535
1.256216049194336	270161730.4011164
1.2605286836624146	316078783.6450423
1.2648425102233887	325604263.2871871
1.2691574096679688	336705564.38680923
1.2734732627868652	356648412.1638262
1.2777899503707886	356782397.8609305
1.2821072340011597	341784759.4286051
1.2864248752593994	335865781.0778209
1.2907428741455078	336692063.7320366
1.2950609922409058	330958238.2332933
1.2993791103363037	304236796.21771723
1.303696870803833	280709186.20799947
1.3080145120620728	281548300.60950786
1.3123314380645752	286146575.917966
1.3166478872299194	283616169.4748156
1.3209635019302368	253792271.97320154
1.3252781629562378	207787337.5852905
1.3295916318893433	153006754.747101
1.3339040279388428	78514039.84688424
1.3382149934768677	26973244.178135198
1.3425244092941284	14228562.09731724
1.3468321561813354	13031934.545413343
1.3511382341384888	12428191.481268378
1.3554422855377197	10120064.850556556
1.3597444295883179	12180483.793499425
1.3640443086624146	17471130.719775885
1.3683418035507202	16142376.547104308
1.3726370334625244	13120989.659435254
1.3769296407699585	14773177.178207943
1.381219506263733	12697955.795333678
1.3855066299438477	7778160.792152973
1.3897908926010132	8067387.083424843
1.3940720558166504	11214072.385051591
1.3983501195907593	10880821.55630769
1.4026249647140503	10481631.963992506
1.4068963527679443	12661643.78929163
1.4111642837524414	14329260.006270288
1.4154287576675415	15111977.579729527
1.419689416885376	14064771.409540825
1.4239463806152344	12905372.709001822
1.4281994104385376	10904852.757636005
1.4324485063552856	8459725.931118404
1.436693549156189	10032133.421739679
1.440934419631958	14550599.91118751
1.4451709985733032	21450623.949173227
1.449403166770935	29050300.16853235
1.453631043434143	28858743.900389787
1.4578542709350586	25616430.149751812
1.4620729684829712	30605866.629937984
1.4662868976593018	36337240.49222999
1.4704961776733398	29106417.472288243
1.4747005701065063	19582220.71625807
1.4788999557495117	23687018.864448052
1.4830944538116455	36478564.90359412
1.4872838258743286	41479690.96025923
1.491468071937561	35316765.487631224
1.4956470727920532	34458403.38940275
1.4998208284378052	43344441.67288849
1.5039892196655273	47393308.35730526
1.5081522464752197	42146283.033532485
1.5123097896575928	44589956.02964773
1.5164618492126465	62669293.31310205
1.5206083059310913	81213866.04597773
1.5247491598129272	84568916.31967026
1.5288842916488647	82294556.30445199
1.5330137014389038	88172384.39250295
1.5371372699737549	92535340.1540578
1.541254997253418	90363750.1413588
1.545366883277893	94000336.07911588
1.5494728088378906	99780715.42301561
1.5535727739334106	102025043.3547016
1.5576666593551636	107093050.20654218
1.561754584312439	115860337.67485198
1.5658363103866577	125236692.25119856
1.5699119567871094	129076946.55983827
1.5739814043045044	128555477.65221366
1.5780447721481323	132987132.80900502
1.582101821899414	142157276.4679669
1.5861525535583496	148235192.3116573
1.5901970863342285	146197973.40441898
1.5942351818084717	140282788.7846486
1.5982669591903687	141222762.69130406
1.6022924184799194	144128729.06283882
1.606311559677124	140211650.55743724
1.6103241443634033	138903564.2289099
1.6143304109573364	138547035.97275373
1.6183301210403442	132206771.79538098
1.6223233938217163	128238007.56491403
1.6263102293014526	127905490.93668304
1.6302905082702637	128575634.5401814
1.634264349937439	132045608.7480017
1.638231635093689	137564599.62688404
1.6421923637390137	140095602.266906
1.646146535873413	133925775.51960783
1.6500942707061768	125821658.2829089
1.6540353298187256	124062271.90178229
1.6579699516296387	123156723.50697665
1.661897897720337	115944796.17329729
1.6658192873001099	96068873.14379402
1.6697341203689575	83157848.86635867
1.6736423969268799	95337707.94527203
1.677544116973877	108099710.26655865
1.6814392805099487	108086759.18632954
1.6853278875350952	101857423.31248432
1.6892099380493164	91633850.46875216
1.6930854320526123	80812742.41545022
1.696954369544983	75775340.7526329
1.7008168697357178	76508571.89821889
1.7046726942062378	76836162.73554637
1.708522081375122	76335440.82188277
1.712364912033081	73555638.00134389
1.7162011861801147	70309743.08516815
1.7200311422348022	71158856.69309336
1.723854422569275	71064762.49360368
1.7276713848114014	64965438.21177431
1.731481909751892	55068162.54501249
1.7352858781814575	49816267.10268749
1.7390835285186768	51443683.553333424
1.7428747415542603	50994804.76987221
1.7466596364974976	43151397.52156894
1.7504380941390991	36046453.72664879
1.7542102336883545	36827782.9065984
1.7579760551452637	43681883.333219565
1.7617355585098267	54386092.36569437
1.7654887437820435	57784083.52234388
1.7692357301712036	45889544.75725594
1.7729763984680176	31552614.54687192
1.776710867881775	21717200.88671758
1.7804391384124756	17528013.27927092
1.7841613292694092	17708093.023950618
1.7878772020339966	17507048.492932983
1.7915871143341064	22728594.979439553
1.7952908277511597	29211194.645187482
1.7989884614944458	27426063.54037592
1.8026801347732544	20180037.30966036
1.806365728378296	14307384.91614048
1.8100452423095703	12806151.60685277
1.8137187957763672	12133168.433652207
1.817386507987976	10058074.176279508
1.8210482597351074	15417029.849179639
1.8247040510177612	25339711.840989795
1.828354001045227	23448677.664045285
1.8319982290267944	14689659.918434331
1.8356364965438843	14811219.641264148
1.8392690420150757	20475366.909193043
1.8428958654403687	21227879.317299996
1.8465168476104736	18570432.039084632
1.8501322269439697	17075166.75804095
1.8537418842315674	14991440.077778967
1.8573459386825562	13385679.419195356
1.860944390296936	10927335.344286993
1.864537239074707	6738219.265909235
1.8681244850158691	5536738.496822043
1.871706247329712	9064834.212029008
1.8752825260162354	13784228.012177346
1.8788533210754395	14424298.809868222
1.8824186325073242	13978792.248982912
1.8859784603118896	18919775.01553495
1.8895330429077148	24805573.45844666
1.8930821418762207	22187832.32638656
1.8966259956359863	16875764.0557799
1.9001644849777222	15083129.009988341
1.9036977291107178	12828950.168206736
1.9072256088256836	15829218.622674003
1.9107483625411987	19458010.43248705
1.9142658710479736	14834147.686042393
1.9177782535552979	13122126.409222765
1.9212853908538818	12515748.288705975
1.9247875213623047	6799511.9991243705
1.9282845258712769	4829772.595421998
1.9317764043807983	10335675.156141037
1.9352631568908691	19131274.874806635
1.9387450218200684	20259202.19892456
1.942221760749817	12925578.21264977
1.9456936120986938	8116492.887326573
1.9491604566574097	7628472.353900935
1.952622413635254	10307075.809240784
1.956079363822937	18149453.98865876
1.959531545639038	24941651.204887178
1.962978720664978	21084760.88277353
1.966421127319336	15344593.274373183
1.9698586463928223	17112353.89626796
1.9732913970947266	18837079.883634828
1.9767193794250488	18723992.202420887
1.9801424741744995	19684913.367616728
1.9835609197616577	20008460.123190638
1.9869745969772339	22786176.532198448
1.990383505821228	25502165.535007123
1.9937876462936401	24362646.086339734
1.9971871376037598	20838837.98582976
2.000581979751587	18005749.161068868
2.003972291946411	21414266.344548557
2.007357597351074	26068283.979142696
2.0107386112213135	27682359.847502496
2.0141148567199707	26826564.29458081
2.017486572265625	23665894.94273051
2.0208535194396973	24623602.75648547
2.0242159366607666	28908955.11843972
2.027573823928833	29410434.451346304
2.0309269428253174	28361542.59120002
2.034275770187378	31021032.34480855
2.0376198291778564	36964194.62323355
2.040959596633911	42323858.89124439
2.044294595718384	44094833.62762871
2.0476250648498535	44249983.443436526
2.0509510040283203	42593025.18090281
2.054272413253784	38978374.51778271
2.057589530944824	39617726.15335451
2.0609018802642822	45009364.07287328
2.0642096996307373	48966271.751810774
2.0675129890441895	50205611.11349214
2.0708119869232178	50347228.2145567
2.074106216430664	49863492.75559348
2.0773961544036865	50910872.73116579
2.080681324005127	52810100.418564655
2.0839622020721436	53033741.8168273
2.087238311767578	51942654.96060741
2.090510129928589	50969002.331619315
2.0937774181365967	51347612.19871846
2.0970399379730225	52009345.889987744
2.1002981662750244	50734838.9002815
2.1035518646240234	49382894.791212365
2.1068007946014404	49908039.07760737
2.1100454330444336	50562813.892570235
2.1132853031158447	50162097.88812914
2.116520881652832	48801709.56309328
2.1197516918182373	47525172.47898085
2.1229779720306396	47120499.212194316
2.12619948387146	46659115.2160292
2.1294167041778564	46215587.03552392
2.132629156112671	46475271.49277378
2.1358368396759033	45841425.001147814
2.139039993286133	44304451.470482185
2.1422386169433594	43203583.37936841
2.145432472229004	42319888.75545648
2.1486217975616455	41444238.93107703
2.151806354522705	40298761.57282094
2.1549863815307617	40115668.90257878
2.1581614017486572	41095774.47374638
2.16133189201355	41611676.47426509
2.1644976139068604	41291891.528052635
2.167658567428589	39634927.613015786
2.1708147525787354	37424455.28663865
2.173966407775879	36494724.59282201
2.1771130561828613	36594186.17695279
2.1802549362182617	36040150.24474762
2.183391809463501	34309957.5598694
2.1865241527557373	32472361.097534735
2.1896514892578125	30960319.47389897
2.1927738189697266	28466919.308393743
2.1958916187286377	23774464.958211396
2.1990041732788086	18522095.98438996
2.2021119594573975	15574220.152152576
2.2052149772644043	14727522.145151865
2.208312749862671	14702708.732696418
2.2114057540893555	16256260.613058176
2.214493751525879	18392514.341595158
2.217576742172241	18386341.33314584
2.2206547260284424	17355842.341885075
2.2237277030944824	16245331.790202621
2.2267956733703613	14030808.881115595
2.2298583984375	12136503.53986794
2.2329163551330566	11761348.285418684
2.235969066619873	12374621.363745224
2.2390167713165283	12500148.926673975
2.2420592308044434	11474873.885609332
2.2450966835021973	10420919.585295785
2.248128890991211	10165443.161649339
2.2511560916900635	10642085.653820952
2.254178285598755	11990148.869381435
2.257194995880127	13999396.044561071
2.260206699371338	13455473.212526001
2.2632133960723877	9724571.282951515
2.266214609146118	8097764.177056185
2.2692108154296875	10499129.387865376
2.2722020149230957	12888939.307712296
2.2751877307891846	12693644.467380416
2.278168201446533	11809303.644816723
2.2811436653137207	11581316.991791293
2.284113883972168	10835539.215878367
2.287078857421875	9363720.648863638
2.290038824081421	8570115.663786355
2.2929933071136475	8755674.607158782
2.295942783355713	8997689.276779883
2.298887014389038	9414451.943543207
2.301826238632202	10554552.495130306
2.304760217666626	12156818.6008521
2.3076889514923096	14198916.855743313
2.310612440109253	16891038.034248076
2.3135311603546143	18863398.84334409
2.3164443969726562	16782116.72816953
2.319352865219116	10937487.270533074
2.322256088256836	6880990.949236388
2.3251543045043945	5881136.561779731
2.328047275543213	5589228.1651852215
2.330935478210449	5614971.505875546
2.3338186740875244	5479240.126814746
2.3366971015930176	5030561.962768538
2.3395702838897705	4731253.780108543
2.3424389362335205	4671693.376451391
2.3453025817871094	4653250.815021641
2.348161458969116	4636643.173722427
2.351015567779541	5557485.268742917
2.353865146636963	8351054.343411734
2.3567099571228027	11820593.527784374
2.3595502376556396	13836862.525375929
2.3623859882354736	13343182.4233815
2.3652172088623047	10467667.228221526
2.368043899536133	6900799.135174428
2.370866537094116	4789898.169420511
2.3736846446990967	4722046.478601294
2.3764986991882324	5228596.870847265
2.3793084621429443	5169147.796758234
2.3821144104003906	5154586.483542793
2.384916305541992	5961664.052659023
2.387714147567749	7115750.295616557
2.3905084133148193	7486368.363017192
2.393299102783203	7087027.138678175
2.3960859775543213	6513382.742947846
2.398869514465332	6489018.36163089
2.4016497135162354	7562509.24907103
2.4044265747070312	9316557.22054512
2.407200336456299	10514483.3991555
2.409970998764038	10460004.13112193
2.4127390384674072	9926597.23005419
2.415503978729248	9652390.936882766
2.418266534805298	9569919.97619428
2.4210267066955566	9438465.167623185
2.4237842559814453	9122319.018651277
2.426539897918701	9254964.512691129
2.429293394088745	10508102.439058974
2.4320452213287354	11658592.921829706
2.4347951412200928	11163988.346880244
2.4375438690185547	9818199.327846332
2.440291166305542	9142883.324704025
2.443037271499634	9248813.177622067
2.445782423019409	10053379.090642724
2.4485268592834473	11154557.624003612
2.451270818710327	11158078.974203957
2.454014539718628	10365742.363300437
2.4567582607269287	10029359.859529309
2.4595019817352295	10005630.936582454
2.4622461795806885	11105979.095487883
2.4649908542633057	12548707.783896044
2.4677364826202393	11568047.210859422
2.4704833030700684	8545867.730911348
2.473231554031372	5722275.19303389
2.4759814739227295	4155465.788889153
2.4787333011627197	3634353.2976891985
2.481487512588501	3864855.3780714395
