#wavelength	surface flux
0.6450077295303345	536480.0358269364
0.6472567915916443	807284.2295837138
0.6494921445846558	970987.9483468784
0.6517150402069092	1013607.9509861242
0.6539263725280762	1047537.7013881814
0.6561272740364075	1080102.881716923
0.6583186388015747	1114043.2464418963
0.6605015397071838	1148896.9281061236
0.6626768708229065	1180834.6521725925
0.6648455858230591	1212516.7696127137
0.6670085787773132	1217076.5470687305
0.6691668033599854	1134573.800604197
0.6713210344314575	1093376.8578713322
0.6734722256660461	1229686.2402877158
0.6756211519241333	1378743.7043023603
0.6777685880661011	1441877.068846726
0.6799154281616211	1478572.9315804308
0.6820623278617859	1517581.1102677942
0.6842101216316223	1566563.6369840705
0.6863595843315125	1612537.1811344642
0.688511312007904	1649453.7923301428
0.6906660795211792	1678250.2898717818
0.6928245425224304	1715046.3801720287
0.6949873566627502	1770802.5919787302
0.6971551775932312	1826741.4353757757
0.6993286609649658	1873298.8010459165
0.7015084028244019	1917179.350031377
0.7036949396133423	1962379.4587557532
0.7058889269828796	2009281.3426976393
0.7080909013748169	2055492.037896244
0.710301399230957	2101611.6129511786
0.712520956993103	2148134.7708576
0.7147500514984131	2190776.831365549
0.7169892191886902	2230217.008250254
0.7192389369010925	2274732.6901482986
0.7214996814727783	2322076.9069965794
0.723771870136261	2365875.8789752065
0.7260559797286987	2408169.331444247
0.7283523678779602	2449423.9699542704
0.7306615710258484	2490266.5213221475
0.7329838871955872	2531968.0388668724
0.7353196740150452	2569926.5689316955
0.7376693487167358	2602259.514915422
0.7400332689285278	2627334.1154033532
0.7424117922782898	2638668.7389068655
0.7448052167892456	2633687.8703368846
0.7472138404846191	2605806.0967927026
0.7496379613876343	2540900.378831218
0.7520779371261597	2420010.0027964273
0.7545340061187744	2215280.6902718553
0.7570064663887024	1890910.478867186
0.7594954967498779	1421146.7663420246
0.7620013952255249	849148.6577073847
0.7645244002342224	347477.937531704
0.7670646905899048	91170.17394155257
0.7696225643157959	102650.17847657016
0.7721980810165405	419669.3886186585
0.7747915983200073	1044098.8361437081
0.7774031162261963	1709254.068131593
0.7800329327583313	2250681.4234171235
0.7826811671257019	2795157.351779778
0.7853479981422424	3293109.3825051286
0.7880334854125977	3623992.7045150106
0.7907378077507019	3667518.40727592
0.7934610247612	3315255.3252126765
0.7962033748626709	3386329.1716485205
0.7989648580551147	4116762.4138790853
0.801745593547821	4606418.9081261745
0.8045456409454346	4777182.0179499155
0.8073651194572449	4910478.892594699
0.8102040886878967	5024592.09724701
0.8130625486373901	5146458.135946773
0.8159406185150146	5289805.7776284525
0.8188382983207703	5431816.471962199
0.8217556476593018	5573951.442136383
0.8246926665306091	5724337.962086508
0.8276493549346924	5867222.493608136
0.8306257724761963	6001207.236849848
0.8336219191551208	6136621.56864756
0.8366377949714661	6269447.249830709
0.8396733403205872	6413690.794438057
0.8427285552024841	6582032.940414619
0.8458034992218018	6747747.457771819
0.8488980531692505	6889525.079573154
0.8520121574401855	7027042.650314443
0.8551458716392517	7198869.92893944
0.8582990765571594	7345175.853821751
0.8614717125892639	7372698.693375697
0.8646637797355652	7428320.060416171
0.8678751587867737	7627398.1775787035
0.8711057901382446	7837740.133756217
0.8743556141853333	8016622.216482161
0.87762451171875	8183959.580000574
0.8809124231338501	8341636.58923318
0.8842192888259888	8529417.921843221
0.8875449895858765	8698676.077216893
0.8908893465995789	8791691.845311878
0.894252359867096	8921140.44996538
0.8976338505744934	9176055.161160117
0.9010337591171265	9463116.363040669
0.9044519662857056	9713953.28135197
0.9078882932662964	9938300.070986724
0.9113426208496094	10129146.798067529
0.914814829826355	10267421.482979579
0.9183048605918884	10414841.996492783
0.9218124747276306	10554251.903819142
0.925337553024292	10368705.595177405
0.9288799166679382	9905568.14277192
0.9324395060539246	9820014.4137943
0.9360161423683167	10230027.81904377
0.9396095871925354	10692306.915555473
0.943219780921936	10854662.484971248
0.9468464851379395	10877127.950225823
0.9504896402359009	11113667.394338774
0.9541489481925964	11459671.355341563
0.9578243494033813	11592052.111257223
0.9615156054496765	11463638.897145636
0.9652225375175476	11475139.608229047
0.9689450263977051	11887964.515122453
0.9726828336715698	12594610.26841279
0.9764357805252075	13173124.395087646
0.9802037477493286	13521508.576758662
0.983986496925354	13845958.10458357
0.9877838492393494	14168872.32148531
0.9915955662727356	14498761.669662785
0.9954215884208679	14822263.855556373
0.9992615580558777	15087761.567694277
1.0031154155731201	15321687.754245982
1.0069829225540161	15637495.883000495
1.0108637809753418	16025525.54105585
1.0147579908370972	16420920.184668558
1.018665075302124	16767232.356744688
1.022585153579712	16996336.47330359
1.0265177488327026	17178112.6007462
1.0304628610610962	17471492.561310545
1.0344202518463135	17889809.602833215
1.0383895635604858	18277030.553595867
1.0423706769943237	18577390.379352264
1.0463634729385376	18851813.72289784
1.0503677129745483	19121679.873378783
1.0543830394744873	19424135.877972133
1.058409333229065	19740223.388399888
1.0624464750289917	20027098.204793032
1.0664942264556885	20299849.841333188
1.0705522298812866	20572837.6229522
1.0746204853057861	20861295.89302604
1.0786986351013184	21159133.367061317
1.0827864408493042	21436643.185220815
1.086883783340454	21621987.201629255
1.0909905433654785	21663450.191044137
1.0951062440872192	21513051.739177257
1.0992310047149658	20630971.327320892
1.10336434841156	19186344.245128695
1.1075061559677124	18659695.97411264
1.1116561889648438	18715286.008412804
1.115814208984375	18415425.400133226
1.1199802160263062	18320579.243151173
1.124153733253479	18863682.16298297
1.1283347606658936	19242982.074474588
1.1325229406356812	18546277.016846564
1.1367181539535522	18803940.299390845
1.1409201622009277	20584940.61572103
1.145128846168518	21697349.66415189
1.1493438482284546	20891213.378643654
1.1535650491714478	18934566.241454486
1.1577922105789185	18303096.823109392
1.1620250940322876	19409140.050304294
1.1662636995315552	21029361.062710654
1.170507550239563	22099990.18947085
1.174756646156311	23144591.64990678
1.1790107488632202	24759454.827285185
1.1832695007324219	26076155.50829623
1.1875330209732056	26824241.736145306
1.191800832748413	27488853.310702555
1.1960728168487549	28274657.434696198
1.2003488540649414	28835187.04508844
1.2046287059783936	29164144.181804206
1.2089121341705322	29489850.89911388
1.2131990194320679	29922477.314728655
1.2174891233444214	30451256.140849855
1.2217823266983032	30956183.593233954
1.2260783910751343	31385014.524551507
1.230377197265625	31756822.750531483
1.2346785068511963	32099311.725535966
1.238982081413269	32455647.62217454
1.2432878017425537	32784074.190094944
1.2475954294204712	32958248.3128498
1.2519049644470215	33038030.78564763
1.256216049194336	33420912.23694474
1.2605286836624146	33917492.098180555
1.2648425102233887	34183997.29834641
1.2691574096679688	34393424.82412209
1.2734732627868652	34634500.64786947
1.2777899503707886	34875517.58297021
1.2821072340011597	35065559.27602569
1.2864248752593994	35152731.46096706
1.2907428741455078	35135285.10374455
1.2950609922409058	35257845.65935531
1.2993791103363037	35416159.6166961
1.303696870803833	35383614.979009554
1.3080145120620728	35477491.24584801
1.3123314380645752	35821131.37488117
1.3166478872299194	36171319.63980474
1.3209635019302368	35850261.80017639
1.3252781629562378	34346980.8670386
1.3295916318893433	30635624.089786734
1.3339040279388428	23264737.61689511
1.3382149934768677	14485126.998187188
1.3425244092941284	10173507.838139862
1.3468321561813354	10722303.525230797
1.3511382341384888	10017477.354701513
1.3554422855377197	7989845.784689788
1.3597444295883179	7599519.633517758
1.3640443086624146	8434969.691077987
1.3683418035507202	10224136.095478661
1.3726370334625244	13860404.203671617
1.3769296407699585	16997641.429235827
1.381219506263733	13964522.573554045
1.3855066299438477	8403567.728136994
1.3897908926010132	6550880.519027443
1.3940720558166504	6835330.383229769
1.3983501195907593	7683030.027808543
1.4026249647140503	10591289.384949291
1.4068963527679443	13052433.64419278
1.4111642837524414	10953677.438188985
1.4154287576675415	9134151.113951702
1.419689416885376	9495899.685740601
1.4239463806152344	9367761.33786068
1.4281994104385376	10470898.723973518
1.4324485063552856	11175213.947450228
1.436693549156189	10924829.605586402
1.440934419631958	12442863.35920882
1.4451709985733032	15874641.595919363
1.449403166770935	20027506.156851485
1.453631043434143	22594962.15423369
1.4578542709350586	23799795.926527336
1.4620729684829712	25145841.537508175
1.4662868976593018	25435254.940487813
1.4704961776733398	24696740.95348137
1.4747005701065063	24719688.103613354
1.4788999557495117	25787221.206680674
1.4830944538116455	27923350.209699586
1.4872838258743286	30066683.154235464
1.491468071937561	30664541.684343107
1.4956470727920532	30837886.877399903
1.4998208284378052	32368070.21547341
1.5039892196655273	34217353.12778848
1.5081522464752197	34597823.83749298
1.5123097896575928	34942052.054712735
1.5164618492126465	36538737.35280288
1.5206083059310913	38920188.38393139
1.5247491598129272	40570309.84045235
1.5288842916488647	40789807.06807998
1.5330137014389038	41300144.37065013
1.5371372699737549	42297974.67758911
1.541254997253418	42776999.77234849
1.545366883277893	43362340.508643396
1.5494728088378906	44257680.529059105
1.5535727739334106	44727224.60053683
1.5576666593551636	44660436.44042396
1.561754584312439	45024574.71385958
1.5658363103866577	46135717.02050258
1.5699119567871094	46876259.184973456
1.5739814043045044	46706993.854076214
1.5780447721481323	46318437.96679142
1.582101821899414	46877340.97498629
1.5861525535583496	48091994.58634772
1.5901970863342285	48674854.53408448
1.5942351818084717	48638098.92341514
1.5982669591903687	48539463.73285248
1.6022924184799194	48711524.999317914
1.606311559677124	49040752.63034511
1.6103241443634033	49188861.60960866
1.6143304109573364	49202000.681477316
1.6183301210403442	49208533.998068795
1.6223233938217163	49304857.990403466
1.6263102293014526	49442842.9851621
1.6302905082702637	49401919.680644505
1.634264349937439	49760068.79085761
1.638231635093689	50753291.67325624
1.6421923637390137	51372630.684659414
1.646146535873413	51205608.19597491
1.6500942707061768	50864556.30117683
1.6540353298187256	51013010.72290469
1.6579699516296387	51243050.853389315
1.661897897720337	50626356.83350244
1.6658192873001099	49042753.37812954
1.6697341203689575	48518035.86660756
1.6736423969268799	50146603.835799076
1.677544116973877	51462690.157068916
1.6814392805099487	51593514.082859576
1.6853278875350952	51515047.92914392
1.6892099380493164	50976800.14554847
1.6930854320526123	49592538.59245558
1.696954369544983	48359745.61226492
1.7008168697357178	48432863.85975096
1.7046726942062378	48892419.600799255
1.708522081375122	48902151.72456592
1.712364912033081	48756487.10541883
1.7162011861801147	48950378.832148835
1.7200311422348022	49417701.7050373
1.723854422569275	49340439.6343323
1.7276713848114014	48489724.70931474
1.731481909751892	46855497.19644959
1.7352858781814575	44956994.56836237
1.7390835285186768	43559714.25281948
1.7428747415542603	41959151.20289302
1.7466596364974976	39641567.96003349
1.7504380941390991	36880082.97858869
1.7542102336883545	35135971.46196528
1.7579760551452637	37881368.613432385
1.7617355585098267	41721904.152693905
1.7654887437820435	39895026.56958095
1.7692357301712036	33797758.99886826
1.7729763984680176	26829716.82738234
1.776710867881775	20161929.773624834
1.7804391384124756	17492452.376850262
1.7841613292694092	17851307.353628576
1.7878772020339966	16603384.335027877
1.7915871143341064	16896615.373323433
1.7952908277511597	19506118.044193942
1.7989884614944458	19302483.573591348
1.8026801347732544	14517984.069686094
1.806365728378296	9278141.550861634
1.8100452423095703	9429033.874648428
1.8137187957763672	11658352.00275963
1.817386507987976	10598336.927881788
1.8210482597351074	11833198.002169276
1.8247040510177612	12990414.719131045
1.828354001045227	9286340.962534482
1.8319982290267944	8540186.031941328
1.8356364965438843	12357688.344140846
1.8392690420150757	15840823.53710771
1.8428958654403687	16254973.588698065
1.8465168476104736	15600482.342507798
1.8501322269439697	15096707.411055075
1.8537418842315674	11775625.054234913
1.8573459386825562	8927567.768808622
1.860944390296936	8237980.443385603
1.864537239074707	7324407.534803884
1.8681244850158691	8749425.09041678
1.871706247329712	12719624.075507399
1.8752825260162354	16292257.262070436
1.8788533210754395	19759606.18681225
1.8824186325073242	22018312.39868371
1.8859784603118896	20989239.18444383
1.8895330429077148	20360808.50430827
1.8930821418762207	23159382.93949223
1.8966259956359863	22837659.119579997
1.9001644849777222	15498587.374733154
1.9036977291107178	9926001.283578694
1.9072256088256836	10809498.960424917
1.9107483625411987	10744237.843032183
1.9142658710479736	7370099.26519132
1.9177782535552979	6883137.428530694
1.9212853908538818	8874719.961146848
1.9247875213623047	8959253.418928618
1.9282845258712769	9123565.087264795
1.9317764043807983	11172463.41524307
1.9352631568908691	11999567.388319872
1.9387450218200684	11060555.759061813
1.942221760749817	11112223.706894813
1.9456936120986938	11983780.446743542
1.9491604566574097	12874904.320266193
1.952622413635254	12342121.567382699
1.956079363822937	10533919.492412513
1.959531545639038	10583769.453302426
1.962978720664978	11515429.008776218
1.966421127319336	13505625.87860239
1.9698586463928223	17038873.981866717
1.9732913970947266	18649292.29592079
1.9767193794250488	19425456.968081675
1.9801424741744995	22014493.50973254
1.9835609197616577	24658098.304369792
1.9869745969772339	24850968.12642597
1.990383505821228	22280975.6287062
1.9937876462936401	21137382.62397396
1.9971871376037598	21481460.047248755
2.000581979751587	22881275.216470815
2.003972291946411	26770673.345715735
2.007357597351074	29681321.10131453
2.0107386112213135	32130563.9556337
2.0141148567199707	33339445.44468566
2.017486572265625	31394585.89799732
2.0208535194396973	31769364.468221433
2.0242159366607666	35255696.8915424
2.027573823928833	37618509.3287391
2.0309269428253174	39068534.14845974
2.034275770187378	40808676.670185216
2.0376198291778564	42164187.491090775
2.040959596633911	43402978.696321
2.044294595718384	45074077.13026832
2.0476250648498535	46856875.76826356
2.0509510040283203	47388647.1455322
2.054272413253784	46477033.78573964
2.057589530944824	46646100.26679642
2.0609018802642822	48098446.65432864
2.0642096996307373	49373213.462254874
2.0675129890441895	50249303.37695399
2.0708119869232178	50580796.5204499
2.074106216430664	50309550.67087025
2.0773961544036865	50145157.26919798
2.080681324005127	50548725.39748077
2.0839622020721436	51122637.66440271
2.087238311767578	51570572.914101265
2.090510129928589	51578101.76765928
2.0937774181365967	51256815.724000886
2.0970399379730225	51267171.54271993
2.1002981662750244	51403606.95082599
2.1035518646240234	51163222.333630025
2.1068007946014404	50821319.110625036
2.1100454330444336	51293242.12655749
2.1132853031158447	52150667.195332445
2.116520881652832	52191236.93861451
2.1197516918182373	52031131.907744475
2.1229779720306396	52312833.880132295
2.12619948387146	52598481.220332034
2.1294167041778564	52663660.7016796
2.132629156112671	52732789.43115727
2.1358368396759033	52611166.84040055
2.139039993286133	52186983.988460734
2.1422386169433594	51877948.05970994
2.145432472229004	51728089.9795268
2.1486217975616455	51515173.383481584
2.151806354522705	51182925.14968337
2.1549863815307617	51109974.26312573
2.1581614017486572	51266816.656387955
2.16133189201355	51164825.15802754
2.1644976139068604	50971549.8010529
2.167658567428589	50822939.86844929
2.1708147525787354	50597179.89745955
2.173966407775879	50219755.77977955
2.1771130561828613	49899777.56214936
2.1802549362182617	49848342.63537629
2.183391809463501	49745005.06205541
2.1865241527557373	49388464.24753805
2.1896514892578125	48764050.284456395
2.1927738189697266	47253018.111390874
2.1958916187286377	44540940.42205424
2.1990041732788086	41898328.106976174
2.2021119594573975	40487288.81926535
2.2052149772644043	39945825.60031965
2.208312749862671	40134960.11796679
2.2114057540893555	41161541.703714885
2.214493751525879	42072770.84381865
2.217576742172241	42013651.32600014
2.2206547260284424	41685270.69778574
2.2237277030944824	41408134.36831818
2.2267956733703613	40191050.12806583
2.2298583984375	38403679.165462434
2.2329163551330566	37326713.85701263
2.235969066619873	37138067.83608172
2.2390167713165283	36785434.33824529
2.2420592308044434	35138640.2162313
2.2450966835021973	33106138.758299384
2.248128890991211	32995931.074264772
2.2511560916900635	34570379.67014095
2.254178285598755	35756610.634983286
2.257194995880127	36438353.35490864
2.260206699371338	36428977.57334796
2.2632133960723877	34625205.627710536
2.266214609146118	32126783.246689495
2.2692108154296875	31116973.725000292
2.2722020149230957	32103139.782821644
2.2751877307891846	33479408.50909463
2.278168201446533	33306097.59231941
2.2811436653137207	31920880.468810994
2.284113883972168	30966492.377627593
2.287078857421875	30420258.02131713
2.290038824081421	29034631.279321715
2.2929933071136475	26329166.03152087
2.295942783355713	22941753.56197118
2.298887014389038	19891830.299427953
2.301826238632202	17812518.51657367
2.304760217666626	16691034.392315753
2.3076889514923096	16369563.80338897
2.310612440109253	17020378.020801302
2.3135311603546143	17522420.49879013
2.3164443969726562	16111563.12829132
2.319352865219116	13993416.41892126
2.322256088256836	13084197.35713675
2.3251543045043945	12917789.93191854
2.328047275543213	12890842.59639088
2.330935478210449	13270022.996350946
2.3338186740875244	13948654.754897842
2.3366971015930176	14668253.728782369
2.3395702838897705	15436778.147372628
2.3424389362335205	16186618.37124002
2.3453025817871094	16995898.708838318
2.348161458969116	17569726.448800247
2.351015567779541	17728191.66110006
2.353865146636963	17943862.92363035
2.3567099571228027	18131135.863074176
2.3595502376556396	18704627.932780266
2.3623859882354736	20258138.07162331
2.3652172088623047	20448923.20529602
2.368043899536133	17268578.94427566
2.370866537094116	14450124.425945137
2.3736846446990967	15205970.119542029
2.3764986991882324	15583580.444898758
2.3793084621429443	13714790.563670596
2.3821144104003906	13103156.88702568
2.384916305541992	15342454.164422564
2.387714147567749	18839556.18119047
2.3905084133148193	21191149.80952367
2.393299102783203	21278502.0996256
2.3960859775543213	19173040.792795926
2.398869514465332	16793491.458157163
2.4016497135162354	15569120.162834188
2.4044265747070312	15262719.482251018
2.407200336456299	16066100.338037282
2.409970998764038	17398301.567789573
2.4127390384674072	18118542.21874191
2.415503978729248	18601697.351892356
2.418266534805298	19772811.115312766
2.4210267066955566	20758371.677101526
2.4237842559814453	20192872.317491706
2.426539897918701	18846000.003241178
2.429293394088745	18277767.55838369
2.4320452213287354	18639480.38059055
2.4347951412200928	19214599.540997162
2.4375438690185547	19343817.113232
2.440291166305542	18665575.82381919
2.443037271499634	17251202.05698291
2.445782423019409	15611020.775295034
2.4485268592834473	14185574.6589998
2.451270818710327	13700055.225272004
2.454014539718628	15599108.410468066
2.4567582607269287	17996097.94710165
2.4595019817352295	17512347.414583493
2.4622461795806885	17080224.096254054
2.4649908542633057	17130689.627334278
2.4677364826202393	14458946.549505558
2.4704833030700684	10884227.467308037
2.473231554031372	8236938.38587727
2.4759814739227295	6478485.363189438
2.4787333011627197	5913069.153659261
