#wavelength	surface flux
0.6450077295303345	199478.53610614926
0.6472567915916443	311675.71419198735
0.6494921445846558	401205.6727845892
0.6517150402069092	453300.32630619116
0.6539263725280762	504807.00860205136
0.6561272740364075	557684.0690781332
0.6583186388015747	612486.1129116889
0.6605015397071838	668883.4724165822
0.6626768708229065	723262.4429566192
0.6648455858230591	763529.6327993615
0.6670085787773132	738605.1836184914
0.6691668033599854	597062.8482036695
0.6713210344314575	529024.6197876286
0.6734722256660461	732718.3043517565
0.6756211519241333	1005273.4547359376
0.6777685880661011	1163972.701162024
0.6799154281616211	1262267.365324925
0.6820623278617859	1345150.7063536942
0.6842101216316223	1422952.0265198825
0.6863595843315125	1495036.0123232247
0.688511312007904	1555274.1112177344
0.6906660795211792	1591655.8242130869
0.6928245425224304	1628040.0059604256
0.6949873566627502	1702901.4922612298
0.6971551775932312	1785756.1445839566
0.6993286609649658	1840144.6357672506
0.7015084028244019	1875828.297778088
0.7036949396133423	1910691.6753432548
0.7058889269828796	1944985.8594434266
0.7080909013748169	1963507.1044993757
0.710301399230957	1970124.0023408867
0.712520956993103	1966916.2811588857
0.7147500514984131	1930871.5715859854
0.7169892191886902	1866704.820995734
0.7192389369010925	1817480.089850198
0.7214996814727783	1772896.7200474192
0.723771870136261	1700668.4606065499
0.7260559797286987	1611830.3761885944
0.7283523678779602	1515366.548188544
0.7306615710258484	1414882.0603270389
0.7329838871955872	1315965.9119331292
0.7353196740150452	1209066.1211721518
0.7376693487167358	1092331.637445778
0.7400332689285278	971614.727529198
0.7424117922782898	844823.188211461
0.7448052167892456	719068.1493883256
0.7472138404846191	598905.616782778
0.7496379613876343	483494.97962287837
0.7520779371261597	375161.7629051042
0.7545340061187744	276070.68879300676
0.7570064663887024	188461.35067588152
0.7594954967498779	114766.41828737006
0.7620013952255249	57818.839552192294
0.7645244002342224	21191.339078064848
0.7670646905899048	5422.537814515662
0.7696225643157959	6344.404367934916
0.7721980810165405	27617.655027149547
0.7747915983200073	77395.26263940851
0.7774031162261963	147014.50978526156
0.7800329327583313	241185.5066367714
0.7826811671257019	394460.98036315077
0.7853479981422424	597011.6855486963
0.7880334854125977	810236.4046913044
0.7907378077507019	933435.519640443
0.7934610247612	909501.1357143125
0.7962033748626709	1168653.6187424685
0.7989648580551147	1835738.367568905
0.801745593547821	2445067.0850206423
0.8045456409454346	2917221.7415747833
0.8073651194572449	3353110.1485849717
0.8102040886878967	3739038.9509111415
0.8130625486373901	4174619.8093959987
0.8159406185150146	4705781.126581611
0.8188382983207703	5248984.744963493
0.8217556476593018	5880169.21914824
0.8246926665306091	6605228.122791954
0.8276493549346924	7255795.142389733
0.8306257724761963	7827930.120732048
0.8336219191551208	8403982.453136604
0.8366377949714661	8949498.766572306
0.8396733403205872	9622082.328157928
0.8427285552024841	10540106.2137474
0.8458034992218018	11316658.385120792
0.8488980531692505	11320936.72726183
0.8520121574401855	11129738.648205902
0.8551458716392517	12391156.077838745
0.8582990765571594	13882183.745866308
0.8614717125892639	13475509.63978133
0.8646637797355652	12801986.410670538
0.8678751587867737	13495223.350969601
0.8711057901382446	14530583.61132832
0.8743556141853333	15330498.82164917
0.87762451171875	15941289.336285131
0.8809124231338501	16368904.919449737
0.8842192888259888	17131316.360198293
0.8875449895858765	17509042.570794575
0.8908893465995789	16385552.530032534
0.894252359867096	15638225.010403978
0.8976338505744934	17538053.434420954
0.9010337591171265	20497298.261851214
0.9044519662857056	22621302.65022042
0.9078882932662964	24037733.386779312
0.9113426208496094	24688550.90606661
0.914814829826355	24189629.001169134
0.9183048605918884	23824870.320495166
0.9218124747276306	23613775.095640052
0.925337553024292	19696855.628195904
0.9288799166679382	13459850.327782772
0.9324395060539246	10884679.438129455
0.9360161423683167	12178130.584793696
0.9396095871925354	14411732.602915151
0.943219780921936	14476481.69142909
0.9468464851379395	13163178.797157122
0.9504896402359009	13807125.987759111
0.9541489481925964	15687153.255269999
0.9578243494033813	15545622.915857421
0.9615156054496765	12751945.152681654
0.9652225375175476	11136635.694001477
0.9689450263977051	13168299.020725308
0.9726828336715698	17909401.841810696
0.9764357805252075	21568980.227721173
0.9802037477493286	23333787.043311153
0.983986496925354	25075536.20727451
0.9877838492393494	27275306.15910704
0.9915955662727356	29789283.50389087
0.9954215884208679	31300258.90440509
0.9992615580558777	31486333.983640082
1.0031154155731201	31897795.75905454
1.0069829225540161	33881443.36202305
1.0108637809753418	37039536.694792986
1.0147579908370972	40401597.21117786
1.018665075302124	42595039.18744455
1.022585153579712	42687368.481385864
1.0265177488327026	42197264.63946632
1.0304628610610962	43617540.815522626
1.0344202518463135	46907382.91554357
1.0383895635604858	49501174.52110778
1.0423706769943237	50674749.769084565
1.0463634729385376	51312421.48140021
1.0503677129745483	51816437.996694125
1.0543830394744873	53023581.67681764
1.058409333229065	54496141.598802045
1.0624464750289917	55269978.72114666
1.0664942264556885	55547470.55539758
1.0705522298812866	55774313.503673114
1.0746204853057861	56445439.31871133
1.0786986351013184	57321096.784213
1.0827864408493042	57647158.10769146
1.086883783340454	55774766.51545492
1.0909905433654785	50751452.45364388
1.0951062440872192	44171788.21356271
1.0992310047149658	33189074.918230243
1.10336434841156	19849679.40392736
1.1075061559677124	14797932.84508659
1.1116561889648438	14505323.589725476
1.115814208984375	12278780.801416526
1.1199802160263062	10506205.21785332
1.124153733253479	10661618.03459547
1.1283347606658936	11220214.353010235
1.1325229406356812	10240766.56203223
1.1367181539535522	11387698.34348387
1.1409201622009277	15157209.450239826
1.145128846168518	17886360.128099978
1.1493438482284546	15719344.934519423
1.1535650491714478	9179048.081216224
1.1577922105789185	5877187.9209340615
1.1620250940322876	7648334.623981913
1.1662636995315552	10929382.389023522
1.170507550239563	12964580.346419932
1.174756646156311	16347730.60779374
1.1790107488632202	23849758.744201057
1.1832695007324219	31983336.248959377
1.1875330209732056	36980091.41053772
1.191800832748413	42219323.62606266
1.1960728168487549	49380203.55745985
1.2003488540649414	53773587.5992748
1.2046287059783936	55006478.18518628
1.2089121341705322	55831496.32793585
1.2131990194320679	58674427.80183163
1.2174891233444214	63774174.57588909
1.2217823266983032	68584653.86947176
1.2260783910751343	72007538.11890958
1.230377197265625	74272305.87381123
1.2346785068511963	75907796.0597414
1.238982081413269	77541837.0901495
1.2432878017425537	78453455.59022643
1.2475954294204712	76969832.25472814
1.2519049644470215	74256911.48323366
1.256216049194336	77146776.82308915
1.2605286836624146	81569603.46998404
1.2648425102233887	81355578.46854417
1.2691574096679688	80247925.63611719
1.2734732627868652	79815047.06781119
1.2777899503707886	79313605.12324426
1.2821072340011597	77834484.14406002
1.2864248752593994	74739939.4050843
1.2907428741455078	69899852.36476195
1.2950609922409058	67618898.92550792
1.2993791103363037	66404134.0367081
1.303696870803833	62144297.981155336
1.3080145120620728	59608309.79741385
1.3123314380645752	60527677.06294005
1.3166478872299194	61986854.77491189
1.3209635019302368	56278054.068154074
1.3252781629562378	41689741.23368437
1.3295916318893433	26436091.819106612
1.3339040279388428	12787056.294293692
1.3382149934768677	3788755.793533145
1.3425244092941284	1245430.9944258942
1.3468321561813354	1060137.973436608
1.3511382341384888	858310.4000880405
1.3554422855377197	551077.8654824228
1.3597444295883179	478080.978898692
1.3640443086624146	514434.0554922084
1.3683418035507202	715212.2566460535
1.3726370334625244	1443252.6160879275
1.3769296407699585	2286184.3863617526
1.381219506263733	1834275.5094935186
1.3855066299438477	722228.1573871631
1.3897908926010132	340405.9387698186
1.3940720558166504	410260.65530546923
1.3983501195907593	594063.379337458
1.4026249647140503	1080635.5437528274
1.4068963527679443	1453436.4930173638
1.4111642837524414	1101157.1586621061
1.4154287576675415	764430.7277954466
1.419689416885376	742563.8578426235
1.4239463806152344	709359.2446083592
1.4281994104385376	928847.6035081269
1.4324485063552856	1184536.8120008055
1.436693549156189	1288628.3277773994
1.440934419631958	1571124.6692846366
1.4451709985733032	2452592.220972357
1.449403166770935	4015876.530023535
1.453631043434143	5148284.576944062
1.4578542709350586	5739844.339169716
1.4620729684829712	6522976.492309839
1.4662868976593018	6643240.976246524
1.4704961776733398	5925678.389026837
1.4747005701065063	5519105.762568534
1.4788999557495117	6013513.564364198
1.4830944538116455	7821096.361135654
1.4872838258743286	9786000.876649264
1.491468071937561	10307039.636338718
1.4956470727920532	10304568.654889893
1.4998208284378052	11825955.563981783
1.5039892196655273	13816935.049238317
1.5081522464752197	14102916.778812233
1.5123097896575928	14762748.031240404
1.5164618492126465	17871325.85932447
1.5206083059310913	23265311.994232424
1.5247491598129272	27216947.47371033
1.5288842916488647	27333458.636810645
1.5330137014389038	28774705.223599378
1.5371372699737549	31922360.56832928
1.541254997253418	33524229.832440667
1.545366883277893	36071004.63202816
1.5494728088378906	39895404.44955611
1.5535727739334106	41766091.366600364
1.5576666593551636	41690085.72792072
1.561754584312439	44363015.38171257
1.5658363103866577	50403199.72948574
1.5699119567871094	53623771.13908075
1.5739814043045044	51727055.357253194
1.5780447721481323	49613572.16220987
1.582101821899414	53354830.1191757
1.5861525535583496	60218848.18553038
1.5901970863342285	62814990.07779752
1.5942351818084717	61058865.45287545
1.5982669591903687	58694913.61236923
1.6022924184799194	58066273.290035
1.606311559677124	58169767.85924059
1.6103241443634033	57351526.07823903
1.6143304109573364	55439899.82050955
1.6183301210403442	52568255.869650505
1.6223233938217163	49644368.44893477
1.6263102293014526	46781725.150438346
1.6302905082702637	43776654.992619455
1.634264349937439	47175997.9400009
1.638231635093689	58199750.08298669
1.6421923637390137	63988378.040571384
1.646146535873413	58928668.18172036
1.6500942707061768	52220835.250727415
1.6540353298187256	52933293.70233071
1.6579699516296387	55373062.913436145
1.661897897720337	50151640.28521312
1.6658192873001099	37295475.5014246
1.6697341203689575	31234170.05534544
1.6736423969268799	40494078.06901312
1.677544116973877	47649988.60854905
1.6814392805099487	45979947.45322764
1.6853278875350952	43291743.19451562
1.6892099380493164	38675319.90890344
1.6930854320526123	30691538.07753606
1.696954369544983	23851792.164317902
1.7008168697357178	22798477.520940226
1.7046726942062378	24836951.744103506
1.708522081375122	26418328.614587333
1.712364912033081	27133319.269371875
1.7162011861801147	28717785.884343475
1.7200311422348022	31196585.90021681
1.723854422569275	30892266.75163997
1.7276713848114014	27781749.147102877
1.731481909751892	23636001.993366763
1.7352858781814575	19842408.43155433
1.7390835285186768	17826422.959257092
1.7428747415542603	16306671.101815792
1.7466596364974976	14084541.06428065
1.7504380941390991	11877439.018145768
1.7542102336883545	11068031.447577033
1.7579760551452637	13890826.400850534
1.7617355585098267	17246564.973253343
1.7654887437820435	15394740.36853092
1.7692357301712036	10221965.538932241
1.7729763984680176	6052622.751361398
1.776710867881775	3509466.8243033485
1.7804391384124756	2624485.5429324196
1.7841613292694092	2705457.0787446005
1.7878772020339966	2427273.81144447
1.7915871143341064	2667560.904633712
1.7952908277511597	4061437.479921446
1.7989884614944458	4734406.391882824
1.8026801347732544	3126285.072815805
1.806365728378296	1282711.131843806
1.8100452423095703	1268861.0517937664
1.8137187957763672	1684630.2267820246
1.817386507987976	1405825.085313664
1.8210482597351074	1638207.18023476
1.8247040510177612	1812778.0957136315
1.828354001045227	1005645.882365191
1.8319982290267944	713123.9914562921
1.8356364965438843	1368040.4058924052
1.8392690420150757	2058288.1905142358
1.8428958654403687	2079638.8195725866
1.8465168476104736	2047318.2414050198
1.8501322269439697	2342652.954080418
1.8537418842315674	1923878.5125381255
1.8573459386825562	1244033.0637687973
1.860944390296936	985735.881931374
1.864537239074707	681429.3967776397
1.8681244850158691	677774.4432354036
1.871706247329712	1263807.1404620286
1.8752825260162354	2197454.576469368
1.8788533210754395	3737668.845061541
1.8824186325073242	4918729.652328056
1.8859784603118896	4484249.336651239
1.8895330429077148	4071443.5899695405
1.8930821418762207	5320274.776405563
1.8966259956359863	5403650.81070574
1.9001644849777222	2708672.022493258
1.9036977291107178	814980.9173188243
1.9072256088256836	817804.377614256
1.9107483625411987	809851.374814883
1.9142658710479736	465384.3750003911
1.9177782535552979	445384.6771918578
1.9212853908538818	675535.6609398131
1.9247875213623047	703123.6365332168
1.9282845258712769	746684.8031632915
1.9317764043807983	1036565.4011454945
1.9352631568908691	1201083.6062313707
1.9387450218200684	1201982.2530624457
1.942221760749817	1435280.8143740299
1.9456936120986938	1757380.555422453
1.9491604566574097	2120398.9211114137
1.952622413635254	2081985.9383441505
1.956079363822937	1563906.1219964074
1.959531545639038	1449653.3488240493
1.962978720664978	1647682.9471141608
1.966421127319336	2289507.210917172
1.9698586463928223	3479947.607185112
1.9732913970947266	4133039.90483435
1.9767193794250488	4546494.434470975
1.9801424741744995	5567439.202217456
1.9835609197616577	6656511.962868546
1.9869745969772339	6809607.70883007
1.990383505821228	5831048.428639572
1.9937876462936401	5512496.741778193
1.9971871376037598	5749190.73810179
2.000581979751587	6385699.248293757
2.003972291946411	8281576.603229766
2.007357597351074	10069992.410231514
2.0107386112213135	11803501.31199664
2.0141148567199707	12306183.65007238
2.017486572265625	10911810.602113668
2.0208535194396973	11432983.418694522
2.0242159366607666	13863571.691431167
2.027573823928833	15397082.957780557
2.0309269428253174	16642105.39929144
2.034275770187378	18404690.071668446
2.0376198291778564	20026079.139178906
2.040959596633911	21799088.92621466
2.044294595718384	24236716.04600726
2.0476250648498535	26908416.129734185
2.0509510040283203	27429183.139195036
2.054272413253784	25705439.448416244
2.057589530944824	25902321.319161877
2.0609018802642822	28191583.52593259
2.0642096996307373	30289691.25177495
2.0675129890441895	31765968.700304106
2.0708119869232178	32293499.135551758
2.074106216430664	31690477.926158305
2.0773961544036865	31203519.45135466
2.080681324005127	31828853.20719825
2.0839622020721436	32713090.220663074
2.087238311767578	33314147.42180768
2.090510129928589	33191354.549442805
2.0937774181365967	32324315.407532074
2.0970399379730225	31932054.356303375
2.1002981662750244	31840141.78483013
2.1035518646240234	31213673.550514616
2.1068007946014404	30463329.158633187
2.1100454330444336	30875619.197424363
2.1132853031158447	31626838.098129116
2.116520881652832	30821244.849818066
2.1197516918182373	29843230.151362415
2.1229779720306396	30009011.71174351
2.12619948387146	30471458.1154513
2.1294167041778564	30550094.196388647
2.132629156112671	30460089.990060557
2.1358368396759033	29642644.371700343
2.139039993286133	28002348.899300992
2.1422386169433594	26433120.709224805
2.145432472229004	25104736.69399679
2.1486217975616455	24162496.23541839
2.151806354522705	23223271.457490038
2.1549863815307617	23057612.449961968
2.1581614017486572	23242158.29403511
2.16133189201355	22136521.585872144
2.1644976139068604	21026390.303714857
2.167658567428589	20673121.162230145
2.1708147525787354	20645792.16246171
2.173966407775879	20485667.129832115
2.1771130561828613	19874033.579352755
2.1802549362182617	18902368.46437211
2.183391809463501	17588947.604329415
2.1865241527557373	16117648.544639071
2.1896514892578125	14446114.999111189
2.1927738189697266	11874197.618775012
2.1958916187286377	8453695.097277762
2.1990041732788086	5702463.128626048
2.2021119594573975	4440021.439339894
2.2052149772644043	4153060.582269224
2.208312749862671	4402605.715457921
2.2114057540893555	5079670.942387761
2.214493751525879	5706725.598608885
2.217576742172241	5678765.899565385
2.2206547260284424	5361868.32760801
2.2237277030944824	5129900.984928469
2.2267956733703613	4489455.582979288
2.2298583984375	3583222.8106668396
2.2329163551330566	3028352.3422815246
2.235969066619873	2864900.0088657946
2.2390167713165283	2729977.7670133873
2.2420592308044434	2358378.592561474
2.2450966835021973	1972097.819181025
2.248128890991211	2061308.4065468062
2.2511560916900635	2461066.9716509865
2.254178285598755	2674230.7203953634
2.257194995880127	2831544.7217923915
2.260206699371338	2856877.833777358
2.2632133960723877	2466952.5760377105
2.266214609146118	2016471.262816171
2.2692108154296875	1896037.078696463
2.2722020149230957	2135157.854861002
2.2751877307891846	2423954.68369619
2.278168201446533	2413436.7723126966
2.2811436653137207	2204731.9155052877
2.284113883972168	2042270.6145637769
2.287078857421875	1896710.6782970785
2.290038824081421	1757006.7735546657
2.2929933071136475	1756274.8174355796
2.295942783355713	1876795.8946270372
2.298887014389038	2012834.0849929664
2.301826238632202	2218584.573101797
2.304760217666626	2722846.398594973
2.3076889514923096	3566434.6987301456
2.310612440109253	4282258.816031971
2.3135311603546143	4030386.8741663843
2.3164443969726562	2702283.6320936275
2.319352865219116	1568609.3303570491
2.322256088256836	1319987.8947097592
2.3251543045043945	1358279.793770476
2.328047275543213	1334700.667517565
2.330935478210449	1333095.9365607172
2.3338186740875244	1336923.287316227
2.3366971015930176	1304588.4337289198
2.3395702838897705	1267144.8936099526
2.3424389362335205	1193695.8981766533
2.3453025817871094	1078430.385703572
2.348161458969116	1035120.704583295
2.351015567779541	1202542.970191205
2.353865146636963	1557035.6319844215
2.3567099571228027	1881789.5102457623
2.3595502376556396	2124848.665545544
2.3623859882354736	2336451.1433480703
2.3652172088623047	2236063.2678063577
2.368043899536133	1649056.4922873895
2.370866537094116	1035715.9615772911
2.3736846446990967	881670.820556802
2.3764986991882324	1021495.1959612475
2.3793084621429443	1156578.6778951508
2.3821144104003906	1319117.0588023397
2.384916305541992	1595224.8048769566
2.387714147567749	1808918.903883329
2.3905084133148193	1771386.2320077836
2.393299102783203	1691573.5234938113
2.3960859775543213	1748810.7542265193
2.398869514465332	1871522.5609594213
2.4016497135162354	1883422.7399956163
2.4044265747070312	1827660.222967601
2.407200336456299	2044008.8690326307
2.409970998764038	2513710.7675774414
2.4127390384674072	2823125.386047465
2.415503978729248	2945422.4591127774
2.418266534805298	3257764.952106409
2.4210267066955566	3559715.4359841943
2.4237842559814453	3281514.171379855
2.426539897918701	2841541.088735053
2.429293394088745	3073312.577556992
2.4320452213287354	3683736.287192356
2.4347951412200928	3895512.221313548
2.4375438690185547	3766785.4649248775
2.440291166305542	3727010.4904715037
2.443037271499634	3631016.8294809386
2.445782423019409	3197452.5227662544
2.4485268592834473	2651057.703269391
2.451270818710327	2515446.7721132706
2.454014539718628	3004056.996828799
2.4567582607269287	3477149.726768967
2.4595019817352295	3468859.422923426
2.4622461795806885	3646715.4617595365
2.4649908542633057	3728416.8173639146
2.4677364826202393	3004655.279198235
2.4704833030700684	2129364.332817416
2.473231554031372	1587187.6626506567
2.4759814739227295	1265206.5178864438
2.4787333011627197	1143699.9162250606
