#wavelength	surface flux
0.6450077295303345	6128.359035263835
0.6472567915916443	9665.70895370457
0.6494921445846558	12703.449648610009
0.6517150402069092	14749.680725456445
0.6539263725280762	16860.725267790527
0.6561272740364075	19104.367748265835
0.6583186388015747	21504.90443266291
0.6605015397071838	24080.953562478142
0.6626768708229065	26853.708116433347
0.6648455858230591	29787.327553466337
0.6670085787773132	31977.666021268567
0.6691668033599854	31587.94362749251
0.6713210344314575	32416.753232936222
0.6734722256660461	39131.14290458549
0.6756211519241333	46816.601706124966
0.6777685880661011	51917.28793045651
0.6799154281616211	56317.18761159532
0.6820623278617859	60696.982775905686
0.6842101216316223	65106.01713299449
0.6863595843315125	69511.34381716543
0.688511312007904	73723.67098376038
0.6906660795211792	77168.22383891676
0.6928245425224304	80007.13407243774
0.6949873566627502	83993.61858793079
0.6971551775932312	88797.98104377152
0.6993286609649658	92793.13734248304
0.7015084028244019	96402.9806823847
0.7036949396133423	99589.08660720536
0.7058889269828796	101816.56308792882
0.7080909013748169	103270.07331391815
0.710301399230957	104380.88269188715
0.712520956993103	104918.49092041458
0.7147500514984131	103967.05876894704
0.7169892191886902	101463.68469043063
0.7192389369010925	97941.08857413802
0.7214996814727783	93146.30562952401
0.723771870136261	87077.17610251301
0.7260559797286987	80628.10162642658
0.7283523678779602	73955.36695013316
0.7306615710258484	69185.27531245217
0.7329838871955872	67168.12378485317
0.7353196740150452	62990.08590174673
0.7376693487167358	55630.998926019005
0.7400332689285278	47868.66992906996
0.7424117922782898	40401.68015737391
0.7448052167892456	33645.50626298956
0.7472138404846191	27403.11708971575
0.7496379613876343	21503.907560772
0.7520779371261597	16260.125200095903
0.7545340061187744	11803.943767645442
0.7570064663887024	8169.14958755445
0.7594954967498779	5309.904974894312
0.7620013952255249	3094.0610276055754
0.7645244002342224	1472.3692669870247
0.7670646905899048	604.908904564894
0.7696225643157959	644.354469237837
0.7721980810165405	1806.0020482231569
0.7747915983200073	4173.664643863694
0.7774031162261963	7294.401288351846
0.7800329327583313	11568.179874549522
0.7826811671257019	18815.057265458152
0.7853479981422424	29241.917985024375
0.7880334854125977	41625.42647456398
0.7907378077507019	50755.471306219726
0.7934610247612	53124.68051482897
0.7962033748626709	71820.80497987113
0.7989648580551147	115235.38042531481
0.801745593547821	158300.9772453633
0.8045456409454346	196011.24465649063
0.8073651194572449	233450.7912377294
0.8102040886878967	269598.7854903262
0.8130625486373901	314218.1857240355
0.8159406185150146	373600.6659566298
0.8188382983207703	443841.0543610203
0.8217556476593018	524570.745366688
0.8246926665306091	604269.2378563086
0.8276493549346924	672070.0096948496
0.8306257724761963	753306.3979473244
0.8336219191551208	867598.6438846561
0.8366377949714661	979761.3890824416
0.8396733403205872	1079168.1698378373
0.8427285552024841	1195697.9598622709
0.8458034992218018	1323734.286786655
0.8488980531692505	1371645.941031069
0.8520121574401855	1386836.861888358
0.8551458716392517	1626734.8682998514
0.8582990765571594	1985844.486775453
0.8614717125892639	2221303.5090349903
0.8646637797355652	2418518.169646725
0.8678751587867737	2666175.547634272
0.8711057901382446	2936660.2464412805
0.8743556141853333	3187467.27758869
0.87762451171875	3404303.1592797525
0.8809124231338501	3563372.2016778537
0.8842192888259888	3668679.784986695
0.8875449895858765	3725792.178165102
0.8908893465995789	3544342.0999792116
0.894252359867096	3203681.638789916
0.8976338505744934	3585878.6548002195
0.9010337591171265	4829495.942137524
0.9044519662857056	6002975.171030794
0.9078882932662964	6695330.451904624
0.9113426208496094	6942748.723844684
0.914814829826355	6846565.623884036
0.9183048605918884	6834195.352855915
0.9218124747276306	6484233.000508761
0.925337553024292	4795222.001792833
0.9288799166679382	3285608.0672141863
0.9324395060539246	3132175.3114482393
0.9360161423683167	3241204.9302645656
0.9396095871925354	3124991.8741319105
0.943219780921936	2942699.3579681558
0.9468464851379395	2599065.5830792193
0.9504896402359009	3011025.1788129904
0.9541489481925964	4568520.1316830125
0.9578243494033813	4844972.020661074
0.9615156054496765	3390807.3774974206
0.9652225375175476	2410974.981613933
0.9689450263977051	3491881.805561367
0.9726828336715698	5945816.662454492
0.9764357805252075	7212922.554045882
0.9802037477493286	7775152.468937514
0.983986496925354	9642534.194296816
0.9877838492393494	11695228.442202078
0.9915955662727356	12866560.237802278
0.9954215884208679	13555849.237770187
0.9992615580558777	13318919.87519248
1.0031154155731201	12781381.43602033
1.0069829225540161	13875957.441585971
1.0108637809753418	16686351.141677037
1.0147579908370972	19776367.366830222
1.018665075302124	21781195.40739057
1.022585153579712	22272417.531903747
1.0265177488327026	22930832.317592967
1.0304628610610962	25056724.18078721
1.0344202518463135	27341796.56732665
1.0383895635604858	28924153.532680716
1.0423706769943237	30153633.086623788
1.0463634729385376	30533352.55407652
1.0503677129745483	30790559.957408708
1.0543830394744873	32756114.78493905
1.058409333229065	35215135.982304506
1.0624464750289917	36618687.478892796
1.0664942264556885	36802230.80739929
1.0705522298812866	36203839.02011906
1.0746204853057861	36012149.91071635
1.0786986351013184	35800012.35492187
1.0827864408493042	35637216.78736368
1.086883783340454	32794719.427362982
1.0909905433654785	24785824.106170196
1.0951062440872192	17521569.795253146
1.0992310047149658	12051952.323506713
1.10336434841156	5983237.894620972
1.1075061559677124	3063164.0178162702
1.1116561889648438	2537649.137524424
1.115814208984375	1648035.5927685497
1.1199802160263062	1308935.9607049378
1.124153733253479	1400780.6418183674
1.1283347606658936	1124413.5024183637
1.1325229406356812	899014.5113766812
1.1367181539535522	1863554.0888387503
1.1409201622009277	3706843.63017868
1.145128846168518	4588565.027377758
1.1493438482284546	3649033.9816184
1.1535650491714478	2041078.8026777287
1.1577922105789185	1289390.5464253088
1.1620250940322876	1514705.9011469174
1.1662636995315552	2652549.424407186
1.170507550239563	4281104.320062826
1.174756646156311	6554060.809900681
1.1790107488632202	9794994.562240493
1.1832695007324219	11104275.331953375
1.1875330209732056	10056298.528497657
1.191800832748413	12987181.495552823
1.1960728168487549	19857868.261894282
1.2003488540649414	24213449.41431641
1.2046287059783936	25898301.244114455
1.2089121341705322	26645150.743923116
1.2131990194320679	28311854.485879496
1.2174891233444214	32439466.189648356
1.2217823266983032	35976951.24054186
1.2260783910751343	38465403.59055299
1.230377197265625	41720927.78243627
1.2346785068511963	44109193.409440815
1.238982081413269	44754057.29327227
1.2432878017425537	45633616.54236988
1.2475954294204712	46971189.33411825
1.2519049644470215	47684783.11756244
1.256216049194336	51545980.44474565
1.2605286836624146	53847252.045998536
1.2648425102233887	50074850.38594428
1.2691574096679688	49355674.900386706
1.2734732627868652	53189048.231660426
1.2777899503707886	51966116.8942648
1.2821072340011597	45358574.58919003
1.2864248752593994	42916358.93617294
1.2907428741455078	43350189.029735185
1.2950609922409058	41931117.66243429
1.2993791103363037	33980320.20023456
1.303696870803833	25220443.974021666
1.3080145120620728	23304615.641314182
1.3123314380645752	24670563.353325546
1.3166478872299194	27792526.720040236
1.3209635019302368	25051138.867791668
1.3252781629562378	17381476.254503578
1.3295916318893433	11042623.400932219
1.3339040279388428	4968766.412965926
1.3382149934768677	1290756.8386909803
1.3425244092941284	487864.46410647634
1.3468321561813354	310812.40752903104
1.3511382341384888	227475.71022498593
1.3554422855377197	149098.11202948974
1.3597444295883179	148443.03258052666
1.3640443086624146	209272.79281935317
1.3683418035507202	187444.96824324972
1.3726370334625244	135234.50951417384
1.3769296407699585	191091.16062857813
1.381219506263733	207201.04763376457
1.3855066299438477	115837.898078621
1.3897908926010132	152515.21897029062
1.3940720558166504	317577.16632867145
1.3983501195907593	292487.8535300061
1.4026249647140503	207967.55338327042
1.4068963527679443	236558.29644986312
1.4111642837524414	205492.98570275586
1.4154287576675415	158892.92822651923
1.419689416885376	163635.0096372738
1.4239463806152344	193433.16802134062
1.4281994104385376	147295.5965995614
1.4324485063552856	81850.9706484105
1.436693549156189	175863.0926267302
1.440934419631958	496304.46991647
1.4451709985733032	1111947.6896704915
1.449403166770935	1793852.165738265
1.453631043434143	1829954.175083129
1.4578542709350586	1644831.8644698816
1.4620729684829712	2358940.5935426564
1.4662868976593018	3154712.503282074
1.4704961776733398	2173782.4467148418
1.4747005701065063	746988.3428805034
1.4788999557495117	1065503.4478785351
1.4830944538116455	2291610.5224907333
1.4872838258743286	2550481.266691833
1.491468071937561	1824238.75595901
1.4956470727920532	1987888.1858241782
1.4998208284378052	3511071.4574572286
1.5039892196655273	4124979.3601517323
1.5081522464752197	3139145.8818995254
1.5123097896575928	3227740.0210160776
1.5164618492126465	5695323.386506552
1.5206083059310913	8575134.880793389
1.5247491598129272	9596292.407346306
1.5288842916488647	9708331.619329276
1.5330137014389038	10849740.48009322
1.5371372699737549	12020184.803390222
1.541254997253418	12202380.30293873
1.545366883277893	13320004.75334539
1.5494728088378906	14897143.926263673
1.5535727739334106	15584611.20570975
1.5576666593551636	16671879.475736849
1.561754584312439	18840774.90080819
1.5658363103866577	21417146.21417348
1.5699119567871094	22715422.833511755
1.5739814043045044	22254544.221510656
1.5780447721481323	22590671.425052144
1.582101821899414	24847454.429534238
1.5861525535583496	26906942.096661255
1.5901970863342285	26156227.66473322
1.5942351818084717	22914882.0259727
1.5982669591903687	20954810.737311654
1.6022924184799194	20161044.03115866
1.606311559677124	18440775.575421125
1.6103241443634033	17722182.279864546
1.6143304109573364	16360650.789875116
1.6183301210403442	12904301.61546518
1.6223233938217163	10407373.238487195
1.6263102293014526	9357708.442017082
1.6302905082702637	10147448.471061341
1.634264349937439	13123286.089542193
1.638231635093689	16368590.03181209
1.6421923637390137	16967140.599949047
1.646146535873413	12791444.826841189
1.6500942707061768	8865597.942359364
1.6540353298187256	9556399.825623035
1.6579699516296387	10900994.287598278
1.661897897720337	10435430.691185048
1.6658192873001099	7340387.497168582
1.6697341203689575	4140656.5236909217
1.6736423969268799	4235789.363781374
1.677544116973877	4768822.297344612
1.6814392805099487	4461080.20193352
1.6853278875350952	3944626.9749070094
1.6892099380493164	3137072.0084344824
1.6930854320526123	2595957.878586044
1.696954369544983	2081700.8944505805
1.7008168697357178	1672611.3517621923
1.7046726942062378	1651261.60968371
1.708522081375122	2186215.016096799
1.712364912033081	2737296.879280812
1.7162011861801147	3088170.7572772596
1.7200311422348022	3815065.9351259926
1.723854422569275	3860706.1975902678
1.7276713848114014	2990763.2745699803
1.731481909751892	2553098.7782201394
1.7352858781814575	2723473.1024555694
1.7390835285186768	3141148.969047789
1.7428747415542603	3392435.9272108823
1.7466596364974976	2792373.1156111904
1.7504380941390991	1916708.6182970796
1.7542102336883545	2139902.5304979715
1.7579760551452637	3071286.140238851
1.7617355585098267	3532860.2150013396
1.7654887437820435	3218375.7424680437
1.7692357301712036	2327954.599947483
1.7729763984680176	1496326.1021388469
1.776710867881775	930209.4629912743
1.7804391384124756	652043.0499804975
1.7841613292694092	649545.2424949146
1.7878772020339966	732770.9308521542
1.7915871143341064	1164808.5131387517
1.7952908277511597	1497428.559224617
1.7989884614944458	1260415.9941433643
1.8026801347732544	934418.018007579
1.806365728378296	826671.8933233495
1.8100452423095703	773431.3217594346
1.8137187957763672	601116.9539063737
1.817386507987976	408594.0006938708
1.8210482597351074	839374.4957532445
1.8247040510177612	1613255.7627969906
1.828354001045227	1414231.596366459
1.8319982290267944	627252.2221675452
1.8356364965438843	573209.0285211094
1.8392690420150757	1128493.1525161418
1.8428958654403687	1429918.2515993183
1.8465168476104736	1192029.8477961149
1.8501322269439697	764179.3071618174
1.8537418842315674	606906.4295002231
1.8573459386825562	762121.4776771126
1.860944390296936	625764.2520339773
1.864537239074707	224518.60077854042
1.8681244850158691	64681.09368728739
1.871706247329712	142097.6884617727
1.8752825260162354	336619.40211955924
1.8788533210754395	507161.18643306114
1.8824186325073242	780322.838359775
1.8859784603118896	1620385.1190948677
1.8895330429077148	2331939.6369618652
1.8930821418762207	1702663.8516202401
1.8966259956359863	868689.1114603232
1.9001644849777222	817217.6243010248
1.9036977291107178	729188.3388787154
1.9072256088256836	913796.7265671676
1.9107483625411987	1258993.6115798412
1.9142658710479736	880078.9827163062
1.9177782535552979	560592.5491748943
1.9212853908538818	526292.314682238
1.9247875213623047	257453.9787910704
1.9282845258712769	128053.25298343603
1.9317764043807983	504832.6938319989
1.9352631568908691	1229545.9800544775
1.9387450218200684	1319268.5108234093
1.942221760749817	672523.7184784
1.9456936120986938	258130.74724211215
1.9491604566574097	199366.6050768331
1.952622413635254	313906.7757600251
1.956079363822937	772192.0379918203
1.959531545639038	1391831.0434580038
1.962978720664978	1357459.2244348035
1.966421127319336	961845.1828916898
1.9698586463928223	1110290.7864404363
1.9732913970947266	1378469.9510929622
1.9767193794250488	1551630.9814888642
1.9801424741744995	1806839.407403589
1.9835609197616577	1921255.824115625
1.9869745969772339	2302664.759757099
1.990383505821228	2709064.7782684425
1.9937876462936401	2636217.4278674917
1.9971871376037598	2131485.02407183
2.000581979751587	1541494.1580019635
2.003972291946411	1895071.6644517493
2.007357597351074	2752503.650056329
2.0107386112213135	3136961.6632801406
2.0141148567199707	2928133.3537176624
2.017486572265625	2403621.5177018694
2.0208535194396973	2347505.936303904
2.0242159366607666	2658471.330159826
2.027573823928833	2787615.152811147
2.0309269428253174	2803689.0934052565
2.034275770187378	3339653.7302879062
2.0376198291778564	4664556.089895294
2.040959596633911	5793462.868544341
2.044294595718384	6111771.887998619
2.0476250648498535	5911439.494822351
2.0509510040283203	5249257.871557651
2.054272413253784	4716026.402344148
2.057589530944824	5058020.434411137
2.0609018802642822	5830520.69656153
2.0642096996307373	6373734.174881873
2.0675129890441895	6593589.64028463
2.0708119869232178	6550432.963298345
2.074106216430664	6348795.178692306
2.0773961544036865	6330878.872765477
2.080681324005127	6463664.889731012
2.0839622020721436	6389543.869118534
2.087238311767578	6155972.604295901
2.090510129928589	6021148.609220373
2.0937774181365967	6021911.815710142
2.0970399379730225	5903681.785055837
2.1002981662750244	5516471.19416138
2.1035518646240234	5245599.324499003
2.1068007946014404	5282323.471153212
2.1100454330444336	5299905.378028642
2.1132853031158447	5088879.75617792
2.116520881652832	4611125.588559403
2.1197516918182373	4107084.482460237
2.1229779720306396	3816405.22296168
2.12619948387146	3634465.183347398
2.1294167041778564	3602220.217869794
2.132629156112671	3719026.0824989974
2.1358368396759033	3528256.9734761785
2.139039993286133	3154151.6591940084
2.1422386169433594	2866317.2021657694
2.145432472229004	2548199.0549922655
2.1486217975616455	2284707.099478849
2.151806354522705	1997624.6128197438
2.1549863815307617	1978416.8707366798
2.1581614017486572	2296935.6661496474
2.16133189201355	2455996.918467308
2.1644976139068604	2356003.6248262837
2.167658567428589	1998577.962128744
2.1708147525787354	1741223.1091648613
2.173966407775879	1982134.5235673077
2.1771130561828613	2400800.1658948027
2.1802549362182617	2462884.191205011
2.183391809463501	2137203.4511476397
2.1865241527557373	1821513.2570495794
2.1896514892578125	1637308.2741775883
2.1927738189697266	1344228.5826620962
2.1958916187286377	838520.0458043255
2.1990041732788086	371217.1174470014
2.2021119594573975	172706.87530819702
2.2052149772644043	196013.60613744587
2.208312749862671	316988.11348455097
2.2114057540893555	480395.2696087506
2.214493751525879	579796.1244582715
2.217576742172241	477734.60004995955
2.2206547260284424	295635.093143577
2.2237277030944824	208764.786807377
2.2267956733703613	170891.11438358692
2.2298583984375	137750.90071145652
2.2329163551330566	123447.55886424112
2.235969066619873	132154.02876624776
2.2390167713165283	133818.07582119544
2.2420592308044434	111281.60878493963
2.2450966835021973	89693.4568260557
2.248128890991211	84064.83658877152
2.2511560916900635	92062.08848587936
2.254178285598755	132551.90945996888
2.257194995880127	224540.9572787637
2.260206699371338	245370.08649485075
2.2632133960723877	135497.5433043895
2.266214609146118	79042.73494440096
2.2692108154296875	165662.93964352665
2.2722020149230957	259616.31939979605
2.2751877307891846	235293.6577054761
2.278168201446533	161826.43424366228
2.2811436653137207	147251.39833863179
2.284113883972168	151470.26620178192
2.287078857421875	115274.29223949798
2.290038824081421	76243.54260802307
2.2929933071136475	70150.8174067126
2.295942783355713	73331.56686114817
2.298887014389038	77215.93818950347
2.301826238632202	100668.6638105568
2.304760217666626	161945.11396845806
2.3076889514923096	263232.6081210493
2.310612440109253	395905.14166435896
2.3135311603546143	549309.3656000365
2.3164443969726562	557079.9992657052
2.319352865219116	316851.54148755077
2.322256088256836	106623.98023790577
2.3251543045043945	65194.58680318036
2.328047275543213	60319.51122172208
2.330935478210449	51104.6935067662
2.3338186740875244	42256.23839242957
2.3366971015930176	32942.69689981957
2.3395702838897705	26448.644257159416
2.3424389362335205	23348.516998779476
2.3453025817871094	20967.3823022709
2.348161458969116	20700.72686422065
2.351015567779541	39495.43183652166
2.353865146636963	99327.82411953116
2.3567099571228027	185925.6469828893
2.3595502376556396	257920.29435543148
2.3623859882354736	263690.9688675857
2.3652172088623047	176315.74256109624
2.368043899536133	71890.0447084414
2.370866537094116	25343.807371111667
2.3736846446990967	20558.866151136048
2.3764986991882324	24360.028890912203
2.3793084621429443	30248.496123038978
2.3821144104003906	49366.435670727915
2.384916305541992	79932.6597817007
2.387714147567749	92651.88454896177
2.3905084133148193	75406.30665770239
2.393299102783203	57440.174379480486
2.3960859775543213	49434.98618780358
2.398869514465332	51789.0210621974
2.4016497135162354	86354.85160044218
2.4044265747070312	163350.52692801965
2.407200336456299	225482.6456133999
2.409970998764038	215512.42322577426
2.4127390384674072	177084.5050816899
2.415503978729248	175140.50502754207
2.418266534805298	214372.98056500425
2.4210267066955566	245777.42855528687
2.4237842559814453	227382.08384569077
2.426539897918701	213353.41913199695
2.429293394088745	277412.875368378
2.4320452213287354	350088.2334381889
2.4347951412200928	339239.0678082328
2.4375438690185547	316707.697226114
2.440291166305542	353416.83675867546
2.443037271499634	368442.8240776147
2.445782423019409	325691.8632072797
2.4485268592834473	310942.3145767778
2.451270818710327	381066.58120646933
2.454014539718628	486737.8790795813
2.4567582607269287	540296.5570621473
2.4595019817352295	564081.3413457789
2.4622461795806885	652183.1190247763
2.4649908542633057	778818.7233250706
2.4677364826202393	801933.3844622439
2.4704833030700684	656701.8025679402
2.473231554031372	439024.3308110692
2.4759814739227295	277221.32749420335
2.4787333011627197	193289.42957982267
2.481487512588501	143533.82988528823
