#wavelength	surface flux
0.6450077295303345	126649.63044813955
0.6472567915916443	199625.22517629713
0.6494921445846558	260763.0705565047
0.6517150402069092	299680.9725670444
0.6539263725280762	339792.35800070607
0.6561272740364075	382532.8030178552
0.6583186388015747	427641.13450960926
0.6605015397071838	474536.1074283705
0.6626768708229065	521953.1000492159
0.6648455858230591	564134.7387915462
0.6670085787773132	568867.6452603526
0.6691668033599854	492440.9118285271
0.6713210344314575	456951.936261546
0.6734722256660461	606260.5752667682
0.6756211519241333	802023.7950987377
0.6777685880661011	919363.1574819132
0.6799154281616211	1000513.4034120741
0.6820623278617859	1073196.1098351483
0.6842101216316223	1142363.1545595492
0.6863595843315125	1208815.2487209917
0.688511312007904	1271532.1580246363
0.6906660795211792	1327790.8149579251
0.6928245425224304	1379171.9317511476
0.6949873566627502	1433309.0917036936
0.6971551775932312	1487484.6349618325
0.6993286609649658	1533050.8481992616
0.7015084028244019	1570513.9297791922
0.7036949396133423	1599953.0152057793
0.7058889269828796	1619138.1360283385
0.7080909013748169	1628100.1308873242
0.710301399230957	1627774.149447534
0.712520956993103	1616833.8208849311
0.7147500514984131	1591704.2743777826
0.7169892191886902	1552197.395146313
0.7192389369010925	1501335.8931136662
0.7214996814727783	1439262.828845795
0.723771870136261	1364660.944271535
0.7260559797286987	1279672.772402587
0.7283523678779602	1186233.6189002017
0.7306615710258484	1091656.6102557795
0.7329838871955872	999715.5686178333
0.7353196740150452	897214.2182653459
0.7376693487167358	783021.1703776332
0.7400332689285278	667945.6496085038
0.7424117922782898	555561.9321419942
0.7448052167892456	448889.0750141082
0.7472138404846191	349826.31731697253
0.7496379613876343	260165.36726163627
0.7520779371261597	182972.01684994213
0.7545340061187744	120176.86669832845
0.7570064663887024	72475.99084843334
0.7594954967498779	39331.916552480514
0.7620013952255249	18588.894024780628
0.7645244002342224	7187.171038336306
0.7670646905899048	2444.89516182254
0.7696225643157959	2638.2809628644054
0.7721980810165405	8926.233967713488
0.7747915983200073	24565.983752045104
0.7774031162261963	49618.454102869
0.7800329327583313	92052.81290226107
0.7826811671257019	174349.99938647493
0.7853479981422424	297802.04884114995
0.7880334854125977	444517.82163844863
0.7907378077507019	549472.4922664876
0.7934610247612	569973.7433700132
0.7962033748626709	780794.691745605
0.7989648580551147	1281166.4773922756
0.801745593547821	1772636.3824303555
0.8045456409454346	2194237.00100316
0.8073651194572449	2628429.014041158
0.8102040886878967	3084775.6126492843
0.8130625486373901	3592936.663887645
0.8159406185150146	4140245.461104032
0.8188382983207703	4729558.082340361
0.8217556476593018	5461621.927486834
0.8246926665306091	6275700.212179166
0.8276493549346924	7057705.018293896
0.8306257724761963	7892053.308470034
0.8336219191551208	8841998.155459767
0.8366377949714661	9824263.900634106
0.8396733403205872	10823418.073560787
0.8427285552024841	11905956.486290796
0.8458034992218018	12877390.206337532
0.8488980531692505	12857117.143500973
0.8520121574401855	12522229.708433552
0.8551458716392517	14569319.422082646
0.8582990765571594	17412395.25269634
0.8614717125892639	17912871.431089446
0.8646637797355652	17952383.882462643
0.8678751587867737	19368808.207723312
0.8711057901382446	21049976.74630077
0.8743556141853333	22596453.922156535
0.87762451171875	24395718.932884503
0.8809124231338501	26144663.64368982
0.8842192888259888	27851095.225764815
0.8875449895858765	29072431.49291887
0.8908893465995789	28201277.790168814
0.894252359867096	27275125.25058057
0.8976338505744934	31484028.57772927
0.9010337591171265	38948342.78585252
0.9044519662857056	44647366.52921381
0.9078882932662964	48661260.798897386
0.9113426208496094	51995098.646382004
0.914814829826355	54463031.46455052
0.9183048605918884	56729034.604816064
0.9218124747276306	57337091.45023206
0.925337553024292	52408602.575090334
0.9288799166679382	46579243.73976812
0.9324395060539246	46774282.31331097
0.9360161423683167	51058103.46027861
0.9396095871925354	54917221.699685276
0.943219780921936	55464224.84034553
0.9468464851379395	52842428.19152684
0.9504896402359009	55294230.249885425
0.9541489481925964	65498594.61559496
0.9578243494033813	70439852.61023748
0.9615156054496765	64094466.49542365
0.9652225375175476	57051228.15523837
0.9689450263977051	63387210.21595768
0.9726828336715698	79078251.56310473
0.9764357805252075	87549396.26762432
0.9802037477493286	90541926.45081858
0.983986496925354	97002059.39869636
0.9877838492393494	100612210.81950618
0.9915955662727356	97021806.70247525
0.9954215884208679	90635300.01798639
0.9992615580558777	81786313.76189558
1.0031154155731201	76252521.35097852
1.0069829225540161	80113740.30367701
1.0108637809753418	89681462.32480894
1.0147579908370972	100112302.93413737
1.018665075302124	107693857.30637738
1.022585153579712	110900712.56949466
1.0265177488327026	113904865.99332418
1.0304628610610962	121585260.27978654
1.0344202518463135	131266302.20308743
1.0383895635604858	138722034.74970216
1.0423706769943237	144444912.3394538
1.0463634729385376	149999563.55507675
1.0503677129745483	155261761.95565486
1.0543830394744873	161991652.50669977
1.058409333229065	169929909.78857073
1.0624464750289917	176172549.49847555
1.0664942264556885	180455949.66593745
1.0705522298812866	184467706.85542065
1.0746204853057861	189600939.7426644
1.0786986351013184	194214896.84024382
1.0827864408493042	196964959.48392522
1.086883783340454	191311889.06237602
1.0909905433654785	172076192.64655238
1.0951062440872192	150076028.79221606
1.0992310047149658	120288231.83647569
1.10336434841156	80949747.15824986
1.1075061559677124	59623579.132579684
1.1116561889648438	52559084.32082228
1.115814208984375	46493287.10632361
1.1199802160263062	48380424.90407466
1.124153733253479	52762899.88856449
1.1283347606658936	47525949.37698408
1.1325229406356812	36900435.891039476
1.1367181539535522	42224154.077741586
1.1409201622009277	62446731.53823282
1.145128846168518	76379398.92997673
1.1493438482284546	71889450.54226848
1.1535650491714478	57319226.22520232
1.1577922105789185	50697447.09432431
1.1620250940322876	51031631.057893544
1.1662636995315552	55106289.65876945
1.170507550239563	60272364.264779
1.174756646156311	65838121.853496775
1.1790107488632202	79527845.77437592
1.1832695007324219	94791727.2844603
1.1875330209732056	100963237.5280365
1.191800832748413	116906250.70872505
1.1960728168487549	144786808.5662154
1.2003488540649414	160424398.793529
1.2046287059783936	167280590.92953178
1.2089121341705322	171601046.65275437
1.2131990194320679	177661900.2989898
1.2174891233444214	191221169.20375603
1.2217823266983032	203157499.4502603
1.2260783910751343	210112641.69110882
1.230377197265625	216161180.7046977
1.2346785068511963	217525103.90266296
1.238982081413269	206910693.2359361
1.2432878017425537	192383713.26065645
1.2475954294204712	185830562.2686368
1.2519049644470215	184191087.24623147
1.256216049194336	204073026.581498
1.2605286836624146	233538946.75209978
1.2648425102233887	243764693.05037802
1.2691574096679688	251174706.85461748
1.2734732627868652	262152424.94845158
1.2777899503707886	262865750.16770184
1.2821072340011597	254227039.66066247
1.2864248752593994	249924439.3566572
1.2907428741455078	249040874.51248604
1.2950609922409058	244084427.6601086
1.2993791103363037	227088033.45770073
1.303696870803833	212695058.24460799
1.3080145120620728	212162753.5843627
1.3123314380645752	212595895.7432236
1.3166478872299194	209713983.11482415
1.3209635019302368	190291430.72561282
1.3252781629562378	156031978.99068978
1.3295916318893433	111137949.6988381
1.3339040279388428	55128981.942488514
1.3382149934768677	18191705.737666845
1.3425244092941284	8702207.59159024
1.3468321561813354	7564337.543554771
1.3511382341384888	6982550.838348578
1.3554422855377197	5622759.086812197
1.3597444295883179	6716877.402366334
1.3640443086624146	9641347.4594123
1.3683418035507202	9299043.975492725
1.3726370334625244	8214683.795961437
1.3769296407699585	9551587.525225438
1.381219506263733	8145625.764432265
1.3855066299438477	4798200.675413652
1.3897908926010132	4632344.207643768
1.3940720558166504	6124060.237156754
1.3983501195907593	6003143.8596294345
1.4026249647140503	6292713.5466831215
1.4068963527679443	7611510.246683365
1.4111642837524414	7795765.380385318
1.4154287576675415	7743349.948490597
1.419689416885376	7382074.761696612
1.4239463806152344	6848635.104622363
1.4281994104385376	5997439.6576986965
1.4324485063552856	5075647.39559548
1.436693549156189	6327772.924702238
1.440934419631958	9417402.96065505
1.4451709985733032	14302423.000451468
1.449403166770935	19931759.11653967
1.453631043434143	20576268.8983939
1.4578542709350586	19235753.866894804
1.4620729684829712	22781426.018741142
1.4662868976593018	25971008.61119937
1.4704961776733398	20548702.273769278
1.4747005701065063	14122529.0980415
1.4788999557495117	17293246.51487024
1.4830944538116455	26606940.652766336
1.4872838258743286	30321456.829651244
1.491468071937561	26272418.520664144
1.4956470727920532	26482038.631344683
1.4998208284378052	33993345.0142931
1.5039892196655273	37615647.04482681
1.5081522464752197	33797760.44230605
1.5123097896575928	35328097.63673847
1.5164618492126465	48147523.0248966
1.5206083059310913	61851303.80629794
1.5247491598129272	65872939.06123026
1.5288842916488647	65533945.9461765
1.5330137014389038	69806671.2520561
1.5371372699737549	73318309.39528076
1.541254997253418	72533340.47847311
1.545366883277893	75335234.55627927
1.5494728088378906	79890779.05244905
1.5535727739334106	82226354.6154792
1.5576666593551636	86065623.58915555
1.561754584312439	91913896.89807697
1.5658363103866577	97550400.25352886
1.5699119567871094	99933148.66988395
1.5739814043045044	99507205.15016948
1.5780447721481323	101104837.75895064
1.582101821899414	105717467.61738674
1.5861525535583496	109237268.70585339
1.5901970863342285	108068661.62244102
1.5942351818084717	104181259.50616501
1.5982669591903687	103289096.9866322
1.6022924184799194	102847916.81324229
1.606311559677124	99351446.88665143
1.6103241443634033	97685697.47333643
1.6143304109573364	95642527.95583591
1.6183301210403442	90145195.25719143
1.6223233938217163	86173188.11395122
1.6263102293014526	84257560.46151784
1.6302905082702637	84067343.20191866
1.634264349937439	87050203.0145216
1.638231635093689	91314516.53757498
1.6421923637390137	92326742.34597777
1.646146535873413	86549020.12802078
1.6500942707061768	80669552.68797053
1.6540353298187256	80703043.9011273
1.6579699516296387	80840748.28010689
1.661897897720337	75257623.14265189
1.6658192873001099	60215103.87112965
1.6697341203689575	50521472.1656181
1.6736423969268799	58200407.81071216
1.677544116973877	65918983.713598736
1.6814392805099487	65644337.36814793
1.6853278875350952	61806261.68386946
1.6892099380493164	56069786.1198986
1.6930854320526123	50428708.949681535
1.696954369544983	46962927.78589341
1.7008168697357178	46286427.23606816
1.7046726942062378	46430997.79383651
1.708522081375122	47455957.635660246
1.712364912033081	47345251.244757935
1.7162011861801147	45818940.16094283
1.7200311422348022	46335343.01188766
1.723854422569275	46260391.30389871
1.7276713848114014	42594818.94048417
1.731481909751892	37495793.03884933
1.7352858781814575	35006268.29737929
1.7390835285186768	35625979.18856375
1.7428747415542603	34931409.57643578
1.7466596364974976	29738411.89328446
1.7504380941390991	24641951.96257307
1.7542102336883545	24808731.663284473
1.7579760551452637	28965346.588360097
1.7617355585098267	33838272.24212245
1.7654887437820435	33987981.772464454
1.7692357301712036	26977527.055852056
1.7729763984680176	18975656.33102481
1.776710867881775	13375196.317222247
1.7804391384124756	11332278.417103142
1.7841613292694092	11556568.910907941
1.7878772020339966	11381173.105732525
1.7915871143341064	14393972.992520098
1.7952908277511597	17822381.78806582
1.7989884614944458	16362495.972615037
1.8026801347732544	11925029.93936081
1.806365728378296	8601443.381089091
1.8100452423095703	7706214.4268562235
1.8137187957763672	6975748.444305582
1.817386507987976	5655041.770778075
1.8210482597351074	8344508.050968198
1.8247040510177612	13361060.11328071
1.828354001045227	12600813.434932642
1.8319982290267944	8436821.718722522
1.8356364965438843	8666875.868620124
1.8392690420150757	12130347.288253682
1.8428958654403687	13384443.164296517
1.8465168476104736	12197544.078095775
1.8501322269439697	10753142.038540093
1.8537418842315674	9174587.853348976
1.8573459386825562	8433825.426876917
1.860944390296936	6932684.570092597
1.864537239074707	4142058.0529948045
1.8681244850158691	3208600.0086614974
1.871706247329712	5155590.686294058
1.8752825260162354	8169401.822442304
1.8788533210754395	9233776.820519134
1.8824186325073242	9436036.261788402
1.8859784603118896	12289984.517404897
1.8895330429077148	15673906.02467393
1.8930821418762207	14153444.318842478
1.8966259956359863	10743402.898041252
1.9001644849777222	9178155.06668891
1.9036977291107178	7632733.573585355
1.9072256088256836	9576966.968455456
1.9107483625411987	11857285.645287927
1.9142658710479736	8937087.065696858
1.9177782535552979	7710364.352472834
1.9212853908538818	7296101.078656392
1.9247875213623047	3955874.3362876307
1.9282845258712769	2888948.504364076
1.9317764043807983	5964339.2917565955
1.9352631568908691	10651367.279408
1.9387450218200684	11335615.418205304
1.942221760749817	7639247.348852987
1.9456936120986938	5108030.652112031
1.9491604566574097	4708702.717044436
1.952622413635254	5830872.916661281
1.956079363822937	9507233.638515994
1.959531545639038	13179006.688812586
1.962978720664978	11858242.202929884
1.966421127319336	9498085.217190843
1.9698586463928223	10990783.238879185
1.9732913970947266	12272626.265720606
1.9767193794250488	12418934.62350823
1.9801424741744995	13193555.616446689
1.9835609197616577	13489871.617874103
1.9869745969772339	14763501.848621953
1.990383505821228	15940690.059695048
1.9937876462936401	15534325.306674665
1.9971871376037598	13730953.045695376
2.000581979751587	11974597.255163487
2.003972291946411	14288515.354099097
2.007357597351074	17600936.858356446
2.0107386112213135	18787748.829528656
2.0141148567199707	18230987.4321521
2.017486572265625	16294391.836706784
2.0208535194396973	16652838.325952075
2.0242159366607666	18867830.006316926
2.027573823928833	19182674.977917142
2.0309269428253174	18645304.19379608
2.034275770187378	20171354.25016871
2.0376198291778564	23548949.7063775
2.040959596633911	26312333.710160054
2.044294595718384	27209518.91261639
2.0476250648498535	27232917.34834776
2.0509510040283203	26269427.07834088
2.054272413253784	24686451.255559105
2.057589530944824	25118433.44112344
2.0609018802642822	27337242.00373227
2.0642096996307373	28846512.51807698
2.0675129890441895	29241789.564909767
2.0708119869232178	29133312.51472942
2.074106216430664	28766327.138687365
2.0773961544036865	28958733.87873704
2.080681324005127	29519856.783930186
2.0839622020721436	29520952.16488027
2.087238311767578	29055606.25188048
2.090510129928589	28688840.50269577
2.0937774181365967	28751828.419065494
2.0970399379730225	28735083.66622642
2.1002981662750244	27996881.939645257
2.1035518646240234	27346505.944019865
2.1068007946014404	27428947.40153518
2.1100454330444336	27576388.07882974
2.1132853031158447	27302040.453928575
2.116520881652832	26569318.484546244
2.1197516918182373	25856012.60270434
2.1229779720306396	25538654.94136492
2.12619948387146	25257099.134055495
2.1294167041778564	25040975.65962584
2.132629156112671	25066359.946232963
2.1358368396759033	24602287.696069866
2.139039993286133	23781407.44786217
2.1422386169433594	23159460.298926294
2.145432472229004	22620032.995418977
2.1486217975616455	22175199.091991104
2.151806354522705	21599470.522664066
2.1549863815307617	21463377.711475346
2.1581614017486572	21927472.996983152
2.16133189201355	22141870.878074806
2.1644976139068604	21896293.860404756
2.167658567428589	21034455.118724655
2.1708147525787354	20069198.94026346
2.173966407775879	19876217.845625177
2.1771130561828613	20114872.667930562
2.1802549362182617	19793977.863755144
2.183391809463501	18757663.290187463
2.1865241527557373	17732759.620141156
2.1896514892578125	16959937.199945047
2.1927738189697266	15644828.970019503
2.1958916187286377	13072957.750114996
2.1990041732788086	10119739.539354539
2.2021119594573975	8445020.997605193
2.2052149772644043	8127159.15365619
2.208312749862671	8418607.367628869
2.2114057540893555	9467955.998582918
2.214493751525879	10588730.324268186
2.217576742172241	10344427.945938723
2.2206547260284424	9486861.657247106
2.2237277030944824	8744887.519755622
2.2267956733703613	7627057.996012867
2.2298583984375	6704429.022424605
2.2329163551330566	6494148.539191767
2.235969066619873	6784990.697928687
2.2390167713165283	6829853.8565418245
2.2420592308044434	6261730.848839022
2.2450966835021973	5670949.581252414
2.248128890991211	5509413.692487655
2.2511560916900635	5766069.061601175
2.254178285598755	6505997.3688879525
2.257194995880127	7611345.288163433
2.260206699371338	7294478.206928335
2.2632133960723877	5229036.854567713
2.266214609146118	4397678.259024286
2.2692108154296875	5836967.229779156
2.2722020149230957	7256915.405108008
2.2751877307891846	7159907.232262932
2.278168201446533	6606220.891476041
2.2811436653137207	6486521.827782826
2.284113883972168	6139158.292748737
2.287078857421875	5293127.302328598
2.290038824081421	4763639.534930032
2.2929933071136475	4845893.512093626
2.295942783355713	5005671.678396615
2.298887014389038	5250717.186900308
2.301826238632202	5881293.788623605
2.304760217666626	6850204.057461057
2.3076889514923096	8123538.484932266
2.310612440109253	9602401.939756915
2.3135311603546143	10603759.10790632
2.3164443969726562	9400727.563940303
2.319352865219116	6092912.13246056
2.322256088256836	3830757.261916309
2.3251543045043945	3322381.7694060514
2.328047275543213	3186319.2890794314
2.330935478210449	3207408.2755359104
2.3338186740875244	3109917.5629450837
2.3366971015930176	2814342.698622172
2.3395702838897705	2609014.1872403556
2.3424389362335205	2550325.116928626
2.3453025817871094	2511107.166996689
2.348161458969116	2482800.296440763
2.351015567779541	3036591.604250128
2.353865146636963	4684088.05188537
2.3567099571228027	6682761.837071979
2.3595502376556396	7841418.543919729
2.3623859882354736	7605463.295175999
2.3652172088623047	5976050.337928527
2.368043899536133	3862851.3662178535
2.370866537094116	2581298.4041064368
2.3736846446990967	2517616.722662806
2.3764986991882324	2808130.24424884
2.3793084621429443	2830075.4053651374
2.3821144104003906	2946415.94222217
2.384916305541992	3533494.726699344
2.387714147567749	4203047.369139059
2.3905084133148193	4311950.789994644
2.393299102783203	4019027.405651162
2.3960859775543213	3686435.880915215
2.398869514465332	3689184.3509682748
2.4016497135162354	4372912.585801959
2.4044265747070312	5506007.809382642
2.407200336456299	6299574.778326565
2.409970998764038	6274979.661405694
2.4127390384674072	5945631.216641357
2.415503978729248	5852748.431668155
2.418266534805298	5961430.298009057
2.4210267066955566	6008551.063907058
2.4237842559814453	5832698.3785016555
2.426539897918701	5901922.345874523
2.429293394088745	6709975.162752956
2.4320452213287354	7464306.328358992
2.4347951412200928	7202964.949278448
2.4375438690185547	6484072.911306564
2.440291166305542	6200833.541336519
2.443037271499634	6251886.294015269
2.445782423019409	6540331.780576878
2.4485268592834473	7048016.868234007
2.451270818710327	7157648.032763153
2.454014539718628	6904825.506419504
2.4567582607269287	6791322.057961605
2.4595019817352295	6787890.965869604
2.4622461795806885	7497268.572083597
2.4649908542633057	8450533.604614561
2.4677364826202393	7918258.954680958
2.4704833030700684	6000297.485452126
2.473231554031372	4062119.7272225716
2.4759814739227295	2907987.985202944
2.4787333011627197	2481727.304673485
2.481487512588501	2556155.6054427424
