#wavelength	surface flux
0.6450077295303345	10822.4616524964
0.6472567915916443	17082.98411874124
0.6494921445846558	22426.902052986436
0.6517150402069092	25973.924452838284
0.6539263725280762	29671.8729835413
0.6561272740364075	33650.03832211978
0.6583186388015747	37924.61534106829
0.6605015397071838	42504.999323051816
0.6626768708229065	47398.39104647108
0.6648455858230591	52477.49728491542
0.6670085787773132	55959.37908212503
0.6691668033599854	54411.76916087044
0.6713210344314575	55232.221502374865
0.6734722256660461	67504.27475069946
0.6756211519241333	81779.12702818002
0.6777685880661011	90998.52993412237
0.6799154281616211	98729.7012792901
0.6820623278617859	106354.26088613199
0.6842101216316223	113979.65727416294
0.6863595843315125	121578.89940247586
0.688511312007904	128941.55540368693
0.6906660795211792	135438.83407138987
0.6928245425224304	141228.96844727872
0.6949873566627502	148047.02295828535
0.6971551775932312	155480.7948039688
0.6993286609649658	161825.7152372482
0.7015084028244019	167431.93932651656
0.7036949396133423	172257.0089071598
0.7058889269828796	175747.3028526762
0.7080909013748169	178021.58939614307
0.710301399230957	179431.93201729603
0.712520956993103	179676.87422316667
0.7147500514984131	177814.45978585337
0.7169892191886902	173790.78086827838
0.7192389369010925	168290.0007012493
0.7214996814727783	161159.58527168672
0.723771870136261	152076.4081076319
0.7260559797286987	141818.98331438474
0.7283523678779602	130846.55806838218
0.7306615710258484	121232.52628554501
0.7329838871955872	113834.98010119153
0.7353196740150452	104158.34717421806
0.7376693487167358	91388.63270556786
0.7400332689285278	78324.38201219005
0.7424117922782898	65721.2024565012
0.7448052167892456	54071.534281560314
0.7472138404846191	43361.46011724296
0.7496379613876343	33557.528953616515
0.7520779371261597	25020.087871945427
0.7545340061187744	17899.054411369732
0.7570064663887024	12194.131035137807
0.7594954967498779	7795.627941991885
0.7620013952255249	4476.4650381313795
0.7645244002342224	2110.139870581831
0.7670646905899048	865.4515426683123
0.7696225643157959	920.290817881897
0.7721980810165405	2579.7274157421325
0.7747915983200073	6004.754284421418
0.7774031162261963	10595.177080895344
0.7800329327583313	17034.469969456863
0.7826811671257019	28148.95464103504
0.7853479981422424	44256.91865495572
0.7880334854125977	63454.186761275116
0.7907378077507019	77682.09484141722
0.7934610247612	81548.45183520722
0.7962033748626709	111069.19963910471
0.7989648580551147	179593.65586715995
0.801745593547821	248427.40389379754
0.8045456409454346	309805.3454050437
0.8073651194572449	373099.65003707
0.8102040886878967	438016.60561793303
0.8130625486373901	514804.664131544
0.8159406185150146	610007.402156852
0.8188382983207703	719215.9398435446
0.8217556476593018	843032.8940543752
0.8246926665306091	971654.1547083168
0.8276493549346924	1094076.4986455122
0.8306257724761963	1233128.1041577358
0.8336219191551208	1406824.4962797775
0.8366377949714661	1584002.2011640808
0.8396733403205872	1757347.5418564198
0.8427285552024841	1954558.3584818097
0.8458034992218018	2153520.5787471165
0.8488980531692505	2211302.2317166915
0.8520121574401855	2219847.1329539698
0.8551458716392517	2603896.627379927
0.8582990765571594	3187476.3507857756
0.8614717125892639	3566716.389894673
0.8646637797355652	3878471.3590675136
0.8678751587867737	4264080.102822022
0.8711057901382446	4680401.653437961
0.8743556141853333	5088146.295677193
0.87762451171875	5484038.906156203
0.8809124231338501	5836526.105458886
0.8842192888259888	6147127.575744226
0.8875449895858765	6360936.39004134
0.8908893465995789	6109879.656394008
0.894252359867096	5654540.190245474
0.8976338505744934	6405054.801169847
0.9010337591171265	8266378.315907141
0.9044519662857056	9826262.321544098
0.9078882932662964	10791282.091904365
0.9113426208496094	11346581.77612684
0.914814829826355	11577708.253265608
0.9183048605918884	11854923.169811953
0.9218124747276306	11568433.068467584
0.925337553024292	9322819.340229735
0.9288799166679382	6960974.716320632
0.9324395060539246	6589446.603730665
0.9360161423683167	7168873.527933461
0.9396095871925354	7607702.963847443
0.943219780921936	7465284.202339636
0.9468464851379395	6551565.166321994
0.9504896402359009	7027306.74971979
0.9541489481925964	9733511.400988584
0.9578243494033813	10633043.588128023
0.9615156054496765	8482640.10004247
0.9652225375175476	6695456.19353419
0.9689450263977051	8571478.80110101
0.9726828336715698	12848671.960035728
0.9764357805252075	15048845.096709054
0.9802037477493286	16040521.9297278
0.983986496925354	18825740.660263505
0.9877838492393494	21842813.101696417
0.9915955662727356	23580272.54601182
0.9954215884208679	24325083.553506292
0.9992615580558777	23717539.817006286
1.0031154155731201	23088314.420168553
1.0069829225540161	24724206.66725381
1.0108637809753418	28336273.135319896
1.0147579908370972	32176092.937056907
1.018665075302124	34801908.31630778
1.022585153579712	35834178.56336601
1.0265177488327026	36942710.87707262
1.0304628610610962	39521186.61639655
1.0344202518463135	42438984.177289136
1.0383895635604858	44680925.35201823
1.0423706769943237	46473060.65027922
1.0463634729385376	47623583.24155598
1.0503677129745483	48662482.249879725
1.0543830394744873	50974526.79889649
1.058409333229065	53781367.1710743
1.0624464750289917	55709793.9861525
1.0664942264556885	56345922.3694913
1.0705522298812866	56237584.6301867
1.0746204853057861	56633076.951732606
1.0786986351013184	57001874.25734615
1.0827864408493042	57031831.18851388
1.086883783340454	53540370.50816404
1.0909905433654785	43760807.3580246
1.0951062440872192	33927866.39857168
1.0992310047149658	24351595.633748993
1.10336434841156	13178122.403571784
1.1075061559677124	7697110.728362406
1.1116561889648438	6487808.508515275
1.115814208984375	4798664.252958064
1.1199802160263062	4402324.170005141
1.124153733253479	4821715.8023673855
1.1283347606658936	4091895.1435232684
1.1325229406356812	3238419.4472409836
1.1367181539535522	5336911.726767514
1.1409201622009277	9475647.136725154
1.145128846168518	11458617.42983147
1.1493438482284546	9494538.338061577
1.1535650491714478	5978550.206902529
1.1577922105789185	4436253.488886406
1.1620250940322876	5007556.375429119
1.1662636995315552	7314886.775758477
1.170507550239563	10401704.365148846
1.174756646156311	14218182.762099018
1.1790107488632202	19660936.433901284
1.1832695007324219	22594155.483636912
1.1875330209732056	21661170.879683007
1.191800832748413	26313775.757565007
1.1960728168487549	36802290.80898632
1.2003488540649414	43331315.00000934
1.2046287059783936	46140494.37660631
1.2089121341705322	47588816.47250044
1.2131990194320679	49897448.663522094
1.2174891233444214	55462804.9883861
1.2217823266983032	60464337.16443399
1.2260783910751343	63777810.03214605
1.230377197265625	67449153.0226174
1.2346785068511963	70004939.300624
1.238982081413269	70028654.7646288
1.2432878017425537	69760257.85562949
1.2475954294204712	70468152.61623801
1.2519049644470215	70980978.01892373
1.256216049194336	76366818.13953502
1.2605286836624146	81633284.47660913
1.2648425102233887	80044695.78662033
1.2691574096679688	80756269.33777507
1.2734732627868652	85353200.18287896
1.2777899503707886	84263880.46047813
1.2821072340011597	77485080.54318695
1.2864248752593994	74558797.94033916
1.2907428741455078	74253893.23577616
1.2950609922409058	71627244.22627929
1.2993791103363037	61649538.52010844
1.303696870803833	52129946.49424426
1.3080145120620728	50902168.63611758
1.3123314380645752	52199234.76675617
1.3166478872299194	54359349.00473057
1.3209635019302368	48703603.228089616
1.3252781629562378	36486645.498379126
1.3295916318893433	24377185.735245187
1.3339040279388428	11275249.544904158
1.3382149934768677	3078348.5361882355
1.3425244092941284	1180834.8272668289
1.3468321561813354	859190.6218446934
1.3511382341384888	700722.9928760262
1.3554422855377197	498755.5956632279
1.3597444295883179	550471.1755546541
1.3640443086624146	807564.567782693
1.3683418035507202	752079.1180797493
1.3726370334625244	574597.380962564
1.3769296407699585	724584.9077045491
1.381219506263733	707809.7302180462
1.3855066299438477	394071.71611329465
1.3897908926010132	420283.7099640654
1.3940720558166504	730420.8382792533
1.3983501195907593	683559.5824617184
1.4026249647140503	597737.2574359733
1.4068963527679443	727229.7752970253
1.4111642837524414	672401.6429602583
1.4154287576675415	584083.0395300454
1.419689416885376	563578.0240066586
1.4239463806152344	559569.8752177245
1.4281994104385376	440935.7892330382
1.4324485063552856	333332.4375544773
1.436693549156189	602938.0302401484
1.440934419631958	1289103.7924881182
1.4451709985733032	2497413.144434243
1.449403166770935	3854295.2632595073
1.453631043434143	3989295.714762837
1.4578542709350586	3673531.6137302495
1.4620729684829712	4790290.603867187
1.4662868976593018	5909927.428419646
1.4704961776733398	4188368.839872431
1.4747005701065063	1859551.5022344661
1.4788999557495117	2562113.5415742877
1.4830944538116455	5012602.212131451
1.4872838258743286	5701220.892000333
1.491468071937561	4402540.040369437
1.4956470727920532	4621791.267315789
1.4998208284378052	7256101.2906260155
1.5039892196655273	8439229.767274665
1.5081522464752197	6888321.769274924
1.5123097896575928	7059951.248081032
1.5164618492126465	11240538.928602915
1.5206083059310913	16182404.327501217
1.5247491598129272	18070272.399419587
1.5288842916488647	18320537.024781514
1.5330137014389038	20010088.981000736
1.5371372699737549	21641293.19208393
1.541254997253418	21781361.16920675
1.545366883277893	23192881.199180968
1.5494728088378906	25336945.922259167
1.5535727739334106	26623922.445292376
1.5576666593551636	28524403.634024333
1.561754584312439	31531290.433132418
1.5658363103866577	34696693.75681684
1.5699119567871094	36162954.30117083
1.5739814043045044	35680362.678150244
1.5780447721481323	36066973.236092724
1.582101821899414	38504786.29782981
1.5861525535583496	40662589.5250013
1.5901970863342285	39887846.895035736
1.5942351818084717	36814102.56327258
1.5982669591903687	35178526.76652426
1.6022924184799194	34265653.538424864
1.606311559677124	32100013.801213153
1.6103241443634033	31188987.999391265
1.6143304109573364	29493808.33171515
1.6183301210403442	25349492.73776098
1.6223233938217163	22275371.634439558
1.6263102293014526	20758242.043367285
1.6302905082702637	21316382.77804705
1.634264349937439	24683239.012157544
1.638231635093689	28462114.848765783
1.6421923637390137	28942348.336734045
1.646146535873413	23727334.490458596
1.6500942707061768	19090903.542851258
1.6540353298187256	20198219.834146585
1.6579699516296387	21756732.392871004
1.661897897720337	20284873.40119587
1.6658192873001099	14476085.798012566
1.6697341203689575	9421451.122793846
1.6736423969268799	10747557.116856333
1.677544116973877	12639855.387507468
1.6814392805099487	12355635.192390386
1.6853278875350952	11153371.673816236
1.6892099380493164	9327243.83487702
1.6930854320526123	7952117.875504241
1.696954369544983	6833338.782670354
1.7008168697357178	6148446.041411704
1.7046726942062378	6146151.951897726
1.708522081375122	7162304.991810969
1.712364912033081	8062476.282520809
1.7162011861801147	8291850.796232294
1.7200311422348022	9215608.871592756
1.723854422569275	9396427.354893526
1.7276713848114014	8054533.534770727
1.731481909751892	7027526.243497194
1.7352858781814575	6978365.537674177
1.7390835285186768	7495690.276934454
1.7428747415542603	7648705.237858879
1.7466596364974976	6316945.712042308
1.7504380941390991	4691522.6766803935
1.7542102336883545	4962664.59586921
1.7579760551452637	6495445.581694337
1.7617355585098267	7497198.335606245
1.7654887437820435	7105557.473066966
1.7692357301712036	5331294.007239329
1.7729763984680176	3495782.865004942
1.776710867881775	2251616.757314182
1.7804391384124756	1743502.5067021966
1.7841613292694092	1781324.5175997976
1.7878772020339966	1880537.4021147282
1.7915871143341064	2675273.8245154726
1.7952908277511597	3369309.2449674197
1.7989884614944458	2943589.798803168
1.8026801347732544	2130621.1411236566
1.806365728378296	1675812.4596502385
1.8100452423095703	1504867.5714087058
1.8137187957763672	1210949.8043055779
1.817386507987976	850045.2254367045
1.8210482597351074	1478604.7473677068
1.8247040510177612	2676936.262930998
1.828354001045227	2442355.533523452
1.8319982290267944	1304156.6902698972
1.8356364965438843	1262100.7687752743
1.8392690420150757	2194264.136344667
1.8428958654403687	2729168.6602666606
1.8465168476104736	2429332.862733664
1.8501322269439697	1810243.9702446046
1.8537418842315674	1474001.1423331315
1.8573459386825562	1596348.5707029013
1.860944390296936	1291185.7641928606
1.864537239074707	543633.5948750667
1.8681244850158691	247254.5399326623
1.871706247329712	490881.2021013297
1.8752825260162354	1018922.7257231011
1.8788533210754395	1387971.027500914
1.8824186325073242	1729050.5144483363
1.8859784603118896	2805267.591545741
1.8895330429077148	3779122.73616522
1.8930821418762207	2994833.457246542
1.8966259956359863	1858333.7420396789
1.9001644849777222	1675033.7347715672
1.9036977291107178	1444080.2696279467
1.9072256088256836	1806463.2236762142
1.9107483625411987	2343751.79466617
1.9142658710479736	1658603.0979848863
1.9177782535552979	1225478.4849064467
1.9212853908538818	1167899.4420523837
1.9247875213623047	582546.2312809752
1.9282845258712769	330762.5039042089
1.9317764043807983	958338.8110597268
1.9352631568908691	2090579.3110258987
1.9387450218200684	2259806.2474662354
1.942221760749817	1310586.3125277085
1.9456936120986938	676846.3418596558
1.9491604566574097	580231.3365297196
1.952622413635254	793056.8874597329
1.956079363822937	1566522.9099096484
1.959531545639038	2523968.7597390804
1.962978720664978	2420782.985688357
1.966421127319336	1855822.99211492
1.9698586463928223	2167412.745667423
1.9732913970947266	2584582.5093114
1.9767193794250488	2800432.53750678
1.9801424741744995	3157440.16214774
1.9835609197616577	3312469.7897167304
1.9869745969772339	3749979.4474746846
1.990383505821228	4199997.624613728
1.9937876462936401	4102045.685617249
1.9971871376037598	3429808.739521451
2.000581979751587	2695192.1629724554
2.003972291946411	3350785.6073400867
2.007357597351074	4604343.7667767685
2.0107386112213135	5159569.9442979125
2.0141148567199707	4921617.292537469
2.017486572265625	4197164.072042761
2.0208535194396973	4096662.1074453425
2.0242159366607666	4534300.097194329
2.027573823928833	4684475.0410026675
2.0309269428253174	4657697.119031518
2.034275770187378	5319327.924910682
2.0376198291778564	6864840.1000512615
2.040959596633911	8088819.992147564
2.044294595718384	8429119.10526327
2.0476250648498535	8286643.300687527
2.0509510040283203	7678015.900719604
2.054272413253784	7123429.483492486
2.057589530944824	7447854.988113131
2.0609018802642822	8241065.289864006
2.0642096996307373	8762376.794505835
2.0675129890441895	8929883.570071675
2.0708119869232178	8861863.321115412
2.074106216430664	8669094.154940518
2.0773961544036865	8661506.743350273
2.080681324005127	8793287.598415814
2.0839622020721436	8732606.497204943
2.087238311767578	8517258.633495806
2.090510129928589	8379716.30228614
2.0937774181365967	8373361.445722021
2.0970399379730225	8262433.704138204
2.1002981662750244	7889219.418630996
2.1035518646240234	7621573.182245954
2.1068007946014404	7656948.418616684
2.1100454330444336	7686704.311734314
2.1132853031158447	7497562.0179852145
2.116520881652832	7050580.250416894
2.1197516918182373	6583910.296964005
2.1229779720306396	6322082.043611287
2.12619948387146	6147849.192753351
2.1294167041778564	6101463.37969387
2.132629156112671	6189987.201100802
2.1358368396759033	5954774.7981072
2.139039993286133	5525887.950034386
2.1422386169433594	5192194.346321395
2.145432472229004	4864075.355932496
2.1486217975616455	4601497.1872533895
2.151806354522705	4263292.585761725
2.1549863815307617	4203842.716546585
2.1581614017486572	4538971.386022054
2.16133189201355	4711760.926414116
2.1644976139068604	4597336.649180813
2.167658567428589	4180313.1834164835
2.1708147525787354	3845258.9207125343
2.173966407775879	4055971.5546833505
2.1771130561828613	4468513.512736395
2.1802549362182617	4466500.5634642625
2.183391809463501	4012558.1702770116
2.1865241527557373	3573619.8934889897
2.1896514892578125	3300460.86682546
2.1927738189697266	2843911.7768284488
2.1958916187286377	1982326.7061030392
2.1990041732788086	1094623.9781102242
2.2021119594573975	674623.3134197396
2.2052149772644043	710919.9083078345
2.208312749862671	949307.897013674
2.2114057540893555	1288761.247882228
2.214493751525879	1517407.2637771738
2.217576742172241	1330594.2104406308
2.2206547260284424	973135.3828086419
2.2237277030944824	776638.9913893366
2.2267956733703613	643170.0930845639
2.2298583984375	533101.2076316389
2.2329163551330566	495442.7228577559
2.235969066619873	528391.0713442756
2.2390167713165283	534355.7900192746
2.2420592308044434	459429.71365924925
2.2450966835021973	385051.23766360467
2.248128890991211	364571.75900162884
2.2511560916900635	393433.4927908727
2.254178285598755	508543.54023676476
2.257194995880127	733641.8730447327
2.260206699371338	749311.6924231439
2.2632133960723877	440733.9040047229
2.266214609146118	301819.4372599965
2.2692108154296875	539361.2302573752
2.2722020149230957	786950.6363994068
2.2751877307891846	741776.709501031
2.278168201446533	584126.6780248479
2.2811436653137207	556763.4682584484
2.284113883972168	548680.9007253033
2.287078857421875	432191.7327904851
2.290038824081421	324611.6807789042
2.2929933071136475	316149.1351842633
2.295942783355713	332205.9512321357
2.298887014389038	354635.25465095666
2.301826238632202	438260.42783415574
2.304760217666626	629008.9190962409
2.3076889514923096	921600.8183627451
2.310612440109253	1247254.25011743
2.3135311603546143	1528469.5118618957
2.3164443969726562	1420406.3889902951
2.319352865219116	806985.5605838066
2.322256088256836	338284.8035344423
2.3251543045043945	258344.8015771677
2.328047275543213	249420.89579701383
2.330935478210449	226973.67215685546
2.3338186740875244	196438.99166193264
2.3366971015930176	159336.28122140706
2.3395702838897705	134424.35064335735
2.3424389362335205	123547.28519161332
2.3453025817871094	114950.20379027791
2.348161458969116	112605.87678671551
2.351015567779541	178502.8119689811
2.353865146636963	382192.9675855317
2.3567099571228027	657605.6696627733
2.3595502376556396	856637.5327617665
2.3623859882354736	851375.7109535825
2.3652172088623047	596122.693879565
2.368043899536133	284635.6442244187
2.370866537094116	129090.99885381969
2.3736846446990967	113587.5418762779
2.3764986991882324	131444.64115247427
2.3793084621429443	150027.3591122523
2.3821144104003906	208514.96665014685
2.384916305541992	307134.00138679857
2.387714147567749	357865.44969662523
2.3905084133148193	315470.19975957257
2.393299102783203	260620.4448610583
2.3960859775543213	229218.27548831396
2.398869514465332	234435.79536561476
2.4016497135162354	336296.8228717
2.4044265747070312	542799.5911839912
2.407200336456299	705827.6228499856
2.409970998764038	693427.6169891047
2.4127390384674072	613341.4523142123
2.415503978729248	615613.6804396939
2.418266534805298	706552.0679206087
2.4210267066955566	772684.0137689891
2.4237842559814453	723473.8369495115
2.426539897918701	695244.7062466773
2.429293394088745	859350.8622546103
2.4320452213287354	1039242.9950763456
2.4347951412200928	1008309.5072762411
2.4375438690185547	926916.1901490572
2.440291166305542	970842.8601202574
2.443037271499634	996432.6956533124
2.445782423019409	935492.0292851009
2.4485268592834473	935033.882239671
2.451270818710327	1053932.2150699096
2.454014539718628	1203623.030930249
2.4567582607269287	1274002.2031751156
2.4595019817352295	1307125.559847457
2.4622461795806885	1488788.814175188
2.4649908542633057	1736208.2318611986
2.4677364826202393	1718870.0371536615
2.4704833030700684	1363738.1073192519
2.473231554031372	913015.8270511833
2.4759814739227295	602173.0169883677
2.4787333011627197	453012.2218326383
2.481487512588501	381852.5959105163
2.4842441082000732	349798.79777166323
