#wavelength	surface flux
0.6450077295303345	266187.65754001634
0.6472567915916443	399750.8743272758
0.6494921445846558	478511.9024839588
0.6517150402069092	496549.4398756023
0.6539263725280762	510972.8890893012
0.6561272740364075	525281.824099894
0.6583186388015747	540154.7953675166
0.6605015397071838	555667.5082428976
0.6626768708229065	570891.793598416
0.6648455858230591	586515.3018262646
0.6670085787773132	601897.6878400199
0.6691668033599854	613345.7983790117
0.6713210344314575	626507.1537553073
0.6734722256660461	647884.8330434916
0.6756211519241333	670015.895149544
0.6777685880661011	688121.6850489625
0.6799154281616211	704559.1699110562
0.6820623278617859	722383.4285684295
0.6842101216316223	742475.1624683931
0.6863595843315125	762181.2344432177
0.688511312007904	780466.8726310186
0.6906660795211792	797378.4327367395
0.6928245425224304	816166.6112610266
0.6949873566627502	839061.246031035
0.6971551775932312	862119.891136716
0.6993286609649658	883578.3780463091
0.7015084028244019	904911.0798011485
0.7036949396133423	926814.1699581526
0.7058889269828796	949393.6208120015
0.7080909013748169	972219.3278622788
0.710301399230957	995412.0248839495
0.712520956993103	1019071.0021016254
0.7147500514984131	1042417.2206901931
0.7169892191886902	1065628.6480608408
0.7192389369010925	1090350.1533550546
0.7214996814727783	1116284.6890895762
0.723771870136261	1142143.2301173802
0.7260559797286987	1168346.4705805862
0.7283523678779602	1195243.187722713
0.7306615710258484	1222990.6060668896
0.7329838871955872	1251904.4154259562
0.7353196740150452	1281227.6935988702
0.7376693487167358	1310954.3896785583
0.7400332689285278	1341396.7765954512
0.7424117922782898	1371961.0547461375
0.7448052167892456	1403118.7225732035
0.7472138404846191	1434924.767750803
0.7496379613876343	1466518.8070372497
0.7520779371261597	1497076.9656498595
0.7545340061187744	1525197.730895558
0.7570064663887024	1547233.638522293
0.7594954967498779	1548131.3787995237
0.7620013952255249	1447352.2329447689
0.7645244002342224	1109884.383088902
0.7670646905899048	697142.3123399783
0.7696225643157959	651696.3759203166
0.7721980810165405	1106015.0110020842
0.7747915983200073	1607626.2029618642
0.7774031162261963	1822175.9897254163
0.7800329327583313	1896653.0848611195
0.7826811671257019	1956214.8148075289
0.7853479981422424	2012685.3671563244
0.7880334854125977	2064253.9562510976
0.7907378077507019	2099249.549824988
0.7934610247612	2099675.0681881434
0.7962033748626709	2133604.9563633515
0.7989648580551147	2232981.8314518686
0.801745593547821	2316331.449086616
0.8045456409454346	2369856.7396353437
0.8073651194572449	2420333.223313201
0.8102040886878967	2468850.8419262166
0.8130625486373901	2521086.031562398
0.8159406185150146	2580894.4164712825
0.8188382983207703	2641690.7797127464
0.8217556476593018	2700097.7640174055
0.8246926665306091	2760275.6632330786
0.8276493549346924	2821848.831064587
0.8306257724761963	2883356.821136902
0.8336219191551208	2946295.862284427
0.8366377949714661	3009042.636993571
0.8396733403205872	3074785.576850064
0.8427285552024841	3147117.388872308
0.8458034992218018	3220311.446687501
0.8488980531692505	3291846.713443212
0.8520121574401855	3364242.0338690276
0.8551458716392517	3438448.5717537715
0.8582990765571594	3511540.7587403073
0.8614717125892639	3578872.172697373
0.8646637797355652	3649680.7570454483
0.8678751587867737	3730558.401414454
0.8711057901382446	3812500.749313629
0.8743556141853333	3894427.200283145
0.87762451171875	3977753.1760913194
0.8809124231338501	4061348.600724601
0.8842192888259888	4147117.0250552716
0.8875449895858765	4229755.68390319
0.8908893465995789	4304906.085632523
0.894252359867096	4385186.48257335
0.8976338505744934	4480931.812535192
0.9010337591171265	4583858.988618819
0.9044519662857056	4683918.229105574
0.9078882932662964	4780572.091548178
0.9113426208496094	4874887.261715418
0.914814829826355	4963712.46584271
0.9183048605918884	5054450.0454495745
0.9218124747276306	5139378.094651059
0.925337553024292	5156153.154482502
0.9288799166679382	5118080.022089091
0.9324395060539246	5165319.403619967
0.9360161423683167	5317436.873170544
0.9396095871925354	5476320.626328525
0.943219780921936	5576146.041507961
0.9468464851379395	5650024.88127589
0.9504896402359009	5765538.200992681
0.9541489481925964	5902840.683171372
0.9578243494033813	5995616.919264299
0.9615156054496765	6034239.73534941
0.9652225375175476	6102920.370197413
0.9689450263977051	6256579.264347408
0.9726828336715698	6476621.542634897
0.9764357805252075	6673948.765110792
0.9802037477493286	6821414.847225859
0.983986496925354	6962163.116675309
0.9877838492393494	7104780.373904365
0.9915955662727356	7251459.04575061
0.9954215884208679	7399522.561438944
0.9992615580558777	7541918.176580841
1.0031154155731201	7678349.070174888
1.0069829225540161	7825633.603244759
1.0108637809753418	7982676.906775162
1.0147579908370972	8139298.303902802
1.018665075302124	8292147.8563089045
1.022585153579712	8432722.629146457
1.0265177488327026	8570618.426213186
1.0304628610610962	8722087.198312622
1.0344202518463135	8880021.688518735
1.0383895635604858	9032646.600773519
1.0423706769943237	9180706.65014006
1.0463634729385376	9329212.003494332
1.0503677129745483	9478784.217516508
1.0543830394744873	9629137.677263357
1.058409333229065	9780696.62003602
1.0624464750289917	9932227.11172851
1.0664942264556885	10083480.388782324
1.0705522298812866	10234918.246028226
1.0746204853057861	10387745.607564129
1.0786986351013184	10542535.060931891
1.0827864408493042	10695139.894548956
1.086883783340454	10828114.168417787
1.0909905433654785	10930139.397462549
1.0951062440872192	10994437.022944253
1.0992310047149658	10908204.198549252
1.10336434841156	10703038.490101658
1.1075061559677124	10699534.339721352
1.1116561889648438	10829546.295095898
1.115814208984375	10882913.918577118
1.1199802160263062	10983332.58609083
1.124153733253479	11218784.543645542
1.1283347606658936	11384078.159714978
1.1325229406356812	11287093.883651286
1.1367181539535522	11440044.678135801
1.1409201622009277	11955413.103096917
1.145128846168518	12299192.447957473
1.1493438482284546	12221404.57001855
1.1535650491714478	11899798.483291725
1.1577922105789185	11861477.90555875
1.1620250940322876	12193325.914311817
1.1662636995315552	12637964.059461853
1.170507550239563	12960971.83677555
1.174756646156311	13280578.518561134
1.1790107488632202	13731022.82354993
1.1832695007324219	14108969.651003122
1.1875330209732056	14361834.341940783
1.191800832748413	14602085.459708128
1.1960728168487549	14874328.418228788
1.2003488540649414	15108907.085561851
1.2046287059783936	15296661.042043636
1.2089121341705322	15464623.955415715
1.2131990194320679	15651338.030755661
1.2174891233444214	15872701.066203775
1.2217823266983032	16091146.141978504
1.2260783910751343	16290617.92010113
1.230377197265625	16476945.621296568
1.2346785068511963	16656747.580124117
1.238982081413269	16840730.12720651
1.2432878017425537	17024230.257380605
1.2475954294204712	17196729.68036894
1.2519049644470215	17361193.651831444
1.256216049194336	17537587.988027833
1.2605286836624146	17711905.95600892
1.2648425102233887	17870352.54180248
1.2691574096679688	18029692.13581195
1.2734732627868652	18191731.44976976
1.2777899503707886	18346700.894589867
1.2821072340011597	18492186.422081277
1.2864248752593994	18625521.02633293
1.2907428741455078	18738516.912486658
1.2950609922409058	18874741.351221956
1.2993791103363037	19020331.587401897
1.303696870803833	19129215.911099464
1.3080145120620728	19262124.838450722
1.3123314380645752	19445893.37784651
1.3166478872299194	19621684.442091692
1.3209635019302368	19645696.135488525
1.3252781629562378	19402361.36488367
1.3295916318893433	18542203.78164092
1.3339040279388428	16389530.365612604
1.3382149934768677	13274903.442984054
1.3425244092941284	11678469.084130894
1.3468321561813354	12258986.29237976
1.3511382341384888	11995026.235009305
1.3554422855377197	10837641.555670643
1.3597444295883179	10625163.447278209
1.3640443086624146	11270318.998314457
1.3683418035507202	12529833.123784317
1.3726370334625244	14349807.287970558
1.3769296407699585	15563498.222048905
1.381219506263733	13980920.181039695
1.3855066299438477	11393913.412583804
1.3897908926010132	10537243.906532556
1.3940720558166504	10569373.231292149
1.3983501195907593	10969913.635225458
1.4026249647140503	12663959.133830573
1.4068963527679443	14088512.95013606
1.4111642837524414	12895582.758254925
1.4154287576675415	12048170.085113991
1.419689416885376	12585452.631449237
1.4239463806152344	12568384.183884691
1.4281994104385376	13064101.482959855
1.4324485063552856	13263920.144196974
1.436693549156189	13030504.768885111
1.440934419631958	14051777.330030268
1.4451709985733032	15936906.731236208
1.449403166770935	17735910.24278269
1.453631043434143	18719010.22753525
1.4578542709350586	19206138.63208733
1.4620729684829712	19719747.552760225
1.4662868976593018	19894010.497468263
1.4704961776733398	19765112.602076996
1.4747005701065063	19893342.33218731
1.4788999557495117	20315291.71258652
1.4830944538116455	20980178.821547024
1.4872838258743286	21629114.518057164
1.491468071937561	21883408.911949508
1.4956470727920532	22062375.544486526
1.4998208284378052	22582828.981726546
1.5039892196655273	23149092.70535531
1.5081522464752197	23317891.68095599
1.5123097896575928	23458637.727988016
1.5164618492126465	23915334.618062466
1.5206083059310913	24581284.971566994
1.5247491598129272	25072821.3753338
1.5288842916488647	25208515.616057824
1.5330137014389038	25414412.35367057
1.5371372699737549	25765363.633541152
1.541254997253418	26033775.66182111
1.545366883277893	26321527.729156457
1.5494728088378906	26619073.36690822
1.5535727739334106	26790417.452161234
1.5576666593551636	26886884.499461718
1.561754584312439	27057646.54317627
1.5658363103866577	27315557.63949018
1.5699119567871094	27547785.73329552
1.5739814043045044	27701585.705870494
1.5780447721481323	27814797.687549066
1.582101821899414	27963579.609978557
1.5861525535583496	28138475.38401437
1.5901970863342285	28295680.835267264
1.5942351818084717	28447056.033299573
1.5982669591903687	28593352.009183638
1.6022924184799194	28735683.424902998
1.606311559677124	28864659.12144615
1.6103241443634033	28980819.986257885
1.6143304109573364	29100161.55284176
1.6183301210403442	29210765.17479883
1.6223233938217163	29323240.08107353
1.6263102293014526	29436289.18811292
1.6302905082702637	29529103.811137438
1.634264349937439	29624065.024804525
1.638231635093689	29730919.238161493
1.6421923637390137	29837907.284561407
1.646146535873413	29935506.02015025
1.6500942707061768	29998523.344775535
1.6540353298187256	30046180.015387077
1.6579699516296387	30083872.35950268
1.661897897720337	30112003.988954663
1.6658192873001099	30164928.939278867
1.6697341203689575	30242023.137601454
1.6736423969268799	30403344.80860611
1.677544116973877	30595122.09079307
1.6814392805099487	30716241.757923417
1.6853278875350952	30797788.016921632
1.6892099380493164	30793661.21458973
1.6930854320526123	30672056.95747047
1.696954369544983	30619346.395641178
1.7008168697357178	30751377.990721982
1.7046726942062378	30842194.93089779
1.708522081375122	30765292.2701896
1.712364912033081	30646907.7701967
1.7162011861801147	30625323.478984356
1.7200311422348022	30697708.03455486
1.723854422569275	30710822.00430059
1.7276713848114014	30568918.058368847
1.731481909751892	30229255.833738223
1.7352858781814575	29810278.586158104
1.7390835285186768	29479151.751859337
1.7428747415542603	29060282.854067646
1.7466596364974976	28455833.728157777
1.7504380941390991	27703412.868096866
1.7542102336883545	27195419.771343134
1.7579760551452637	27990417.849517614
1.7617355585098267	29171041.18298479
1.7654887437820435	28756236.45309904
1.7692357301712036	26995245.903068673
1.7729763984680176	24616468.420731585
1.776710867881775	21931230.02255388
1.7804391384124756	20807873.277431473
1.7841613292694092	20931846.865467343
1.7878772020339966	20292572.430756573
1.7915871143341064	20406874.311942827
1.7952908277511597	21121097.30837204
1.7989884614944458	20056938.7480054
1.8026801347732544	17198548.88386723
1.806365728378296	14276545.899956003
1.8100452423095703	14321819.940609217
1.8137187957763672	16063058.765642589
1.817386507987976	15753226.992811883
1.8210482597351074	16584715.0769519
1.8247040510177612	17417338.09261635
1.828354001045227	15286321.370360125
1.8319982290267944	15323525.792215955
1.8356364965438843	18017854.16360947
1.8392690420150757	20147341.58395538
1.8428958654403687	20650632.945048414
1.8465168476104736	20307559.179537144
1.8501322269439697	19310276.261008848
1.8537418842315674	16408240.625824286
1.8573459386825562	14675180.068617927
1.860944390296936	14560401.008935312
1.864537239074707	14118133.11713029
1.8681244850158691	15788938.935832784
1.871706247329712	18951282.588583883
1.8752825260162354	20989184.29040054
1.8788533210754395	22397586.241037045
1.8824186325073242	23200404.374742188
1.8859784603118896	22730668.517424103
1.8895330429077148	22595658.80209643
1.8930821418762207	23873351.67523933
1.8966259956359863	23708664.271851934
1.9001644849777222	20158347.2065909
1.9036977291107178	16943842.096358277
1.9072256088256836	17367674.145047575
1.9107483625411987	17356902.101275496
1.9142658710479736	14838967.059703182
1.9177782535552979	14608620.076616174
1.9212853908538818	16396046.826493356
1.9247875213623047	16415801.828291357
1.9282845258712769	16589179.46172478
1.9317764043807983	18383992.759649485
1.9352631568908691	19024011.615601704
1.9387450218200684	18053588.069043115
1.942221760749817	17730542.48692768
1.9456936120986938	18048699.283278976
1.9491604566574097	18221515.836902276
1.952622413635254	17648800.694216616
1.956079363822937	16744369.974057887
1.959531545639038	17257580.48933975
1.962978720664978	18129730.53382808
1.966421127319336	19323887.80786558
1.9698586463928223	21297690.68721642
1.9732913970947266	22133828.821623147
1.9767193794250488	22467032.568841156
1.9801424741744995	23757705.72945703
1.9835609197616577	25026253.795455974
1.9869745969772339	25085601.84589909
1.990383505821228	23887324.38757613
1.9937876462936401	23326811.42929377
1.9971871376037598	23413114.386909686
2.000581979751587	23948863.646241054
2.003972291946411	25621768.058924034
2.007357597351074	26834041.85885589
2.0107386112213135	27715968.470095776
2.0141148567199707	28214164.961185135
2.017486572265625	27568316.39471428
2.0208535194396973	27664032.54395032
2.0242159366607666	28847280.18654907
2.027573823928833	29661812.965467107
2.0309269428253174	30135506.792746454
2.034275770187378	30659348.510393105
2.0376198291778564	31039432.353707932
2.040959596633911	31378894.77860479
2.044294595718384	31843691.78825049
2.0476250648498535	32360279.93268192
2.0509510040283203	32568536.604751512
2.054272413253784	32343275.76170102
2.057589530944824	32370442.76707762
2.0609018802642822	32767698.845350146
2.0642096996307373	33135945.906968903
2.0675129890441895	33396740.889311884
2.0708119869232178	33484341.343952697
2.074106216430664	33402539.750045937
2.0773961544036865	33377596.037212115
2.080681324005127	33506982.368380904
2.0839622020721436	33672430.02965133
2.087238311767578	33802915.796835154
2.090510129928589	33814763.65066991
2.0937774181365967	33746492.0604724
2.0970399379730225	33778494.90996611
2.1002981662750244	33862652.72041923
2.1035518646240234	33914295.6271472
2.1068007946014404	34020083.69792588
2.1100454330444336	34205049.52344089
2.1132853031158447	34315327.76547986
2.116520881652832	34267185.65140011
2.1197516918182373	34239955.82460403
2.1229779720306396	34322431.79114771
2.12619948387146	34395059.70503918
2.1294167041778564	34419685.22131014
2.132629156112671	34462964.899814695
2.1358368396759033	34483245.03770963
2.139039993286133	34445883.167520255
2.1422386169433594	34450041.97095158
2.145432472229004	34486292.35799164
2.1486217975616455	34470202.44304161
2.151806354522705	34427819.24990464
2.1549863815307617	34427582.909165025
2.1581614017486572	34483010.730516315
2.16133189201355	34534575.49994548
2.1644976139068604	34543923.75516193
2.167658567428589	34515671.9349141
2.1708147525787354	34455387.55384863
2.173966407775879	34381157.970802665
2.1771130561828613	34355428.940055825
2.1802549362182617	34417347.5229431
2.183391809463501	34493161.06892128
2.1865241527557373	34528219.318039306
2.1896514892578125	34545138.59066351
2.1927738189697266	34513891.72033762
2.1958916187286377	34400222.88706498
2.1990041732788086	34296959.31165015
2.2021119594573975	34291867.92202471
2.2052149772644043	34344891.41915891
2.208312749862671	34397762.85859247
2.2114057540893555	34413953.56882586
2.214493751525879	34365702.03039228
2.217576742172241	34287234.680316836
2.2206547260284424	34267906.17892808
2.2237277030944824	34294522.16277271
2.2267956733703613	34268142.882996514
2.2298583984375	34212332.04441532
2.2329163551330566	34202653.88912301
2.235969066619873	34249153.35453781
2.2390167713165283	34269761.9314577
2.2420592308044434	34129174.956818774
2.2450966835021973	33889445.9468635
2.248128890991211	33785523.052241325
2.2511560916900635	33895256.993971884
2.254178285598755	34068787.48435045
2.257194995880127	34173490.8789716
2.260206699371338	34156391.52949744
2.2632133960723877	33907982.10021009
2.266214609146118	33527472.401304256
2.2692108154296875	33339936.35360138
2.2722020149230957	33448833.76810644
2.2751877307891846	33651510.92065582
2.278168201446533	33621987.8748907
2.2811436653137207	33346019.4369589
2.284113883972168	33227131.298377857
2.287078857421875	33308548.4082868
2.290038824081421	32893398.72145244
2.2929933071136475	31263760.896095302
2.295942783355713	28621122.183516853
2.298887014389038	25875958.0769708
2.301826238632202	23654536.05337274
2.304760217666626	21932846.381711353
2.3076889514923096	20718513.731542822
2.310612440109253	20672558.159324557
2.3135311603546143	21514117.9468251
2.3164443969726562	21838873.179958396
2.319352865219116	21464654.733394295
2.322256088256836	21070038.275285568
2.3251543045043945	20960432.220635924
2.328047275543213	21119662.627906445
2.330935478210449	21550172.79793557
2.3338186740875244	22311702.444002938
2.3366971015930176	23292835.088541396
2.3395702838897705	24344894.196273476
2.3424389362335205	25537092.44616702
2.3453025817871094	26988676.24516289
2.348161458969116	27851240.174081903
2.351015567779541	27250017.251204208
2.353865146636963	25887375.305448182
2.3567099571228027	24802945.445410203
2.3595502376556396	24679832.455891725
2.3623859882354736	25671584.109490026
2.3652172088623047	26050720.32011859
2.368043899536133	24940627.47615543
2.370866537094116	24994261.642686374
2.3736846446990967	26543893.975422088
2.3764986991882324	25794862.553539272
2.3793084621429443	23013255.176483344
2.3821144104003906	21877096.94815226
2.384916305541992	23376724.47839541
2.387714147567749	26181006.042702015
2.3905084133148193	28348282.097107254
2.393299102783203	28512868.34120908
2.3960859775543213	26534103.769686963
2.398869514465332	24061891.473979574
2.4016497135162354	22722972.685752723
2.4044265747070312	22530622.413273867
2.407200336456299	22979756.274852958
2.409970998764038	23447516.48779794
2.4127390384674072	23605920.592297483
2.415503978729248	23843649.595418874
2.418266534805298	24463745.172127556
2.4210267066955566	25023357.1090002
2.4237842559814453	25078631.37146101
2.426539897918701	24712838.860526927
2.429293394088745	24090176.578008067
2.4320452213287354	23612502.833562437
2.4347951412200928	23715997.985058017
2.4375438690185547	23933202.119088624
2.440291166305542	23499174.33260899
2.443037271499634	22462887.32616943
2.445782423019409	21441159.792688657
2.4485268592834473	20636619.242697123
2.451270818710327	20225259.551855005
2.454014539718628	21276917.76129157
2.4567582607269287	22861878.893927526
2.4595019817352295	22638080.224843513
2.4622461795806885	22369191.835643616
2.4649908542633057	22432441.79618058
2.4677364826202393	20519991.412069194
2.4704833030700684	17509543.904571753
2.473231554031372	14716976.776941197
2.4759814739227295	12554648.882249182
