#wavelength	surface flux
0.6450077295303345	236371.36217018234
0.6472567915916443	356913.9818004893
0.6494921445846558	431482.07093388465
0.6517150402069092	452936.4552519812
0.6539263725280762	471035.43761166267
0.6561272740364075	488813.508745585
0.6583186388015747	506843.1475812236
0.6605015397071838	525185.4688634112
0.6626768708229065	543142.0043480924
0.6648455858230591	560177.3605113664
0.6670085787773132	563208.1161536679
0.6691668033599854	527142.7707438538
0.6713210344314575	511088.47612919734
0.6734722256660461	576607.1792611917
0.6756211519241333	647765.0031409496
0.6777685880661011	679851.0294776887
0.6799154281616211	701665.2782704754
0.6820623278617859	723092.0055117563
0.6842101216316223	745802.2788221122
0.6863595843315125	768151.6240491619
0.688511312007904	788913.4461579864
0.6906660795211792	807127.4295263797
0.6928245425224304	826637.1879436534
0.6949873566627502	852249.1624344512
0.6971551775932312	879172.3056857934
0.6993286609649658	903126.5177347503
0.7015084028244019	925923.5010433409
0.7036949396133423	949729.831269266
0.7058889269828796	974624.24290552
0.7080909013748169	998851.6286697788
0.710301399230957	1022931.040203292
0.712520956993103	1047130.020992755
0.7147500514984131	1068313.4205024154
0.7169892191886902	1086991.7143588273
0.7192389369010925	1109101.9187605768
0.7214996814727783	1132942.6444467958
0.723771870136261	1153903.2723488875
0.7260559797286987	1173483.8395031714
0.7283523678779602	1192135.3532736478
0.7306615710258484	1210579.9335366322
0.7329838871955872	1229768.2382563693
0.7353196740150452	1246067.9711058699
0.7376693487167358	1257945.035297117
0.7400332689285278	1264327.6394431842
0.7424117922782898	1260894.9839671485
0.7448052167892456	1246308.4366128163
0.7472138404846191	1216659.053423236
0.7496379613876343	1164011.4048362751
0.7520779371261597	1079554.7547760585
0.7545340061187744	952784.4644319605
0.7570064663887024	775374.8788207475
0.7594954967498779	551264.179550753
0.7620013952255249	312286.0184074701
0.7645244002342224	122663.09308199819
0.7670646905899048	31432.454935210542
0.7696225643157959	36039.93141919088
0.7721980810165405	152362.01470114235
0.7747915983200073	395494.9821058111
0.7774031162261963	678368.6209230673
0.7800329327583313	943258.2004713566
0.7826811671257019	1242091.331396079
0.7853479981422424	1531501.2604925383
0.7880334854125977	1736208.0206387963
0.7907378077507019	1779900.0589192067
0.7934610247612	1607515.049859213
0.7962033748626709	1672447.5132926337
0.7989648580551147	2092943.9668551267
0.801745593547821	2376080.444982265
0.8045456409454346	2484504.131593341
0.8073651194572449	2569073.745616301
0.8102040886878967	2638357.5000083838
0.8130625486373901	2712545.056986261
0.8159406185150146	2806345.3936529392
0.8188382983207703	2900619.98036538
0.8217556476593018	2987222.3521157387
0.8246926665306091	3076804.539548934
0.8276493549346924	3164275.14625655
0.8306257724761963	3245390.627347404
0.8336219191551208	3327553.9941328783
0.8366377949714661	3408478.8544018758
0.8396733403205872	3498929.373860756
0.8427285552024841	3608256.7409453625
0.8458034992218018	3714984.0982428454
0.8488980531692505	3802090.2222306263
0.8520121574401855	3885144.904101814
0.8551458716392517	3995574.151392749
0.8582990765571594	4100908.738086595
0.8614717125892639	4149419.5224929005
0.8646637797355652	4205964.020987836
0.8678751587867737	4323574.974938618
0.8711057901382446	4448734.440695163
0.8743556141853333	4556763.661841046
0.87762451171875	4653512.350301933
0.8809124231338501	4747547.03067407
0.8842192888259888	4857046.114755561
0.8875449895858765	4952836.864641261
0.8908893465995789	4997265.786185701
0.894252359867096	5054963.057539786
0.8976338505744934	5209899.1026158435
0.9010337591171265	5410981.407130766
0.9044519662857056	5584481.52986915
0.9078882932662964	5729392.7950835265
0.9113426208496094	5850149.5491440175
0.914814829826355	5932310.50413685
0.9183048605918884	6020344.588215238
0.9218124747276306	6100260.159626426
0.925337553024292	5917787.580039332
0.9288799166679382	5505906.852174002
0.9324395060539246	5385909.610723124
0.9360161423683167	5668822.895346793
0.9396095871925354	6007852.96261723
0.943219780921936	6094320.865090737
0.9468464851379395	6060993.749175258
0.9504896402359009	6216313.473187972
0.9541489481925964	6470414.724790947
0.9578243494033813	6552065.918100637
0.9615156054496765	6419539.518641156
0.9652225375175476	6403418.139510379
0.9689450263977051	6719634.035509549
0.9726828336715698	7265984.601383298
0.9764357805252075	7696520.173951279
0.9802037477493286	7944399.506397964
0.983986496925354	8182385.318595977
0.9877838492393494	8438397.473568555
0.9915955662727356	8711629.200203137
0.9954215884208679	8957095.045019822
0.9992615580558777	9154470.177367236
1.0031154155731201	9337075.201840319
1.0069829225540161	9562358.262471262
1.0108637809753418	9827136.690450376
1.0147579908370972	10094055.80810301
1.018665075302124	10321966.917608371
1.022585153579712	10472003.971739948
1.0265177488327026	10582310.341940103
1.0304628610610962	10762461.788624482
1.0344202518463135	11055057.87793996
1.0383895635604858	11339486.25409472
1.0423706769943237	11554117.801729096
1.0463634729385376	11739953.530543024
1.0503677129745483	11917603.116718087
1.0543830394744873	12127951.169211335
1.058409333229065	12355201.80591984
1.0624464750289917	12560007.06367443
1.0664942264556885	12747623.176393373
1.0705522298812866	12931985.689552234
1.0746204853057861	13133230.063135352
1.0786986351013184	13344828.41479859
1.0827864408493042	13539856.038200747
1.086883783340454	13661604.273351172
1.0909905433654785	13669454.765161172
1.0951062440872192	13512489.904360658
1.0992310047149658	12730147.2624517
1.10336434841156	11478282.30325991
1.1075061559677124	10998949.731308399
1.1116561889648438	10970727.926721388
1.115814208984375	10595457.302500315
1.1199802160263062	10377305.052950429
1.124153733253479	10722461.806838762
1.1283347606658936	11030768.436023874
1.1325229406356812	10542785.14195855
1.1367181539535522	10798968.093997106
1.1409201622009277	12206490.439744461
1.145128846168518	13046213.931237595
1.1493438482284546	12263258.09726693
1.1535650491714478	10483620.179739056
1.1577922105789185	9883407.064586554
1.1620250940322876	10830735.50651313
1.1662636995315552	12241996.676694993
1.170507550239563	13202091.627583373
1.174756646156311	14152341.553457264
1.1790107488632202	15543592.761211433
1.1832695007324219	16634030.955014953
1.1875330209732056	17247166.899885423
1.191800832748413	17799699.220758613
1.1960728168487549	18450685.05894585
1.2003488540649414	18902654.927497406
1.2046287059783936	19153608.77289077
1.2089121341705322	19415673.2580609
1.2131990194320679	19761608.895639338
1.2174891233444214	20168885.677760474
1.2217823266983032	20560450.282497257
1.2260783910751343	20897568.65008701
1.230377197265625	21186676.086641822
1.2346785068511963	21449192.927745927
1.238982081413269	21728245.70306328
1.2432878017425537	21987703.017914213
1.2475954294204712	22147764.230804633
1.2519049644470215	22257081.684844147
1.256216049194336	22540370.23395335
1.2605286836624146	22866840.20527228
1.2648425102233887	23047040.785893813
1.2691574096679688	23197701.301912844
1.2734732627868652	23377582.607460562
1.2777899503707886	23559002.972514827
1.2821072340011597	23689694.577847015
1.2864248752593994	23717590.388360575
1.2907428741455078	23646150.79745136
1.2950609922409058	23709075.9838136
1.2993791103363037	23806266.780146707
1.303696870803833	23727283.489670523
1.3080145120620728	23757336.128233187
1.3123314380645752	24021137.761837848
1.3166478872299194	24341139.349056546
1.3209635019302368	24065492.35437519
1.3252781629562378	22724196.537252925
1.3295916318893433	19667351.94875775
1.3339040279388428	14096908.073156932
1.3382149934768677	7920357.516190368
1.3425244092941284	4895938.343191691
1.3468321561813354	4953362.3877260545
1.3511382341384888	4413097.41206445
1.3554422855377197	3259335.8591448828
1.3597444295883179	3013050.2586687882
1.3640443086624146	3358239.02489977
1.3683418035507202	4251628.546542349
1.3726370334625244	6464870.144593243
1.3769296407699585	8586042.684543857
1.381219506263733	6879695.76918415
1.3855066299438477	3518957.123851722
1.3897908926010132	2416301.8987752893
1.3940720558166504	2651167.199912881
1.3983501195907593	3218676.1010704623
1.4026249647140503	4892114.6877570255
1.4068963527679443	6261995.538921734
1.4111642837524414	5066314.376389098
1.4154287576675415	3982901.2638449734
1.419689416885376	4074958.8246697946
1.4239463806152344	3989996.540407016
1.4281994104385376	4695230.195502304
1.4324485063552856	5257190.938116185
1.436693549156189	5257054.656605204
1.440934419631958	6150583.67902063
1.4451709985733032	8339762.676289859
1.449403166770935	11312152.566111358
1.453631043434143	13248505.096823717
1.4578542709350586	14146657.337740153
1.4620729684829712	15171994.53757858
1.4662868976593018	15351269.992044399
1.4704961776733398	14644743.950624427
1.4747005701065063	14489417.202282479
1.4788999557495117	15263858.865331667
1.4830944538116455	17133454.829088293
1.4872838258743286	19095036.910919044
1.491468071937561	19648040.485300522
1.4956470727920532	19641563.463628016
1.4998208284378052	20777012.815306045
1.5039892196655273	22298681.19294565
1.5081522464752197	22639661.252613503
1.5123097896575928	23035534.76829411
1.5164618492126465	24516767.57475312
1.5206083059310913	26628622.290370494
1.5247491598129272	28105575.100637507
1.5288842916488647	28343302.493853807
1.5330137014389038	28820707.882450353
1.5371372699737549	29706343.784645602
1.541254997253418	30091871.622418273
1.545366883277893	30545264.071720075
1.5494728088378906	31312850.35320397
1.5535727739334106	31729631.504236296
1.5576666593551636	31633967.390935127
1.561754584312439	31928734.31726591
1.5658363103866577	32947079.143983115
1.5699119567871094	33597802.33847348
1.5739814043045044	33254787.416548796
1.5780447721481323	32611672.640650447
1.582101821899414	33119034.880721655
1.5861525535583496	34498256.449064784
1.5901970863342285	35122810.339616776
1.5942351818084717	34947663.34110039
1.5982669591903687	34640110.85809577
1.6022924184799194	34630083.51072676
1.606311559677124	34889477.84564087
1.6103241443634033	34939273.90322315
1.6143304109573364	34725460.98941782
1.6183301210403442	34450587.8018908
1.6223233938217163	34199024.14457849
1.6263102293014526	33925664.70575631
1.6302905082702637	33540111.066650923
1.634264349937439	34061394.62763532
1.638231635093689	35718315.572267026
1.6421923637390137	36639548.2978246
1.646146535873413	36058081.09197221
1.6500942707061768	35311545.76137142
1.6540353298187256	35660497.57123378
1.6579699516296387	36208206.112015635
1.661897897720337	35231094.62947095
1.6658192873001099	32458440.813428
1.6697341203689575	31428725.31085495
1.6736423969268799	33835143.001121715
1.677544116973877	35580918.49475651
1.6814392805099487	35535579.505625576
1.6853278875350952	35292833.74529132
1.6892099380493164	34586331.9474631
1.6930854320526123	32868656.174759146
1.696954369544983	31128689.72407064
1.7008168697357178	30944134.724974055
1.7046726942062378	31626599.83660351
1.708522081375122	32211194.672291923
1.712364912033081	32673069.981343403
1.7162011861801147	33318441.736143865
1.7200311422348022	34112266.36466041
1.723854422569275	34190680.853216864
1.7276713848114014	33446894.951763503
1.731481909751892	32044440.836706225
1.7352858781814575	30451100.88024633
1.7390835285186768	29366743.979685053
1.7428747415542603	28176207.111309323
1.7466596364974976	26324750.233470276
1.7504380941390991	24085665.923529137
1.7542102336883545	22750531.892116576
1.7579760551452637	25076872.95667996
1.7617355585098267	28103047.450398874
1.7654887437820435	26437647.60358861
1.7692357301712036	21474580.801721152
1.7729763984680176	16033838.531718373
1.776710867881775	11127961.735487796
1.7804391384124756	9214591.97641989
1.7841613292694092	9446433.77886075
1.7878772020339966	8643137.255222429
1.7915871143341064	8955444.519529164
1.7952908277511597	11134087.188599396
1.7989884614944458	11446748.185997296
1.8026801347732544	8142926.720975841
1.806365728378296	4513994.2163753165
1.8100452423095703	4627582.446932238
1.8137187957763672	5919057.284448826
1.817386507987976	5162853.765184426
1.8210482597351074	5923190.503551392
1.8247040510177612	6587452.933401479
1.828354001045227	4204494.5279720845
1.8319982290267944	3533914.440402628
1.8356364965438843	5743364.836284064
1.8392690420150757	7885178.409718283
1.8428958654403687	8103190.934156858
1.8465168476104736	7817219.925576779
1.8501322269439697	7891794.697500675
1.8537418842315674	6151198.953783475
1.8573459386825562	4367850.569774135
1.860944390296936	3830386.0852541286
1.864537239074707	3085969.511160568
1.8681244850158691	3555370.933841325
1.871706247329712	5770201.909010083
1.8752825260162354	8232983.078558633
1.8788533210754395	11098814.744248025
1.8824186325073242	13115717.233931031
1.8859784603118896	12322443.356627591
1.8895330429077148	11606585.376279058
1.8930821418762207	13675459.463695325
1.8966259956359863	13436428.137868896
1.9001644849777222	7979961.346728429
1.9036977291107178	4077911.342398255
1.9072256088256836	4524148.427747688
1.9107483625411987	4487904.42610929
1.9142658710479736	2771286.2109416993
1.9177782535552979	2550377.1945467447
1.9212853908538818	3564921.3746196125
1.9247875213623047	3640695.8461062354
1.9282845258712769	3757471.9735674877
1.9317764043807983	4867774.325168903
1.9352631568908691	5378496.095599416
1.9387450218200684	5042778.901559255
1.942221760749817	5368101.656332307
1.9456936120986938	6075133.808016982
1.9491604566574097	6786172.329411635
1.952622413635254	6526442.121833801
1.956079363822937	5283765.054868247
1.959531545639038	5189049.36046326
1.962978720664978	5756354.63555015
1.966421127319336	7189209.698225802
1.9698586463928223	9768568.730253512
1.9732913970947266	11050460.247690463
1.9767193794250488	11742383.076768346
1.9801424741744995	13693887.780154422
1.9835609197616577	15685862.821065422
1.9869745969772339	15851198.556058923
1.990383505821228	13951251.051865483
1.9937876462936401	13214367.718865663
1.9971871376037598	13564118.27956418
2.000581979751587	14645590.696915293
2.003972291946411	17725891.959666084
2.007357597351074	20202849.57675278
2.0107386112213135	22318110.93930234
2.0141148567199707	23181985.530641228
2.017486572265625	21507208.92286745
2.0208535194396973	21999436.691490643
2.0242159366607666	25027411.93945683
2.027573823928833	26962986.020086642
2.0309269428253174	28188315.80155891
2.034275770187378	29762533.069823902
2.0376198291778564	31027382.187035028
2.040959596633911	32158951.975150425
2.044294595718384	33694698.34142052
2.0476250648498535	35300857.700264394
2.0509510040283203	35671236.34458385
2.054272413253784	34832148.60291633
2.057589530944824	35056134.56326679
2.0609018802642822	36365255.839305274
2.0642096996307373	37462816.25048108
2.0675129890441895	38198856.23028894
2.0708119869232178	38504916.89432686
2.074106216430664	38301585.78053533
2.0773961544036865	38138148.55392522
2.080681324005127	38466656.78613604
2.0839622020721436	38924437.22865343
2.087238311767578	39252437.33850091
2.090510129928589	39236563.94454492
2.0937774181365967	38927952.76709286
2.0970399379730225	38877186.45271914
2.1002981662750244	38936116.62465536
2.1035518646240234	38668887.34311029
2.1068007946014404	38290819.60062096
2.1100454330444336	38582595.27470885
2.1132853031158447	39181573.03863164
2.116520881652832	39049894.8027972
2.1197516918182373	38770260.97576406
2.1229779720306396	38953787.05440944
2.12619948387146	39214267.84208266
2.1294167041778564	39284401.63436266
2.132629156112671	39307084.09533608
2.1358368396759033	39047982.0870324
2.139039993286133	38439168.333504714
2.1422386169433594	37877274.945255786
2.145432472229004	37445128.78351058
2.1486217975616455	37090612.865256906
2.151806354522705	36647285.48718933
2.1549863815307617	36559538.663177565
2.1581614017486572	36676557.539110534
2.16133189201355	36281438.11748047
2.1644976139068604	35880425.827549815
2.167658567428589	35749931.46359774
2.1708147525787354	35680893.326507986
2.173966407775879	35466837.61312128
2.1771130561828613	35113810.706845544
2.1802549362182617	34762202.15922202
2.183391809463501	34216754.24032068
2.1865241527557373	33416945.510040946
2.1896514892578125	32276069.16917593
2.1927738189697266	29949060.017362375
2.1958916187286377	26152487.507375013
2.1990041732788086	22528040.382224217
2.2021119594573975	20512672.269789215
2.2052149772644043	19752887.236887414
2.208312749862671	19995949.983435754
2.2114057540893555	21315795.710624624
2.214493751525879	22604005.783620127
2.217576742172241	22662057.444326416
2.2206547260284424	22223973.4555665
2.2237277030944824	21814964.652966324
2.2267956733703613	20353810.439345144
2.2298583984375	18235219.99572092
2.2329163551330566	16919305.37591416
2.235969066619873	16585376.036841884
2.2390167713165283	16191691.059522308
2.2420592308044434	14781476.843046948
2.2450966835021973	13183676.27399884
2.248128890991211	13350112.954247648
2.2511560916900635	14830839.596329663
2.254178285598755	15745674.022119168
2.257194995880127	16314228.580722684
2.260206699371338	16365971.10707279
2.2632133960723877	14871061.03689275
2.266214609146118	12912411.048291286
2.2692108154296875	12213003.540187303
2.2722020149230957	13075819.427741239
2.2751877307891846	14191051.823044606
2.278168201446533	14092943.524080558
2.2811436653137207	13121198.73021241
2.284113883972168	12339321.418362357
2.287078857421875	11711687.41025941
2.290038824081421	10956640.875025284
2.2929933071136475	10277751.591906188
2.295942783355713	9708931.775556277
2.298887014389038	9194872.720099248
2.301826238632202	8938154.960049704
2.304760217666626	9184751.623762563
2.3076889514923096	9931015.001547774
2.310612440109253	10833516.458435765
2.3135311603546143	10691160.170566825
2.3164443969726562	8649135.349819664
2.319352865219116	6466432.941801462
2.322256088256836	5772675.424526441
2.3251543045043945	5727535.58863296
2.328047275543213	5641040.912883775
2.330935478210449	5748238.53892972
2.3338186740875244	5952266.29523781
2.3366971015930176	6082540.966089495
2.3395702838897705	6186492.498740331
2.3424389362335205	6149187.659986842
2.3453025817871094	5986873.212099657
2.348161458969116	5977223.622033751
2.351015567779541	6471528.612522084
2.353865146636963	7451195.752138905
2.3567099571228027	8283619.296088191
2.3595502376556396	8951333.255153662
2.3623859882354736	9799078.652871562
2.3652172088623047	9688189.297931893
2.368043899536133	7605459.222170071
2.370866537094116	5353511.822697747
2.3736846446990967	4999162.682794464
2.3764986991882324	5415536.706487195
2.3793084621429443	5332574.25997746
2.3821144104003906	5531929.521040382
2.384916305541992	6666329.768605598
2.387714147567749	8020532.962960241
2.3905084133148193	8567182.16582054
2.393299102783203	8447833.139977952
2.3960859775543213	8054131.328727465
2.398869514465332	7712621.649989878
2.4016497135162354	7436452.288052792
2.4044265747070312	7239212.426231947
2.407200336456299	7796289.80644572
2.409970998764038	8924496.147742791
2.4127390384674072	9624911.420885682
2.415503978729248	9972795.00911903
2.418266534805298	10776275.869854199
2.4210267066955566	11458662.08061311
2.4237842559814453	10837455.564115008
2.426539897918701	9733517.58995931
2.429293394088745	9761397.162531046
2.4320452213287354	10646655.406422768
2.4347951412200928	11172782.325316414
2.4375438690185547	11095754.269670356
2.440291166305542	10736371.344937028
2.443037271499634	10026712.159016334
2.445782423019409	8917421.036103465
2.4485268592834473	7789417.238776973
2.451270818710327	7444438.895183667
2.454014539718628	8679049.727371683
2.4567582607269287	10086854.42027766
2.4595019817352295	9847313.11465254
2.4622461795806885	9835036.583994595
2.4649908542633057	9946539.361411972
2.4677364826202393	8180554.70297573
2.4704833030700684	5921411.7224659985
2.473231554031372	4370819.568201826
2.4759814739227295	3388534.205163372
2.4787333011627197	3057647.1783500547
2.481487512588501	3554514.0824248334
