#wavelength	surface flux
0.6450077295303345	2241.7671091347706
0.6472567915916443	3508.630718223703
0.6494921445846558	4561.0455460638905
0.6517150402069092	5238.5158724234825
0.6539263725280762	5920.820902202635
0.6561272740364075	6630.885308270469
0.6583186388015747	7383.882741111551
0.6605015397071838	8192.518973507564
0.6626768708229065	9069.351930591341
0.6648455858230591	10017.340772523161
0.6670085787773132	10846.828932086984
0.6691668033599854	11133.217750219836
0.6713210344314575	11701.018299091751
0.6734722256660461	13542.851038788245
0.6756211519241333	15561.50682463906
0.6777685880661011	17037.114232146876
0.6799154281616211	18401.5752258625
0.6820623278617859	19780.049589752933
0.6842101216316223	21180.44872681987
0.6863595843315125	22593.8702198466
0.688511312007904	23945.260793746074
0.6906660795211792	24988.486565408868
0.6928245425224304	25772.48233668304
0.6949873566627502	27059.280854555698
0.6971551775932312	28751.119069746823
0.6993286609649658	30135.039873231482
0.7015084028244019	31384.816053955594
0.7036949396133423	32523.30396367775
0.7058889269828796	33334.45053832057
0.7080909013748169	33896.326258376226
0.710301399230957	34391.96483673419
0.712520956993103	34722.003350107814
0.7147500514984131	34497.66528026883
0.7169892191886902	33698.22924215454
0.7192389369010925	32568.92309540985
0.7214996814727783	30982.660305730726
0.723771870136261	28863.38860375006
0.7260559797286987	26643.222863384948
0.7283523678779602	24475.960938996002
0.7306615710258484	23285.3882395838
0.7329838871955872	23400.005136057338
0.7353196740150452	22600.66960389535
0.7376693487167358	20399.866020627847
0.7400332689285278	17978.993121460237
0.7424117922782898	15638.347831585534
0.7448052167892456	13562.832509517637
0.7472138404846191	11602.915941652473
0.7496379613876343	9624.203955106632
0.7520779371261597	7746.3177004063855
0.7545340061187744	6020.097907502064
0.7570064663887024	4474.164896048069
0.7594954967498779	3116.8054746881476
0.7620013952255249	1931.338032932282
0.7645244002342224	970.3135730689992
0.7670646905899048	422.58979459793943
0.7696225643157959	448.7626738581708
0.7721980810165405	1186.4382821917245
0.7747915983200073	2615.9379521282344
0.7774031162261963	4381.269198051727
0.7800329327583313	6543.27424180196
0.7826811671257019	9826.087656104986
0.7853479981422424	14242.621204737727
0.7880334854125977	19241.315099935837
0.7907378077507019	22845.491674019348
0.7934610247612	23695.48635797409
0.7962033748626709	30531.906555928854
0.7989648580551147	46454.24032246007
0.801745593547821	61940.51521597644
0.8045456409454346	75262.27517348251
0.8073651194572449	88248.69906446242
0.8102040886878967	100125.88701414454
0.8130625486373901	115058.10002713425
0.8159406185150146	136567.3045791206
0.8188382983207703	163268.30205088298
0.8217556476593018	193890.68059512123
0.8246926665306091	223419.18274666322
0.8276493549346924	248024.8735089692
0.8306257724761963	277992.43786991463
0.8336219191551208	321506.5237164962
0.8366377949714661	364472.8250894466
0.8396733403205872	402718.78648993693
0.8427285552024841	448716.3755775805
0.8458034992218018	501711.85680123424
0.8488980531692505	528691.4558412367
0.8520121574401855	543674.4634188084
0.8551458716392517	637217.7174070602
0.8582990765571594	774685.668514891
0.8614717125892639	873085.1166990583
0.8646637797355652	959945.4485078336
0.8678751587867737	1065270.534409594
0.8711057901382446	1182764.262988156
0.8743556141853333	1292871.695614278
0.87762451171875	1380732.8559888687
0.8809124231338501	1428815.3289985615
0.8842192888259888	1445914.6128832004
0.8875449895858765	1456303.995901286
0.8908893465995789	1388199.0172221095
0.894252359867096	1253400.0838164978
0.8976338505744934	1417621.620901005
0.9010337591171265	1972301.566777373
0.9044519662857056	2521125.8596696276
0.9078882932662964	2843097.3483847105
0.9113426208496094	2935044.072339588
0.914814829826355	2853194.337899096
0.9183048605918884	2836694.675671635
0.9218124747276306	2722698.5727629894
0.925337553024292	1977529.8595098446
0.9288799166679382	1238236.2405135604
0.9324395060539246	1119569.4833056966
0.9360161423683167	1171303.5936500216
0.9396095871925354	1131093.805232072
0.943219780921936	1039964.7062156954
0.9468464851379395	885265.3417203809
0.9504896402359009	1078850.216279601
0.9541489481925964	1762100.2915180405
0.9578243494033813	1872134.4880903433
0.9615156054496765	1235532.8173321832
0.9652225375175476	854469.0975577526
0.9689450263977051	1395575.8596737317
0.9726828336715698	2525054.332026544
0.9764357805252075	3121706.1183880614
0.9802037477493286	3432842.910073556
0.983986496925354	4345740.513659026
0.9877838492393494	5329039.836838989
0.9915955662727356	5973255.162653844
0.9954215884208679	6509503.456424716
0.9992615580558777	6644313.207554651
1.0031154155731201	6557110.756830298
1.0069829225540161	7222647.106921828
1.0108637809753418	8717436.12226091
1.0147579908370972	10310766.142332053
1.018665075302124	11362862.75703168
1.022585153579712	11685310.502255727
1.0265177488327026	12056843.962368123
1.0304628610610962	13083566.825021997
1.0344202518463135	14204311.953872727
1.0383895635604858	15008429.403320216
1.0423706769943237	15590914.533616498
1.0463634729385376	15669711.999494031
1.0503677129745483	15700263.791826725
1.0543830394744873	16624681.159446532
1.058409333229065	17763597.717753578
1.0624464750289917	18356969.770379316
1.0664942264556885	18268681.024259947
1.0705522298812866	17718665.7076884
1.0746204853057861	17441378.102043375
1.0786986351013184	17217757.734954543
1.0827864408493042	17097389.890412048
1.086883783340454	15798284.262579504
1.0909905433654785	11969054.072819486
1.0951062440872192	8318469.041277887
1.0992310047149658	5516364.797327942
1.10336434841156	2617283.927991325
1.1075061559677124	1262057.8281230095
1.1116561889648438	1007983.3291487149
1.115814208984375	602669.6634265978
1.1199802160263062	440006.76995139115
1.124153733253479	460480.89475375606
1.1283347606658936	362104.17195288243
1.1325229406356812	296211.9225636639
1.1367181539535522	675834.1005440577
1.1409201622009277	1392134.8590804702
1.145128846168518	1718051.9276915174
1.1493438482284546	1326279.8583740066
1.1535650491714478	668093.0363433228
1.1577922105789185	354269.298129419
1.1620250940322876	448102.8788645194
1.1662636995315552	897314.4351322197
1.170507550239563	1609123.600005452
1.174756646156311	2731144.9662467344
1.1790107488632202	4331217.660912541
1.1832695007324219	5056240.826748784
1.1875330209732056	4763127.122998471
1.191800832748413	6490877.03720642
1.1960728168487549	10177702.003096363
1.2003488540649414	12634673.902004924
1.2046287059783936	13737338.567135794
1.2089121341705322	14279236.655860974
1.2131990194320679	15167339.311756525
1.2174891233444214	17327273.741975117
1.2217823266983032	19351820.99968908
1.2260783910751343	20953833.81005561
1.230377197265625	22887448.434716046
1.2346785068511963	24336669.811349746
1.238982081413269	25160434.56173666
1.2432878017425537	26272963.7659162
1.2475954294204712	27415060.1196021
1.2519049644470215	28070606.77083383
1.256216049194336	29874459.999659613
1.2605286836624146	30520907.48724334
1.2648425102233887	28214235.73555584
1.2691574096679688	27569616.317997795
1.2734732627868652	29438769.97305288
1.2777899503707886	28622505.630701713
1.2821072340011597	24777288.29376969
1.2864248752593994	23219354.44375702
1.2907428741455078	23231891.51906608
1.2950609922409058	22320995.086769797
1.2993791103363037	17835694.71661997
1.303696870803833	12762229.198708683
1.3080145120620728	11353326.703643324
1.3123314380645752	11999596.96415051
1.3166478872299194	14205116.451062167
1.3209635019302368	13053872.700253721
1.3252781629562378	8704967.038736269
1.3295916318893433	5192293.845475529
1.3339040279388428	2205092.183270402
1.3382149934768677	538274.8597568996
1.3425244092941284	187592.76404450776
1.3468321561813354	100258.3742324485
1.3511382341384888	62112.03368032949
1.3554422855377197	36761.03330048658
1.3597444295883179	34346.81010506815
1.3640443086624146	46426.28838298717
1.3683418035507202	41325.22519190866
1.3726370334625244	30495.656311191604
1.3769296407699585	46560.991207427534
1.381219506263733	52996.6052663493
1.3855066299438477	30180.247634190662
1.3897908926010132	44636.94270943494
1.3940720558166504	97980.09004296256
1.3983501195907593	90383.30714864754
1.4026249647140503	62317.78370349078
1.4068963527679443	68863.28226661161
1.4111642837524414	52637.038560864414
1.4154287576675415	32675.788282995447
1.419689416885376	35551.26941792713
1.4239463806152344	46730.87139077649
1.4281994104385376	35514.06407584823
1.4324485063552856	18334.853589095637
1.436693549156189	52384.24512269976
1.440934419631958	185255.39781971255
1.4451709985733032	463424.4055714226
1.449403166770935	790223.702598012
1.453631043434143	839562.7381506681
1.4578542709350586	798671.3537708727
1.4620729684829712	1186696.9611365725
1.4662868976593018	1586631.4709602243
1.4704961776733398	1062589.9765591088
1.4747005701065063	318362.6506984538
1.4788999557495117	448625.7435876039
1.4830944538116455	992222.6847576431
1.4872838258743286	1078234.760230321
1.491468071937561	736824.8582554465
1.4956470727920532	879863.9253558273
1.4998208284378052	1760215.8935536423
1.5039892196655273	2121322.884152877
1.5081522464752197	1556623.6294791154
1.5123097896575928	1526032.723520332
1.5164618492126465	2718727.6295671165
1.5206083059310913	4243415.826108279
1.5247491598129272	5023728.183578833
1.5288842916488647	5288660.103888057
1.5330137014389038	5873310.715649797
1.5371372699737549	6516078.288735568
1.541254997253418	6714972.693285612
1.545366883277893	7333068.523953137
1.5494728088378906	8287322.168396411
1.5535727739334106	8914696.03940831
1.5576666593551636	9747436.974053806
1.561754584312439	11145132.488711135
1.5658363103866577	12778351.251806047
1.5699119567871094	13619932.283047775
1.5739814043045044	13264832.588530751
1.5780447721481323	13314247.203060677
1.582101821899414	14576077.507954048
1.5861525535583496	15730073.060422882
1.5901970863342285	15199918.165744271
1.5942351818084717	13046381.861615833
1.5982669591903687	11441836.64744382
1.6022924184799194	10646291.977587417
1.606311559677124	9608119.869450213
1.6103241443634033	9189213.142999278
1.6143304109573364	8228748.745042746
1.6183301210403442	6049695.460323677
1.6223233938217163	4495781.868534658
1.6263102293014526	3811900.54126162
1.6302905082702637	4260193.716756214
1.634264349937439	5937089.111789125
1.638231635093689	7739500.862547207
1.6421923637390137	8058780.942672955
1.646146535873413	5732803.221208659
1.6500942707061768	3543002.3003040124
1.6540353298187256	3841397.7430071076
1.6579699516296387	4576286.103763916
1.661897897720337	4484914.994617424
1.6658192873001099	3137836.395415552
1.6697341203689575	1638175.3230074889
1.6736423969268799	1516646.5520680705
1.677544116973877	1565499.2385691034
1.6814392805099487	1344557.5783632682
1.6853278875350952	1173268.3344199096
1.6892099380493164	937718.7474767002
1.6930854320526123	796327.0646002699
1.696954369544983	600659.4410113192
1.7008168697357178	409281.54317869944
1.7046726942062378	388091.93641181604
1.708522081375122	592479.3246862257
1.712364912033081	835030.9083838969
1.7162011861801147	1051929.7300480036
1.7200311422348022	1413765.349336098
1.723854422569275	1392692.0432078904
1.7276713848114014	961114.6210474797
1.731481909751892	807841.655500531
1.7352858781814575	943079.3271590981
1.7390835285186768	1161203.8389518447
1.7428747415542603	1319284.0072348292
1.7466596364974976	1100093.918446153
1.7504380941390991	720623.2882181401
1.7542102336883545	815627.7030099795
1.7579760551452637	1204159.4743782443
1.7617355585098267	1293785.7826477168
1.7654887437820435	1063093.5042422824
1.7692357301712036	738302.6513964775
1.7729763984680176	482656.2217839037
1.776710867881775	306599.3305812795
1.7804391384124756	220081.49460552502
1.7841613292694092	220185.5318883268
1.7878772020339966	251675.65574122375
1.7915871143341064	411085.9123563638
1.7952908277511597	517694.1577166009
1.7989884614944458	403734.44919564127
1.8026801347732544	287361.6082657881
1.806365728378296	294362.4050497491
1.8100452423095703	297931.8365080271
1.8137187957763672	215333.9922404959
1.817386507987976	131712.7312930685
1.8210482597351074	271658.83380321757
1.8247040510177612	534333.8852824
1.828354001045227	474962.7007415678
1.8319982290267944	206946.99375786097
1.8356364965438843	180324.39535762923
1.8392690420150757	392696.22500109725
1.8428958654403687	554697.6682505808
1.8465168476104736	482117.6835828784
1.8501322269439697	282547.65671847336
1.8537418842315674	211438.78265639453
1.8573459386825562	284834.4266484161
1.860944390296936	233432.09368125192
1.864537239074707	77270.83318199778
1.8681244850158691	15619.639623265368
1.871706247329712	33285.51508938723
1.8752825260162354	89710.59439642531
1.8788533210754395	162250.52965935148
1.8824186325073242	297708.50698151323
1.8859784603118896	643615.3003690443
1.8895330429077148	919261.7922958506
1.8930821418762207	648501.1889360177
1.8966259956359863	282580.1739583246
1.9001644849777222	238600.27368302198
1.9036977291107178	221344.2192622861
1.9072256088256836	314272.1900684568
1.9107483625411987	456584.4442810235
1.9142658710479736	311806.8277443895
1.9177782535552979	168303.8105679903
1.9212853908538818	152628.05376326645
1.9247875213623047	75844.22158892496
1.9282845258712769	38665.37450065558
1.9317764043807983	169328.86741565794
1.9352631568908691	420003.74532696715
1.9387450218200684	449078.29502471857
1.942221760749817	227196.08220171308
1.9456936120986938	85737.78744770914
1.9491604566574097	61208.537197853286
1.952622413635254	85913.41479432413
1.956079363822937	216919.36152900424
1.959531545639038	442928.5031542313
1.962978720664978	480574.8480996659
1.966421127319336	360748.1900503305
1.9698586463928223	412783.5389005357
1.9732913970947266	524654.11884601
1.9767193794250488	615551.8484141937
1.9801424741744995	747333.8506261291
1.9835609197616577	817194.5515896406
1.9869745969772339	957672.8016461212
1.990383505821228	1102956.5826314897
1.9937876462936401	1058775.535198547
1.9971871376037598	815002.9920039116
2.000581979751587	556599.7398688544
2.003972291946411	732997.0463611577
2.007357597351074	1159634.6753833578
2.0107386112213135	1369423.3245885263
2.0141148567199707	1272651.6333776065
2.017486572265625	1025048.3151366268
2.0208535194396973	909742.785921561
2.0242159366607666	933415.8989798796
2.027573823928833	1000107.6881735228
2.0309269428253174	1062210.6998686434
2.034275770187378	1317284.0624178015
2.0376198291778564	1888816.5340294254
2.040959596633911	2325739.0279363855
2.044294595718384	2431920.9923486616
2.0476250648498535	2334913.796968577
2.0509510040283203	2057075.2163721195
2.054272413253784	1890645.8436732208
2.057589530944824	2047063.7268515716
2.0609018802642822	2289383.055570703
2.0642096996307373	2439691.153228084
2.0675129890441895	2494010.560077674
2.0708119869232178	2459543.8601729837
2.074106216430664	2382603.28417067
2.0773961544036865	2364210.7528519747
2.080681324005127	2384947.7350648623
2.0839622020721436	2344112.187242566
2.087238311767578	2267236.807242657
2.090510129928589	2228271.328628211
2.0937774181365967	2218484.905557197
2.0970399379730225	2160896.712360681
2.1002981662750244	2022105.884076928
2.1035518646240234	1928324.3602540812
2.1068007946014404	1936537.9367157912
2.1100454330444336	1933868.4962771004
2.1132853031158447	1848410.615594858
2.116520881652832	1664040.9533967432
2.1197516918182373	1461068.9357832698
2.1229779720306396	1328567.824293375
2.12619948387146	1241639.4511745984
2.1294167041778564	1223267.5800798517
2.132629156112671	1271209.1844874586
2.1358368396759033	1205261.6873830033
2.139039993286133	1068291.6821657391
2.1422386169433594	958789.7533928608
2.145432472229004	827340.4865766888
2.1486217975616455	708563.4834598614
2.151806354522705	586042.768719959
2.1549863815307617	587485.6187736507
2.1581614017486572	727081.4704818849
2.16133189201355	791971.3773621965
2.1644976139068604	746001.7266755889
2.167658567428589	597076.6052317705
2.1708147525787354	505464.57977643417
2.173966407775879	642505.5145220445
2.1771130561828613	856564.6179034408
2.1802549362182617	906244.9090938083
2.183391809463501	777506.9646736006
2.1865241527557373	646773.6910290982
2.1896514892578125	577148.4962524046
2.1927738189697266	468929.77299928345
2.1958916187286377	277251.51971553155
2.1990041732788086	106573.9624960961
2.2021119594573975	38421.0675779058
2.2052149772644043	48716.08674666998
2.208312749862671	96498.7470696196
2.2114057540893555	157598.32678143558
2.214493751525879	189345.65925173362
2.217576742172241	146713.73138897782
2.2206547260284424	75965.01215726486
2.2237277030944824	44423.30334318206
2.2267956733703613	36554.76330327226
2.2298583984375	29875.88067121974
2.2329163551330566	25949.957683282064
2.235969066619873	27440.825389148533
2.2390167713165283	27636.145866546096
2.2420592308044434	22257.7125135628
2.2450966835021973	17259.468862320984
2.248128890991211	16024.076670216904
2.2511560916900635	17906.763560478154
2.254178285598755	29438.310502690165
2.257194995880127	58318.28035249065
2.260206699371338	67567.74784779311
2.2632133960723877	36021.67542749434
2.266214609146118	18845.26806891297
2.2692108154296875	46507.50314830821
2.2722020149230957	76970.13517993907
2.2751877307891846	66897.58305761636
2.278168201446533	39139.02107986153
2.2811436653137207	32926.894408343476
2.284113883972168	35953.60997094765
2.287078857421875	26641.31251544496
2.290038824081421	15027.531616024637
2.2929933071136475	12480.590660562195
2.295942783355713	12798.455789570831
2.298887014389038	12738.94096255432
2.301826238632202	16907.851648844815
2.304760217666626	30867.169836448546
2.3076889514923096	56518.086636282984
2.310612440109253	95017.54888614715
2.3135311603546143	149716.73887162004
2.3164443969726562	165885.5957669453
2.319352865219116	96623.34266461205
2.322256088256836	28346.334850892064
2.3251543045043945	13785.331178113514
2.328047275543213	11953.192097318373
2.330935478210449	8991.384162110151
2.3338186740875244	6970.583356495851
2.3366971015930176	5268.980843240815
2.3395702838897705	4027.5112905886244
2.3424389362335205	3377.1651239286484
2.3453025817871094	2882.2687329935443
2.348161458969116	2913.5425267394094
2.351015567779541	7165.675394638481
2.353865146636963	21193.539135337436
2.3567099571228027	43101.69981705823
2.3595502376556396	64365.00543455824
2.3623859882354736	68549.74752297405
2.3652172088623047	44287.20568851108
2.368043899536133	15399.0848554376
2.370866537094116	3927.492209326315
2.3736846446990967	2789.5392742939084
2.3764986991882324	3390.0478150373206
2.3793084621429443	4701.759589767681
2.3821144104003906	9291.537381193311
2.384916305541992	16575.427842546254
2.387714147567749	19160.734405232623
2.3905084133148193	14375.637054032193
2.393299102783203	9924.63690022639
2.3960859775543213	8341.1095998021
2.398869514465332	9201.813272217658
2.4016497135162354	19414.700610897264
2.4044265747070312	44082.75289464144
2.407200336456299	64223.15876742583
2.409970998764038	59481.549802873094
2.4127390384674072	44817.18090264042
2.415503978729248	42909.187466504685
2.418266534805298	55629.97241176176
2.4210267066955566	66585.13000258645
2.4237842559814453	60983.137398065715
2.426539897918701	55554.44735436094
2.429293394088745	74831.1534412555
2.4320452213287354	97994.10422702525
2.4347951412200928	95976.92262995508
2.4375438690185547	93281.51650574892
2.440291166305542	112420.65111805608
2.443037271499634	119014.55430991766
2.445782423019409	98878.53801851132
2.4485268592834473	90184.66073680071
2.451270818710327	123843.49208722932
2.454014539718628	178758.45417886024
2.4567582607269287	208881.15989016325
2.4595019817352295	222277.58670702012
2.4622461795806885	256795.26091147214
2.4649908542633057	311203.6599175061
2.4677364826202393	338513.5268733564
2.4704833030700684	294691.6944621153
2.473231554031372	202631.2926864345
2.4759814739227295	124362.97760547567
2.4787333011627197	79725.16718452632
2.481487512588501	51003.96704133024
