#wavelength	surface flux
0.6450077295303345	10811.468219099634
0.6472567915916443	17065.05894844933
0.6494921445846558	22402.37470890617
0.6517150402069092	25944.553761800107
0.6539263725280762	29637.291102419094
0.6561272740364075	33609.67901801267
0.6583186388015747	37877.95034961386
0.6605015397071838	42451.450763706096
0.6626768708229065	47337.6286980443
0.6648455858230591	52409.51570120415
0.6670085787773132	55886.605323390686
0.6691668033599854	54341.58073954266
0.6713210344314575	55161.027276138884
0.6734722256660461	67414.87187055632
0.6756211519241333	81668.41283912963
0.6777685880661011	90874.49422379788
0.6799154281616211	98594.5865409277
0.6820623278617859	106207.49532651306
0.6842101216316223	113821.50706007432
0.6863595843315125	121409.81244357952
0.688511312007904	128760.46658330409
0.6906660795211792	135245.48530830716
0.6928245425224304	141024.89153124343
0.6949873566627502	147833.0773349689
0.6971551775932312	155256.5513662107
0.6993286609649658	161591.15424127842
0.7015084028244019	167188.3780673081
0.7036949396133423	172005.6896341792
0.7058889269828796	175488.66953881396
0.7080909013748169	177756.3824184312
0.710301399230957	179162.21846208593
0.712520956993103	179405.91406676645
0.7147500514984131	177543.6795027192
0.7169892191886902	173519.55088159922
0.7192389369010925	168019.9862277967
0.7214996814727783	160894.1991045114
0.723771870136261	151819.62590643577
0.7260559797286987	141574.54027031807
0.7283523678779602	130616.5132833499
0.7306615710258484	121018.38231416408
0.7329838871955872	113638.95494197363
0.7353196740150452	103983.24215434758
0.7376693487167358	91235.72377702394
0.7400332689285278	78193.89654331001
0.7424117922782898	65614.07409949675
0.7448052167892456	53987.88922483768
0.7472138404846191	43299.59766261417
0.7496379613876343	33514.77212458338
0.7520779371261597	24992.943900439775
0.7545340061187744	17883.45022784717
0.7570064663887024	12185.997151072845
0.7594954967498779	7791.36966774063
0.7620013952255249	4473.767823563019
0.7645244002342224	2108.265512673466
0.7670646905899048	864.1218110181837
0.7696225643157959	918.9446798329375
0.7721980810165405	2577.6121931660537
0.7747915983200073	6001.305376312138
0.7774031162261963	10589.795282314904
0.7800329327583313	17023.89825345055
0.7826811671257019	28124.704294078732
0.7853479981422424	44208.81985924101
0.7880334854125977	63374.85397287134
0.7907378077507019	77579.23969706181
0.7934610247612	81438.64586265592
0.7962033748626709	110906.67898225601
0.7989648580551147	179311.73614200533
0.801745593547821	248027.3907883457
0.8045456409454346	309302.8214421084
0.8073651194572449	372492.71219234995
0.8102040886878967	437298.65016897314
0.8130625486373901	513961.25846720336
0.8159406185150146	609031.1004146563
0.8188382983207703	718104.5101267945
0.8217556476593018	841770.8730344905
0.8246926665306091	970234.7881558433
0.8276493549346924	1092507.3717358622
0.8306257724761963	1231392.7302406784
0.8336219191551208	1404899.670569341
0.8366377949714661	1581898.3408470724
0.8396733403205872	1755073.4365033195
0.8427285552024841	1952098.9529671457
0.8458034992218018	2150897.5081347483
0.8488980531692505	2208679.077283618
0.8520121574401855	2217268.9549774397
0.8551458716392517	2600979.5582387806
0.8582990765571594	3184027.5495716953
0.8614717125892639	3562958.6619599992
0.8646637797355652	3874497.0903655044
0.8678751587867737	4259831.373554527
0.8711057901382446	4675842.913985363
0.8743556141853333	5083300.821082686
0.87762451171875	5478913.072854388
0.8809124231338501	5831052.345088914
0.8842192888259888	6141220.244381088
0.8875449895858765	6354656.822753272
0.8908893465995789	6103725.976575283
0.894252359867096	5648706.808021665
0.8976338505744934	6398718.952441801
0.9010337591171265	8259140.555215759
0.9044519662857056	9818577.339239044
0.9078882932662964	10783268.949350547
0.9113426208496094	11338090.712846875
0.914814829826355	11568745.59884869
0.9183048605918884	11845781.38102046
0.9218124747276306	11559807.195909858
0.925337553024292	9315047.383252336
0.9288799166679382	6953152.349496965
0.9324395060539246	6580960.2393350685
0.9360161423683167	7160056.3102857815
0.9396095871925354	7598773.0227581505
0.943219780921936	7456083.774525783
0.9468464851379395	6542285.55144723
0.9504896402359009	7017981.277270064
0.9541489481925964	9723342.77037597
0.9578243494033813	10622286.971902128
0.9615156054496765	8472584.624243971
0.9652225375175476	6686769.53497983
0.9689450263977051	8562906.393487336
0.9726828336715698	12838736.776357565
0.9764357805252075	15038178.420695823
0.9802037477493286	16029921.170774957
0.983986496925354	18814408.47360557
0.9877838492393494	21830296.958592523
0.9915955662727356	23567499.616580855
0.9954215884208679	24313017.18387596
0.9992615580558777	23706794.124791473
1.0031154155731201	23078680.572584413
1.0069829225540161	24714495.18841247
1.0108637809753418	28325194.649358265
1.0147579908370972	32163345.101272352
1.018665075302124	34788225.19289118
1.022585153579712	35820333.95377666
1.0265177488327026	36928063.886461645
1.0304628610610962	39504541.41393953
1.0344202518463135	42421357.29892251
1.0383895635604858	44663407.37424555
1.0423706769943237	46454708.99585967
1.0463634729385376	47603734.69706388
1.0503677129745483	48641570.5146737
1.0543830394744873	50952749.7884373
1.058409333229065	53758157.10971882
1.0624464750289917	55684649.98228724
1.0664942264556885	56319215.455582164
1.0705522298812866	56209934.942605235
1.0746204853057861	56604583.70905569
1.0786986351013184	56972897.56531478
1.0827864408493042	57003256.90099852
1.086883783340454	53513951.981589615
1.0909905433654785	43738386.35442665
1.0951062440872192	33907903.07945635
1.0992310047149658	24333940.210826013
1.10336434841156	13165203.66491598
1.1075061559677124	7686725.754344101
1.1116561889648438	6477783.4514211165
1.115814208984375	4789377.78280607
1.1199802160263062	4392495.329943703
1.124153733253479	4810814.158780995
1.1283347606658936	4082338.2429304603
1.1325229406356812	3230819.092702033
1.1367181539535522	5326840.519483679
1.1409201622009277	9460029.446739513
1.145128846168518	11440128.992674053
1.1493438482284546	9477817.230988199
1.1535650491714478	5964650.4127210155
1.1577922105789185	4423377.344373093
1.1620250940322876	4994509.982749865
1.1662636995315552	7299449.792327464
1.170507550239563	10383945.638116539
1.174756646156311	14199060.152410327
1.1790107488632202	19639297.224757135
1.1832695007324219	22572511.433969077
1.1875330209732056	21643184.50891771
1.191800832748413	26296127.625230145
1.1960728168487549	36780756.22673002
1.2003488540649414	43307816.97886523
1.2046287059783936	46117172.90739437
1.2089121341705322	47565759.55065567
1.2131990194320679	49873305.17494429
1.2174891233444214	55436020.36245901
1.2217823266983032	60436455.21913306
1.2260783910751343	63750055.187394515
1.230377197265625	67420210.36629002
1.2346785068511963	69975014.86275315
1.238982081413269	69999697.97470745
1.2432878017425537	69732574.53987718
1.2475954294204712	70440894.39537336
1.2519049644470215	70954183.44888459
1.256216049194336	76337916.40132019
1.2605286836624146	81602529.98769104
1.2648425102233887	80015653.07578225
1.2691574096679688	80726658.53984284
1.2734732627868652	85320860.19626927
1.2777899503707886	84231324.17490685
1.2821072340011597	77453554.51191372
1.2864248752593994	74526324.43546906
1.2907428741455078	74219631.88550346
1.2950609922409058	71591789.10562783
1.2993791103363037	61614894.895449415
1.303696870803833	52096659.66179266
1.3080145120620728	50866587.87638249
1.3123314380645752	52161199.032621846
1.3166478872299194	54323792.06851002
1.3209635019302368	48672299.68541641
1.3252781629562378	36457644.85470436
1.3295916318893433	24352182.710312765
1.3339040279388428	11259644.02125748
1.3382149934768677	3070897.427112723
1.3425244092941284	1175980.7359220395
1.3468321561813354	854756.3733042369
1.3511382341384888	696545.1753742557
1.3554422855377197	495422.3444229736
1.3597444295883179	546733.9299822944
1.3640443086624146	802466.697314796
1.3683418035507202	747501.3677347556
1.3726370334625244	570910.6580781679
1.3769296407699585	720052.2453441881
1.381219506263733	703613.4125048538
1.3855066299438477	391626.7820644227
1.3897908926010132	417768.0039514419
1.3940720558166504	726607.6386505055
1.3983501195907593	680001.9363920683
1.4026249647140503	594414.8267655062
1.4068963527679443	723064.768591483
1.4111642837524414	667927.8555263465
1.4154287576675415	579535.4192711632
1.419689416885376	559113.5796315847
1.4239463806152344	555224.7833430422
1.4281994104385376	437556.2223912347
1.4324485063552856	331016.5588097206
1.436693549156189	599891.4556411852
1.440934419631958	1284343.7616417494
1.4451709985733032	2489646.4300459553
1.449403166770935	3843173.778524509
1.453631043434143	3978734.6804269566
1.4578542709350586	3666009.747743138
1.4620729684829712	4785786.864433703
1.4662868976593018	5910643.313442397
1.4704961776733398	4192107.596548442
1.4747005701065063	1862539.7886896117
1.4788999557495117	2574899.4492128533
1.4830944538116455	5052127.960997163
1.4872838258743286	5754865.706954774
1.491468071937561	4448953.077721594
1.4956470727920532	4666063.579805792
1.4998208284378052	7302971.291506757
1.5039892196655273	8477834.635596517
1.5081522464752197	6923336.497993251
1.5123097896575928	7130239.989202495
1.5164618492126465	11383316.53750574
1.5206083059310913	16363829.446290938
1.5247491598129272	18208765.21493698
1.5288842916488647	18415033.368018072
1.5330137014389038	20139767.446724303
1.5371372699737549	21807533.35320861
1.541254997253418	21925988.067616746
1.545366883277893	23349802.859893426
1.5494728088378906	25519439.470070668
1.5535727739334106	26749024.982816037
1.5576666593551636	28572110.86760328
1.561754584312439	31543472.798146944
1.5658363103866577	34694092.21653493
1.5699119567871094	36155081.15278678
1.5739814043045044	35668094.599991076
1.5780447721481323	36049294.06775184
1.582101821899414	38486253.50727526
1.5861525535583496	40642850.63383849
1.5901970863342285	39861303.43737657
1.5942351818084717	36780960.603085205
1.5982669591903687	35141533.707439326
1.6022924184799194	34225946.40004871
1.606311559677124	32060329.25001895
1.6103241443634033	31149265.72364138
1.6143304109573364	29452761.0682248
1.6183301210403442	25307676.718617845
1.6223233938217163	22232288.497674182
1.6263102293014526	20713624.89652192
1.6302905082702637	21271387.13972272
1.634264349937439	24637964.865184233
1.638231635093689	28415954.72380273
1.6421923637390137	28895091.022843715
1.646146535873413	23680295.218513526
1.6500942707061768	19045086.080560237
1.6540353298187256	20152763.003767468
1.6579699516296387	21711781.27390613
1.661897897720337	20243184.889920935
1.6658192873001099	14443451.359016664
1.6697341203689575	9394306.66697032
1.6736423969268799	10713940.299384229
1.677544116973877	12599313.485876575
1.6814392805099487	12314157.391272817
1.6853278875350952	11114480.82667806
1.6892099380493164	9292662.932203399
1.6930854320526123	7921500.856347346
1.696954369544983	6804817.774834897
1.7008168697357178	6120159.458623576
1.7046726942062378	6117591.744054676
1.708522081375122	7132177.156043669
1.712364912033081	8031703.256457132
1.7162011861801147	8262243.579608538
1.7200311422348022	9185432.57081029
1.723854422569275	9365444.49813534
1.7276713848114014	8025316.076207504
1.731481909751892	7001431.675108644
1.7352858781814575	6953607.884899669
1.7390835285186768	7470001.423768237
1.7428747415542603	7623127.499409593
1.7466596364974976	6294930.147543951
1.7504380941390991	4672972.371146583
1.7542102336883545	4943338.22504733
1.7579760551452637	6472197.191358107
1.7617355585098267	7469231.984994856
1.7654887437820435	7076544.766587687
1.7692357301712036	5307708.720342698
1.7729763984680176	3478873.953705374
1.776710867881775	2239833.372855741
1.7804391384124756	1733873.0810210365
1.7841613292694092	1771458.3813928685
1.7878772020339966	1870357.1958029442
1.7915871143341064	2661418.790493492
1.7952908277511597	3351872.4835873875
1.7989884614944458	2927892.9626138057
1.8026801347732544	2118887.9222985194
1.806365728378296	1666707.7495898663
1.8100452423095703	1496621.4093888819
1.8137187957763672	1203832.0480605175
1.817386507987976	844721.6256542731
1.8210482597351074	1469407.1691217853
1.8247040510177612	2660610.901826635
1.828354001045227	2427448.947104141
1.8319982290267944	1295858.3430990886
1.8356364965438843	1253886.7880444792
1.8392690420150757	2181185.4319418357
1.8428958654403687	2714454.1227852977
1.8465168476104736	2416594.2582299714
1.8501322269439697	1799902.2518622691
1.8537418842315674	1465292.8901323618
1.8573459386825562	1587561.8945491726
1.860944390296936	1284210.0274684867
1.864537239074707	540530.4155242107
1.8681244850158691	245624.45303859838
1.871706247329712	487480.29889687
1.8752825260162354	1012185.2890460816
1.8788533210754395	1379583.5206068808
1.8824186325073242	1719800.8784061107
1.8859784603118896	2791630.0292736017
1.8895330429077148	3760945.747505452
1.8930821418762207	2979645.4116999446
1.8966259956359863	1848138.4132930085
1.9001644849777222	1665959.9686666387
1.9036977291107178	1436375.180857439
1.9072256088256836	1797227.7523982371
1.9107483625411987	2332447.631507636
1.9142658710479736	1651067.9873724135
1.9177782535552979	1220175.4000526278
1.9212853908538818	1162640.4304520204
1.9247875213623047	579898.7598547252
1.9282845258712769	330483.8878348371
1.9317764043807983	963270.2564591513
1.9352631568908691	2106101.0899302275
1.9387450218200684	2276865.513764781
1.942221760749817	1317052.0979402289
1.9456936120986938	676429.0152384395
1.9491604566574097	579446.8163119018
1.952622413635254	798456.0134116086
1.956079363822937	1590328.633526971
1.959531545639038	2554952.449758526
1.962978720664978	2433845.500011402
1.966421127319336	1861935.317220123
1.9698586463928223	2189340.6800939776
1.9732913970947266	2615731.41619622
1.9767193794250488	2827788.2990030865
1.9801424741744995	3178012.219558504
1.9835609197616577	3330355.858068358
1.9869745969772339	3771374.321115687
1.990383505821228	4216496.857003955
1.9937876462936401	4118693.562659895
1.9971871376037598	3462510.6128731244
2.000581979751587	2729009.5777805685
2.003972291946411	3375916.866100503
2.007357597351074	4618933.332361485
2.0107386112213135	5157460.922057989
2.0141148567199707	4912669.0473304195
2.017486572265625	4204035.594356347
2.0208535194396973	4160814.28359336
2.0242159366607666	4655294.502496358
2.027573823928833	4792288.868345994
2.0309269428253174	4723497.118988733
2.034275770187378	5352373.617285122
2.0376198291778564	6863866.835227196
2.040959596633911	8072483.589251761
2.044294595718384	8410896.971593238
2.0476250648498535	8267135.440010502
2.0509510040283203	7658886.104662053
2.054272413253784	7102101.304391619
2.057589530944824	7421031.283581767
2.0609018802642822	8208351.648475226
2.0642096996307373	8726382.626688348
2.0675129890441895	8894278.470063733
2.0708119869232178	8828792.944669414
2.074106216430664	8637037.200988458
2.0773961544036865	8626433.061874893
2.080681324005127	8754859.595787484
2.0839622020721436	8693342.034847705
2.087238311767578	8478394.157006444
2.090510129928589	8341175.872407731
2.0937774181365967	8334580.7529265415
2.0970399379730225	8223739.37164826
2.1002981662750244	7851871.74913097
2.1035518646240234	7585274.136180431
2.1068007946014404	7620380.629169974
2.1100454330444336	7649829.040651272
2.1132853031158447	7461220.871016705
2.116520881652832	7015745.824902611
2.1197516918182373	6550618.222387946
2.1229779720306396	6289519.211119831
2.12619948387146	6115803.445496938
2.1294167041778564	6069605.3125211885
2.132629156112671	6157823.888656591
2.1358368396759033	5923703.376203219
2.139039993286133	5497101.348566909
2.1422386169433594	5165038.762249903
2.145432472229004	4837708.393944935
2.1486217975616455	4575841.089612952
2.151806354522705	4239185.948835583
2.1549863815307617	4180422.029854717
2.1581614017486572	4514602.888943801
2.16133189201355	4686637.101100393
2.1644976139068604	4573041.774406099
2.167658567428589	4158695.1548474417
2.1708147525787354	3825846.4988539377
2.173966407775879	4036863.641280762
2.1771130561828613	4449800.099770558
2.1802549362182617	4451320.453029377
2.183391809463501	4005450.8860760555
2.1865241527557373	3574886.21711114
2.1896514892578125	3302857.806409973
2.1927738189697266	2842877.953800769
2.1958916187286377	1980000.4196698016
2.1990041732788086	1091840.4927663517
2.2021119594573975	671381.531199857
2.2052149772644043	707648.2051613875
2.208312749862671	945358.479804732
2.2114057540893555	1283286.0632258537
2.214493751525879	1510628.675531447
2.217576742172241	1325399.0259824805
2.2206547260284424	972237.7468752094
2.2237277030944824	778277.4419103408
2.2267956733703613	643795.2415987757
2.2298583984375	531799.7763429495
2.2329163551330566	493396.29009575734
2.235969066619873	526303.4631028689
2.2390167713165283	532323.1577887491
2.2420592308044434	457522.89190170227
2.2450966835021973	383403.4116958966
2.248128890991211	363125.61680621107
2.2511560916900635	391790.3370484699
2.254178285598755	506539.2682660679
2.257194995880127	731763.528740178
2.260206699371338	748137.6586154156
2.2632133960723877	440028.2411479733
2.266214609146118	300814.4139617809
2.2692108154296875	537296.7405833196
2.2722020149230957	784022.8538276315
2.2751877307891846	739043.6573591093
2.278168201446533	581776.0130352133
2.2811436653137207	554245.4890641585
2.284113883972168	546049.1343304237
2.287078857421875	430103.9611645731
2.290038824081421	323105.5244654483
2.2929933071136475	314728.6192909282
2.295942783355713	330792.3226722318
2.298887014389038	353596.1451653665
2.301826238632202	438282.7434007995
2.304760217666626	628872.6122558541
2.3076889514923096	918321.197573398
2.310612440109253	1240590.5564834944
2.3135311603546143	1520652.385521333
2.3164443969726562	1414150.289763207
2.319352865219116	804107.7392327747
2.322256088256836	337589.87649933936
2.3251543045043945	257808.63469467097
2.328047275543213	248616.0913895133
2.330935478210449	226155.994638491
2.3338186740875244	195768.07744953243
2.3366971015930176	158847.14525651713
2.3395702838897705	134051.207625175
2.3424389362335205	123252.59060653397
2.3453025817871094	114722.02737242887
2.348161458969116	112357.53432267005
2.351015567779541	177845.07765178825
2.353865146636963	380347.12068372045
2.3567099571228027	654124.4599410612
2.3595502376556396	852013.9773212894
2.3623859882354736	846896.5769801085
2.3652172088623047	593186.7774833867
2.368043899536133	283422.3580407126
2.370866537094116	128678.2665956169
2.3736846446990967	113259.94001552099
2.3764986991882324	131049.85502144115
2.3793084621429443	149572.5558308452
2.3821144104003906	207861.48415898148
2.384916305541992	306168.2675509205
2.387714147567749	356717.9573794496
2.3905084133148193	314359.29630089796
2.393299102783203	259619.15231706237
2.3960859775543213	228367.7470749985
2.398869514465332	233589.70999085426
2.4016497135162354	334901.6674576833
2.4044265747070312	540223.9020097642
2.407200336456299	702298.3314477664
2.409970998764038	689935.0743971939
2.4127390384674072	610263.3751142713
2.415503978729248	612518.1677691435
2.418266534805298	703004.4927000634
2.4210267066955566	768839.5388701557
2.4237842559814453	719922.0574761874
2.426539897918701	691818.160001064
2.429293394088745	854989.5993482905
2.4320452213287354	1033879.808225864
2.4347951412200928	1003142.1112396984
2.4375438690185547	922315.5797665634
2.440291166305542	966172.9999375463
2.443037271499634	991683.4400740016
2.445782423019409	930918.4375307893
2.4485268592834473	930274.9674841426
2.451270818710327	1048663.5256825765
2.454014539718628	1197876.5878823614
2.4567582607269287	1268039.3700069538
2.4595019817352295	1301042.1534798804
2.4622461795806885	1481699.5061888623
2.4649908542633057	1727796.3125623555
2.4677364826202393	1710832.341773554
2.4704833030700684	1357886.9709984884
2.473231554031372	909578.7148593463
2.4759814739227295	600228.7691108113
2.4787333011627197	451688.62882540317
2.481487512588501	380732.2623363075
2.4842441082000732	348671.18248435325
