#wavelength	surface flux
0.6450077295303345	48518.043151375154
0.6472567915916443	73906.21794745156
0.6494921445846558	90812.89768470584
0.6517150402069092	97173.26759325714
0.6539263725280762	102842.21219396584
0.6561272740364075	108413.51064042194
0.6583186388015747	114061.5025932052
0.6605015397071838	119895.71770627354
0.6626768708229065	125796.49557958564
0.6648455858230591	131398.7988613943
0.6670085787773132	133623.26188973643
0.6691668033599854	126945.97448073348
0.6713210344314575	124948.42579330585
0.6734722256660461	141765.30716369886
0.6756211519241333	159987.49811574884
0.6777685880661011	169257.77002802168
0.6799154281616211	176286.48913030425
0.6820623278617859	183113.9094214104
0.6842101216316223	189942.2188252598
0.6863595843315125	196758.63274194064
0.688511312007904	203278.13974954333
0.6906660795211792	208646.85786694204
0.6928245425224304	213968.92826527197
0.6949873566627502	221793.88510569555
0.6971551775932312	230515.0306197762
0.6993286609649658	237805.71448216142
0.7015084028244019	244372.29626282572
0.7036949396133423	251562.58019319148
0.7058889269828796	259357.42624266306
0.7080909013748169	266539.8098366558
0.710301399230957	273456.61433808715
0.712520956993103	280284.1145208653
0.7147500514984131	285003.33845936274
0.7169892191886902	287910.8116805271
0.7192389369010925	292883.6722239795
0.7214996814727783	298740.16422735
0.723771870136261	302117.38753470307
0.7260559797286987	304298.0641665073
0.7283523678779602	306286.69317659276
0.7306615710258484	308608.46276089764
0.7329838871955872	311591.2209993426
0.7353196740150452	312779.17382117314
0.7376693487167358	311223.17742057453
0.7400332689285278	306750.96769719943
0.7424117922782898	297694.39599836816
0.7448052167892456	284245.35743446863
0.7472138404846191	265687.7899353208
0.7496379613876343	240249.12332294777
0.7520779371261597	207379.73716196397
0.7545340061187744	167457.60458457947
0.7570064663887024	122653.76806485033
0.7594954967498779	77581.42376321522
0.7620013952255249	39055.819931337515
0.7645244002342224	13822.68015531375
0.7670646905899048	3349.3916723276084
0.7696225643157959	3987.216605279275
0.7721980810165405	18234.750064154334
0.7747915983200073	52524.38691529958
0.7774031162261963	100000.04166193612
0.7800329327583313	157049.3745603452
0.7826811671257019	235484.3628355352
0.7853479981422424	322296.06125509925
0.7880334854125977	394678.2901182557
0.7907378077507019	421865.6106232582
0.7934610247612	386333.2042834134
0.7962033748626709	425898.23543292464
0.7989648580551147	572255.1203017607
0.801745593547821	675776.5354781129
0.8045456409454346	725240.4363353259
0.8073651194572449	763384.3824994653
0.8102040886878967	790724.4429283642
0.8130625486373901	820804.3676228926
0.8159406185150146	867179.8612929494
0.8188382983207703	915042.8943736778
0.8217556476593018	952432.0544701277
0.8246926665306091	989880.5204022012
0.8276493549346924	1027494.7532729076
0.8306257724761963	1060039.9534835578
0.8336219191551208	1093374.2266417034
0.8366377949714661	1126421.5924431742
0.8396733403205872	1167791.6911181659
0.8427285552024841	1224582.9964566054
0.8458034992218018	1278310.864957685
0.8488980531692505	1315610.3772061078
0.8520121574401855	1348809.166157265
0.8551458716392517	1401329.2811778425
0.8582990765571594	1458864.325007673
0.8614717125892639	1497564.9910155174
0.8646637797355652	1534214.5461673187
0.8678751587867737	1583172.2528625166
0.8711057901382446	1635318.766901594
0.8743556141853333	1680871.747403864
0.87762451171875	1716858.8031268546
0.8809124231338501	1746866.7297229539
0.8842192888259888	1777385.8590891173
0.8875449895858765	1800889.4813677776
0.8908893465995789	1796395.6649146024
0.894252359867096	1792178.8679899585
0.8976338505744934	1862310.3840353584
0.9010337591171265	1986335.8766246166
0.9044519662857056	2087003.2772104314
0.9078882932662964	2155760.978080412
0.9113426208496094	2208137.570333773
0.914814829826355	2231152.667942268
0.9183048605918884	2257717.76575597
0.9218124747276306	2280116.63560246
0.925337553024292	2103207.2586170137
0.9288799166679382	1752182.3752644768
0.9324395060539246	1595333.644094929
0.9360161423683167	1726222.3774601382
0.9396095871925354	1923761.469340706
0.943219780921936	1933871.5705840245
0.9468464851379395	1849180.2034983782
0.9504896402359009	1924223.034950081
0.9541489481925964	2086503.1385717874
0.9578243494033813	2120064.8791039167
0.9615156054496765	1985324.3023783832
0.9652225375175476	1937301.5401692863
0.9689450263977051	2147583.9083542125
0.9726828336715698	2520618.7191159297
0.9764357805252075	2792862.3354530134
0.9802037477493286	2936882.15672589
0.983986496925354	3083736.796239581
0.9877838492393494	3253036.5754064424
0.9915955662727356	3443345.2954651816
0.9954215884208679	3607396.366305586
0.9992615580558777	3734388.274721218
1.0031154155731201	3845979.727521413
1.0069829225540161	3973697.7263946454
1.0108637809753418	4121294.3983743596
1.0147579908370972	4267603.164597729
1.018665075302124	4387152.753544727
1.022585153579712	4456402.507001749
1.0265177488327026	4496641.29672816
1.0304628610610962	4580201.859986258
1.0344202518463135	4744566.786946354
1.0383895635604858	4907618.301028216
1.0423706769943237	5022115.742626975
1.0463634729385376	5113100.36437945
1.0503677129745483	5196088.671691149
1.0543830394744873	5303109.538823028
1.058409333229065	5424958.737400395
1.0624464750289917	5532441.419027958
1.0664942264556885	5623095.85605655
1.0705522298812866	5707420.12590739
1.0746204853057861	5807280.494655524
1.0786986351013184	5917994.199090487
1.0827864408493042	6015426.880518331
1.086883783340454	6051089.79899708
1.0909905433654785	5992419.932008781
1.0951062440872192	5795615.746897525
1.0992310047149658	5102337.420318462
1.10336434841156	4072277.737255698
1.1075061559677124	3665891.6834252584
1.1116561889648438	3583408.3061120496
1.115814208984375	3193218.3474980025
1.1199802160263062	2867896.066434997
1.124153733253479	2917458.2298490587
1.1283347606658936	3084327.570606954
1.1325229406356812	2945284.152206697
1.1367181539535522	3196337.7425813153
1.1409201622009277	3955178.5429958547
1.145128846168518	4387792.155548787
1.1493438482284546	3826550.78633984
1.1535650491714478	2572309.7755007185
1.1577922105789185	2082648.6704789477
1.1620250940322876	2635129.2125255615
1.1662636995315552	3533342.015126713
1.170507550239563	4204198.73484772
1.174756646156311	4974311.406617665
1.1790107488632202	6063336.593967665
1.1832695007324219	6905792.790588002
1.1875330209732056	7387563.0234028315
1.191800832748413	7837595.292746957
1.1960728168487549	8370329.8280462725
1.2003488540649414	8730516.668543123
1.2046287059783936	8914556.12483646
1.2089121341705322	9090644.288359875
1.2131990194320679	9313621.088871332
1.2174891233444214	9584878.870279817
1.2217823266983032	9858053.146265505
1.2260783910751343	10096086.794895474
1.230377197265625	10285179.374929847
1.2346785068511963	10444158.976481255
1.238982081413269	10627594.629364066
1.2432878017425537	10801602.879238447
1.2475954294204712	10922065.741093641
1.2519049644470215	11027346.058707831
1.256216049194336	11192081.012073118
1.2605286836624146	11339242.322414294
1.2648425102233887	11414689.173115626
1.2691574096679688	11482126.277626336
1.2734732627868652	11569985.29709397
1.2777899503707886	11648821.28246144
1.2821072340011597	11669040.917795852
1.2864248752593994	11581595.456701003
1.2907428741455078	11386227.687928416
1.2950609922409058	11332140.641208371
1.2993791103363037	11320246.735251086
1.303696870803833	11123037.59105235
1.3080145120620728	10999841.411021959
1.3123314380645752	11114484.738500716
1.3166478872299194	11409125.382461356
1.3209635019302368	11146750.382397661
1.3252781629562378	9874849.538374303
1.3295916318893433	7652459.202028707
1.3339040279388428	4579541.194935981
1.3382149934768677	1927558.3310648645
1.3425244092941284	786073.8623621431
1.3468321561813354	644067.3608580844
1.3511382341384888	502703.29146345006
1.3554422855377197	303793.7705502605
1.3597444295883179	254017.71488245553
1.3640443086624146	262653.88182049576
1.3683418035507202	376013.3648754273
1.3726370334625244	824287.1633117393
1.3769296407699585	1345730.1440931766
1.381219506263733	1071991.9340231412
1.3855066299438477	396865.04913452885
1.3897908926010132	165063.9872901559
1.3940720558166504	207924.76022545632
1.3983501195907593	328685.08849748346
1.4026249647140503	632260.3888375813
1.4068963527679443	856361.4286738782
1.4111642837524414	637523.3397737809
1.4154287576675415	428976.47215750354
1.419689416885376	407744.35829562286
1.4239463806152344	382071.23606050323
1.4281994104385376	523354.28570184804
1.4324485063552856	709977.6878438779
1.436693549156189	802861.2316414294
1.440934419631958	991556.2867187419
1.4451709985733032	1605268.9130169759
1.449403166770935	2715556.677159181
1.453631043434143	3518652.058640832
1.4578542709350586	3912287.8129645535
1.4620729684829712	4406977.641067227
1.4662868976593018	4439623.36598308
1.4704961776733398	3915084.6766780117
1.4747005701065063	3595061.731995725
1.4788999557495117	3872990.6135246176
1.4830944538116455	5036395.370709785
1.4872838258743286	6371920.493505772
1.491468071937561	6771633.632905537
1.4956470727920532	6621850.448941929
1.4998208284378052	7167784.910725179
1.5039892196655273	8108287.592742016
1.5081522464752197	8388611.942052033
1.5123097896575928	8819029.371344723
1.5164618492126465	10054613.268410668
1.5206083059310913	11757862.839797936
1.5247491598129272	13012933.059881138
1.5288842916488647	13280486.256770888
1.5330137014389038	13687593.691954903
1.5371372699737549	14460411.259778751
1.541254997253418	14883786.714770667
1.545366883277893	15322154.378857592
1.5494728088378906	15951930.581121258
1.5535727739334106	16313492.957405437
1.5576666593551636	16317407.321523417
1.561754584312439	16639942.29026377
1.5658363103866577	17479145.12412089
1.5699119567871094	17949741.635541506
1.5739814043045044	17496041.37271582
1.5780447721481323	16703409.453066036
1.582101821899414	17076930.388271667
1.5861525535583496	18411610.236066554
1.5901970863342285	18953714.169869922
1.5942351818084717	18559960.10881498
1.5982669591903687	17943984.806866363
1.6022924184799194	17578070.959869232
1.606311559677124	17552883.489325155
1.6103241443634033	17363352.04278761
1.6143304109573364	16733449.273418797
1.6183301210403442	15836673.756550381
1.6223233938217163	14760517.497913474
1.6263102293014526	13547087.54454056
1.6302905082702637	12506833.966665512
1.634264349937439	13332512.805423373
1.638231635093689	16125752.822894549
1.6421923637390137	17512510.469797757
1.646146535873413	16034123.723514609
1.6500942707061768	14412883.653689047
1.6540353298187256	15059522.195927143
1.6579699516296387	16189349.719869135
1.661897897720337	15128015.306999812
1.6658192873001099	11644952.24373127
1.6697341203689575	9945569.876776718
1.6736423969268799	12290973.348407112
1.677544116973877	13901365.924567452
1.6814392805099487	13425750.061685702
1.6853278875350952	12887325.007737348
1.6892099380493164	12030293.56204847
1.6930854320526123	10347599.148519928
1.696954369544983	8537859.470329277
1.7008168697357178	8089730.656744115
1.7046726942062378	8852509.266741788
1.708522081375122	9941689.840935746
1.712364912033081	10962658.750069693
1.7162011861801147	12026634.671170779
1.7200311422348022	13111301.762894215
1.723854422569275	13358710.914697189
1.7276713848114014	12775412.96200316
1.731481909751892	11819971.232046958
1.7352858781814575	10861628.194946028
1.7390835285186768	10399594.716214888
1.7428747415542603	9985023.925743507
1.7466596364974976	9084041.845677609
1.7504380941390991	7947243.419551686
1.7542102336883545	7369365.543628487
1.7579760551452637	8659531.285852417
1.7617355585098267	10086296.611346606
1.7654887437820435	9022295.673514789
1.7692357301712036	6500595.617455543
1.7729763984680176	4090265.2143115355
1.776710867881775	2296716.32904837
1.7804391384124756	1664566.6034726219
1.7841613292694092	1721386.5732222511
1.7878772020339966	1525238.0633174258
1.7915871143341064	1693662.2762953686
1.7952908277511597	2692820.9591203583
1.7989884614944458	3192090.1372015364
1.8026801347732544	2065670.5730302688
1.806365728378296	780106.1626068589
1.8100452423095703	758105.0260718268
1.8137187957763672	1020094.1419655939
1.817386507987976	844546.3762815285
1.8210482597351074	1003816.0641436531
1.8247040510177612	1108238.7228332271
1.828354001045227	577343.8635982368
1.8319982290267944	370892.2708276845
1.8356364965438843	775004.0508231223
1.8392690420150757	1213095.9871261208
1.8428958654403687	1214642.2155984463
1.8465168476104736	1220219.8520110045
1.8501322269439697	1498559.7938181353
1.8537418842315674	1262451.4132280077
1.8573459386825562	777642.3833578554
1.860944390296936	580847.9599468539
1.864537239074707	369767.66648551106
1.8681244850158691	335010.4872284642
1.871706247329712	678935.4717144752
1.8752825260162354	1316164.5753633266
1.8788533210754395	2509861.4971278883
1.8824186325073242	3457999.3793418976
1.8859784603118896	3119123.2100192667
1.8895330429077148	2750146.463655146
1.8930821418762207	3619762.3266645996
1.8966259956359863	3671014.4925086885
1.9001644849777222	1750993.5901768103
1.9036977291107178	416906.83086838236
1.9072256088256836	385428.84588573617
1.9107483625411987	380965.56034971314
1.9142658710479736	209035.60330537683
1.9177782535552979	206354.46295192413
1.9212853908538818	330190.44236811774
1.9247875213623047	345725.80448941316
1.9282845258712769	371858.88475158747
1.9317764043807983	539738.8638916805
1.9352631568908691	643342.8472401681
1.9387450218200684	662864.2664565493
1.942221760749817	831954.3170499083
1.9456936120986938	1070701.7214207745
1.9491604566574097	1369632.9498506605
1.952622413635254	1365198.9076203268
1.956079363822937	982211.9828266712
1.959531545639038	876855.9817169576
1.962978720664978	1013161.5068711803
1.966421127319336	1500182.121244943
1.9698586463928223	2411222.504782679
1.9732913970947266	2908006.3609403293
1.9767193794250488	3206215.022203911
1.9801424741744995	4000776.830802492
1.9835609197616577	4877355.070450449
1.9869745969772339	4995951.338933815
1.990383505821228	4236191.141558614
1.9937876462936401	4043226.8567661354
1.9971871376037598	4258165.564073798
2.000581979751587	4738770.510916701
2.003972291946411	6245807.486345245
2.007357597351074	7717539.609085359
2.0107386112213135	9094404.311496845
2.0141148567199707	9425941.632162692
2.017486572265625	8287081.924292798
2.0208535194396973	8611673.308039606
2.0242159366607666	10329793.96832724
2.027573823928833	11454310.24502439
2.0309269428253174	12411986.116755143
2.034275770187378	13520343.514885575
2.0376198291778564	14469839.813570471
2.040959596633911	15625290.11224121
2.044294595718384	17137761.267422855
2.0476250648498535	18553562.413079936
2.0509510040283203	18692475.621867295
2.054272413253784	17780014.67028383
2.057589530944824	17959200.413859714
2.0609018802642822	19137013.459712703
2.0642096996307373	20089465.167425822
2.0675129890441895	20685411.23887434
2.0708119869232178	20915302.41173875
2.074106216430664	20705428.038584992
2.0773961544036865	20491104.560155444
2.080681324005127	20690089.445036154
2.0839622020721436	20919914.521611493
2.087238311767578	21015263.95937655
2.090510129928589	20934160.711927373
2.0937774181365967	20586845.262090754
2.0970399379730225	20374002.056680333
2.1002981662750244	20264078.897517346
2.1035518646240234	19952369.054442555
2.1068007946014404	19576059.979242958
2.1100454330444336	19565547.867925014
2.1132853031158447	19600772.398578174
2.116520881652832	19038531.764841788
2.1197516918182373	18458016.086509522
2.1229779720306396	18382481.34531197
2.12619948387146	18529544.853286117
2.1294167041778564	18575218.296337344
2.132629156112671	18516402.21693449
2.1358368396759033	18038300.534766357
2.139039993286133	17149911.45262475
2.1422386169433594	16236716.26446783
2.145432472229004	15374511.411610413
2.1486217975616455	14761234.14070594
2.151806354522705	14151458.483701952
2.1549863815307617	14070899.167826438
2.1581614017486572	14202650.4900633
2.16133189201355	13459536.86164106
2.1644976139068604	12762792.103882823
2.167658567428589	12659086.529173195
2.1708147525787354	12872630.839220803
2.173966407775879	13052838.786145441
2.1771130561828613	12841062.560350042
2.1802549362182617	12216003.063651362
2.183391809463501	11298937.461961485
2.1865241527557373	10305729.267403882
2.1896514892578125	9179682.619529575
2.1927738189697266	7424922.766583343
2.1958916187286377	5099881.482671983
2.1990041732788086	3250171.0564833316
2.2021119594573975	2441888.855379469
2.2052149772644043	2337377.5249380865
2.208312749862671	2587769.0451339786
2.2114057540893555	3042410.111540744
2.214493751525879	3392968.538491504
2.217576742172241	3309295.5442261975
2.2206547260284424	3057840.0462934137
2.2237277030944824	2896690.7902261037
2.2267956733703613	2511952.473298557
2.2298583984375	1956381.511238297
2.2329163551330566	1604699.83757656
2.235969066619873	1492623.553524626
2.2390167713165283	1404812.5726208284
2.2420592308044434	1180477.3467922662
2.2450966835021973	942560.1826684584
2.248128890991211	989144.1545579768
2.2511560916900635	1234593.7171069821
2.254178285598755	1370898.068145708
2.257194995880127	1469425.3901829624
2.260206699371338	1486903.443104806
2.2632133960723877	1263375.2368554617
2.266214609146118	1016514.9932542271
2.2692108154296875	959306.8377005451
2.2722020149230957	1104604.8672416073
2.2751877307891846	1279017.7926892443
2.278168201446533	1275093.168814042
2.2811436653137207	1153356.8824872454
2.284113883972168	1064966.3748669198
2.287078857421875	985914.8584055033
2.290038824081421	901251.9655537172
2.2929933071136475	898755.3015721627
2.295942783355713	970882.9273485565
2.298887014389038	1044199.5784180382
2.301826238632202	1165008.2574289264
2.304760217666626	1535393.8340030336
2.3076889514923096	2204918.1860814337
2.310612440109253	2781789.261185509
2.3135311603546143	2601748.6229129205
2.3164443969726562	1629564.4278431654
2.319352865219116	837766.9731563823
2.322256088256836	687664.4425850803
2.3251543045043945	727026.0050364974
2.328047275543213	716239.4802353312
2.330935478210449	709022.6917962402
2.3338186740875244	702708.0027197972
2.3366971015930176	675002.7357200574
2.3395702838897705	646118.9538335692
2.3424389362335205	598490.7868993693
2.3453025817871094	527726.7832022053
2.348161458969116	501067.3845988492
2.351015567779541	599381.9812157042
2.353865146636963	807336.0504434131
2.3567099571228027	997418.370739276
2.3595502376556396	1141768.649130472
2.3623859882354736	1267891.7374936999
2.3652172088623047	1202267.152420444
2.368043899536133	853362.6343239051
2.370866537094116	505701.5480238845
2.3736846446990967	426426.05157159205
2.3764986991882324	513418.23692813015
2.3793084621429443	606655.4884453637
2.3821144104003906	718157.1438224043
2.384916305541992	885953.8023821139
2.387714147567749	1000869.3514046987
2.3905084133148193	957373.258943785
2.393299102783203	899243.5268370098
2.3960859775543213	939681.4790905158
2.398869514465332	1025119.7995744819
2.4016497135162354	1037787.1725258756
2.4044265747070312	1007479.9852183787
2.407200336456299	1157338.677088137
2.409970998764038	1476557.8311719538
2.4127390384674072	1686249.3655578676
2.415503978729248	1763859.5578361964
2.418266534805298	1978689.0531423555
2.4210267066955566	2199381.559405652
2.4237842559814453	2014709.750410519
2.426539897918701	1724214.6899716381
2.429293394088745	1932038.2359924137
2.4320452213287354	2399128.8293587537
2.4347951412200928	2536776.045855899
2.4375438690185547	2427860.140542806
2.440291166305542	2436787.1277074534
2.443037271499634	2419201.323393799
2.445782423019409	2109418.9401370734
2.4485268592834473	1694506.6401348903
2.451270818710327	1603257.0281973085
2.454014539718628	1966947.6298078632
2.4567582607269287	2304496.4018521584
2.4595019817352295	2327729.9325866746
2.4622461795806885	2494911.505373478
2.4649908542633057	2554179.4566928665
2.4677364826202393	2019174.8600931354
2.4704833030700684	1390983.8649235808
2.473231554031372	1024764.5853468282
2.4759814739227295	819089.0693250813
