#wavelength	surface flux
0.6450077295303345	6925.103838721537
0.6472567915916443	10884.123932521637
0.6494921445846558	14177.885737332972
0.6517150402069092	16281.941637372254
0.6539263725280762	18472.26017060636
0.6561272740364075	20829.170047961034
0.6583186388015747	23367.432612862274
0.6605015397071838	26107.647183288303
0.6626768708229065	29057.988698126963
0.6648455858230591	32164.443263009955
0.6670085787773132	34602.108310118936
0.6691668033599854	34700.845291101665
0.6713210344314575	35974.87833833279
0.6734722256660461	42691.30581398712
0.6756211519241333	50271.63910071991
0.6777685880661011	55492.77187514306
0.6799154281616211	60125.012826157974
0.6820623278617859	64767.53500073508
0.6842101216316223	69451.62696152947
0.6863595843315125	74148.63375674294
0.688511312007904	78749.35469750913
0.6906660795211792	82948.74774807299
0.6928245425224304	86811.94111052925
0.6949873566627502	91123.75309458024
0.6971551775932312	95667.59935986652
0.6993286609649658	99636.35672117719
0.7015084028244019	103173.10594432417
0.7036949396133423	106267.58093289798
0.7058889269828796	108636.99716903399
0.7080909013748169	110276.58381332227
0.710301399230957	111349.6502222044
0.712520956993103	111711.8327074654
0.7147500514984131	110806.92718607081
0.7169892191886902	108621.90559946213
0.7192389369010925	105707.990832153
0.7214996814727783	102020.73473691237
0.723771870136261	97050.352438609
0.7260559797286987	91073.28735064357
0.7283523678779602	84630.04649676404
0.7306615710258484	78755.78494757393
0.7329838871955872	73705.28962404492
0.7353196740150452	67504.02514649616
0.7376693487167358	59976.68738333375
0.7400332689285278	52360.83404200921
0.7424117922782898	44909.22920727656
0.7448052167892456	37887.02983497978
0.7472138404846191	31340.18829613033
0.7496379613876343	25255.352203579372
0.7520779371261597	19791.654505859075
0.7545340061187744	15013.666591774567
0.7570064663887024	10927.019866687806
0.7594954967498779	7495.934620573021
0.7620013952255249	4615.443837303109
0.7645244002342224	2318.998271466415
0.7670646905899048	1008.9353172773505
0.7696225643157959	1066.734532616223
0.7721980810165405	2804.176312318009
0.7747915983200073	6154.6062829349585
0.7774031162261963	10307.56411043907
0.7800329327583313	15556.12784003485
0.7826811671257019	23838.17563920875
0.7853479981422424	35215.89073221221
0.7880334854125977	48275.06557455391
0.7907378077507019	57950.28282932331
0.7934610247612	60770.927841853365
0.7962033748626709	79758.8870614954
0.7989648580551147	123671.22369504492
0.801745593547821	167938.65508405317
0.8045456409454346	207690.8250572823
0.8073651194572449	249355.9085399226
0.8102040886878967	293009.57390809513
0.8130625486373901	344410.8286358172
0.8159406185150146	408350.5298325092
0.8188382983207703	481995.95550026983
0.8217556476593018	563596.5371934891
0.8246926665306091	650269.1861636912
0.8276493549346924	738808.1394674724
0.8306257724761963	837577.9744195787
0.8336219191551208	953894.0862810154
0.8366377949714661	1076745.2086704012
0.8396733403205872	1205350.680888323
0.8427285552024841	1351031.1573946155
0.8458034992218018	1495632.107580459
0.8488980531692505	1549294.456681067
0.8520121574401855	1573489.865294728
0.8551458716392517	1845000.2887628519
0.8582990765571594	2259040.2510737213
0.8614717125892639	2562598.9767983817
0.8646637797355652	2822855.8254277855
0.8678751587867737	3113498.732321867
0.8711057901382446	3429237.7459595753
0.8743556141853333	3755516.2080232715
0.87762451171875	4082004.696510263
0.8809124231338501	4392655.163678109
0.8842192888259888	4690212.695844348
0.8875449895858765	4918561.223781784
0.8908893465995789	4776911.610094169
0.894252359867096	4451089.133229235
0.8976338505744934	5030223.63695746
0.9010337591171265	6436800.885074536
0.9044519662857056	7589696.307868415
0.9078882932662964	8316681.910556094
0.9113426208496094	8826523.76203083
0.914814829826355	9191597.531621253
0.9183048605918884	9595408.502472755
0.9218124747276306	9677603.227685863
0.925337553024292	8383902.2806289485
0.9288799166679382	6578528.440827255
0.9324395060539246	6143074.218422318
0.9360161423683167	6938734.135168658
0.9396095871925354	7834469.78884333
0.943219780921936	7847932.415599102
0.9468464851379395	6969940.882281429
0.9504896402359009	7349881.304010829
0.9541489481925964	9530915.064111825
0.9578243494033813	10468697.39867085
0.9615156054496765	9031624.916799022
0.9652225375175476	7763433.650220211
0.9689450263977051	9528823.138291694
0.9726828336715698	13148561.918231577
0.9764357805252075	15146923.237210011
0.9802037477493286	16135765.264374932
0.983986496925354	18120176.259041425
0.9877838492393494	20339651.073353488
0.9915955662727356	21943449.109684326
0.9954215884208679	22929048.072175946
0.9992615580558777	23129719.9169349
1.0031154155731201	23389418.88506283
1.0069829225540161	24921187.598625902
1.0108637809753418	27419129.691591114
1.0147579908370972	29925379.363139756
1.018665075302124	31796717.35365859
1.022585153579712	32879431.47262729
1.0265177488327026	33911975.923969634
1.0304628610610962	35579580.33885348
1.0344202518463135	37529243.7887442
1.0383895635604858	39195228.719442986
1.0423706769943237	40515286.102375634
1.0463634729385376	41482726.75729105
1.0503677129745483	42414203.377674565
1.0543830394744873	43876447.62554707
1.058409333229065	45591706.64822437
1.0624464750289917	46900515.0904302
1.0664942264556885	47355289.16968559
1.0705522298812866	47339063.27894759
1.0746204853057861	47667548.44827646
1.0786986351013184	47971783.537449636
1.0827864408493042	48053180.24152595
1.086883783340454	46248768.22372897
1.0909905433654785	40592023.11054057
1.0951062440872192	33542301.853828475
1.0992310047149658	24883975.265101116
1.10336434841156	14938080.909064043
1.1075061559677124	9667045.626356626
1.1116561889648438	7877229.840527747
1.115814208984375	6268589.990114036
1.1199802160263062	6213552.619936506
1.124153733253479	6998612.580863222
1.1283347606658936	6574044.772479222
1.1325229406356812	5439092.646720112
1.1367181539535522	7471337.1501606805
1.1409201622009277	11844456.999796761
1.145128846168518	13668475.379613202
1.1493438482284546	11566671.871628296
1.1535650491714478	7721332.275355401
1.1577922105789185	6001445.243910274
1.1620250940322876	6867286.982401785
1.1662636995315552	9342646.756935237
1.170507550239563	12450885.953416286
1.174756646156311	16092883.18692192
1.1790107488632202	21071499.86708378
1.1832695007324219	24605728.330159668
1.1875330209732056	25542607.899692923
1.191800832748413	30245705.98719963
1.1960728168487549	38757648.64081133
1.2003488540649414	44158144.02219776
1.2046287059783936	46918290.260888115
1.2089121341705322	48633650.32186463
1.2131990194320679	50513899.077490725
1.2174891233444214	54333320.72224243
1.2217823266983032	58049686.663427606
1.2260783910751343	60702018.3993482
1.230377197265625	63229033.99158574
1.2346785068511963	65157352.02481123
1.238982081413269	65955383.28379694
1.2432878017425537	66461976.39806767
1.2475954294204712	67145921.66621232
1.2519049644470215	67877815.2861274
1.256216049194336	71390689.86359209
1.2605286836624146	75274983.1933975
1.2648425102233887	75959389.2322191
1.2691574096679688	77278925.27255005
1.2734732627868652	80011075.5534606
1.2777899503707886	79645466.53170049
1.2821072340011597	76165205.2641082
1.2864248752593994	74134734.31109113
1.2907428741455078	73071264.85937792
1.2950609922409058	70647603.39302623
1.2993791103363037	64111066.24652479
1.303696870803833	58772081.04658647
1.3080145120620728	58525134.39928912
1.3123314380645752	59043603.33104059
1.3166478872299194	59634383.1428635
1.3209635019302368	54285417.66565583
1.3252781629562378	42720096.99477438
1.3295916318893433	28646593.029865514
1.3339040279388428	13164855.504526334
1.3382149934768677	3681290.151001485
1.3425244092941284	1303487.278348001
1.3468321561813354	905522.549940645
1.3511382341384888	725764.0255025431
1.3554422855377197	533442.4960323072
1.3597444295883179	629172.44248836
1.3640443086624146	940943.2383854873
1.3683418035507202	946877.9504824465
1.3726370334625244	834325.9633341007
1.3769296407699585	976023.1564996744
1.381219506263733	842929.7527953377
1.3855066299438477	473987.91288246517
1.3897908926010132	467880.3090327612
1.3940720558166504	666423.4501487779
1.3983501195907593	652328.0795828423
1.4026249647140503	700361.6620933288
1.4068963527679443	845894.2877502823
1.4111642837524414	755351.0888902893
1.4154287576675415	671880.8121609112
1.419689416885376	658101.8222907004
1.4239463806152344	627356.3895965404
1.4281994104385376	553320.0728072934
1.4324485063552856	526023.7843742048
1.436693549156189	840953.4972778729
1.440934419631958	1519773.7027440753
1.4451709985733032	2712197.1212427276
1.449403166770935	4179273.889950648
1.453631043434143	4591770.087682712
1.4578542709350586	4587150.841378581
1.4620729684829712	5572778.789109637
1.4662868976593018	6123734.9446075605
1.4704961776733398	4310201.996257613
1.4747005701065063	2310019.161522954
1.4788999557495117	2930776.9127922496
1.4830944538116455	4987445.169925382
1.4872838258743286	5551067.962806796
1.491468071937561	4376347.968001506
1.4956470727920532	4764201.971727449
1.4998208284378052	7800207.167080004
1.5039892196655273	9573453.71437856
1.5081522464752197	8237900.688363027
1.5123097896575928	7807854.815617146
1.5164618492126465	10797747.55253547
1.5206083059310913	15311219.14474485
1.5247491598129272	18403440.665070537
1.5288842916488647	19675929.74682548
1.5330137014389038	20528200.896862045
1.5371372699737549	21355095.859743204
1.541254997253418	22116042.09579444
1.545366883277893	23490979.322072975
1.5494728088378906	25232819.117384456
1.5535727739334106	27397671.097428653
1.5576666593551636	30145843.301883515
1.561754584312439	33056903.946779422
1.5658363103866577	35667635.264883496
1.5699119567871094	36806837.00034866
1.5739814043045044	36503561.53121428
1.5780447721481323	36549390.33083506
1.582101821899414	37759516.012378864
1.5861525535583496	38820093.83943983
1.5901970863342285	38287746.85729882
1.5942351818084717	36427499.08030473
1.5982669591903687	35039565.39918562
1.6022924184799194	33757419.68570763
1.606311559677124	31908882.371195666
1.6103241443634033	30864813.409433037
1.6143304109573364	29188610.832699236
1.6183301210403442	26122225.094061974
1.6223233938217163	23684422.89753033
1.6263102293014526	22121545.019015487
1.6302905082702637	22057852.879621916
1.634264349937439	24165189.432736468
1.638231635093689	26618497.55859339
1.6421923637390137	26581423.520985752
1.646146535873413	22556250.25321407
1.6500942707061768	19364624.089123305
1.6540353298187256	20497553.98213767
1.6579699516296387	21567516.743545115
1.661897897720337	19690915.907743804
1.6658192873001099	14183571.983071512
1.6697341203689575	10259038.104515601
1.6736423969268799	12114593.829245375
1.677544116973877	13988320.313828511
1.6814392805099487	13674877.259652248
1.6853278875350952	12466135.894058175
1.6892099380493164	10820556.95529074
1.6930854320526123	9596258.733241487
1.696954369544983	8520688.571635483
1.7008168697357178	7857379.302447518
1.7046726942062378	7836052.269333463
1.708522081375122	8718596.715025796
1.712364912033081	9580307.495148154
1.7162011861801147	9705047.050912835
1.7200311422348022	10224004.173789471
1.723854422569275	10299298.354072612
1.7276713848114014	9208539.262061832
1.731481909751892	8067428.487348785
1.7352858781814575	7400201.372684045
1.7390835285186768	7463756.944964425
1.7428747415542603	7652057.048671896
1.7466596364974976	6668613.485259844
1.7504380941390991	5418450.812137761
1.7542102336883545	5567342.669374487
1.7579760551452637	6697325.83098521
1.7617355585098267	7342349.033714388
1.7654887437820435	6696857.054829234
1.7692357301712036	4893673.650008316
1.7729763984680176	3030388.2571074027
1.776710867881775	1998060.9993665246
1.7804391384124756	1879956.5482217215
1.7841613292694092	1979358.565832665
1.7878772020339966	2020727.3024913007
1.7915871143341064	2690125.1793023446
1.7952908277511597	3218688.0771303102
1.7989884614944458	2789602.4913392914
1.8026801347732544	1946992.208315242
1.806365728378296	1424589.849036721
1.8100452423095703	1246932.6177364478
1.8137187957763672	994834.0207931291
1.817386507987976	694899.915282764
1.8210482597351074	1039456.9189157471
1.8247040510177612	1832353.6332618196
1.828354001045227	1850262.2211702627
1.8319982290267944	1240369.3861165566
1.8356364965438843	1211323.178332007
1.8392690420150757	1901399.669682877
1.8428958654403687	2474265.065702195
1.8465168476104736	2416338.8872989574
1.8501322269439697	1942997.205164609
1.8537418842315674	1556069.8369068224
1.8573459386825562	1533066.6618714319
1.860944390296936	1249592.7148570614
1.864537239074707	633697.9827543136
1.8681244850158691	368164.4607106736
1.871706247329712	592227.3311826909
1.8752825260162354	1161434.7238690201
1.8788533210754395	1649728.6927401177
1.8824186325073242	1942498.939560406
1.8859784603118896	2530500.0360415345
1.8895330429077148	3120131.2288925387
1.8930821418762207	2700390.8742494844
1.8966259956359863	1865544.415847355
1.9001644849777222	1435954.7440269743
1.9036977291107178	1107763.683496226
1.9072256088256836	1408348.6676491091
1.9107483625411987	1826208.0687069779
1.9142658710479736	1227552.152415633
1.9177782535552979	730913.886695904
1.9212853908538818	655854.4958027177
1.9247875213623047	382646.6071199491
1.9282845258712769	329470.25203944714
1.9317764043807983	696065.6630782371
1.9352631568908691	1225377.188525215
1.9387450218200684	1322261.5780073528
1.942221760749817	977723.2639633821
1.9456936120986938	725731.606814096
1.9491604566574097	626706.9996836259
1.952622413635254	564564.9723381643
1.956079363822937	691106.8919097647
1.959531545639038	1229645.7605749555
1.962978720664978	1508909.688742659
1.966421127319336	1280863.7040853389
1.9698586463928223	1276527.3346426485
1.9732913970947266	1501206.1356894777
1.9767193794250488	1746214.779678525
1.9801424741744995	2126212.972568345
1.9835609197616577	2384363.052220725
1.9869745969772339	2618099.03535972
1.990383505821228	2927327.037089942
1.9937876462936401	2926120.8042339105
1.9971871376037598	2255094.153910178
2.000581979751587	1671239.7948970003
2.003972291946411	2289865.1001569675
2.007357597351074	3438830.7667678297
2.0107386112213135	4172062.3774536485
2.0141148567199707	4185672.589389131
2.017486572265625	3494211.3944796994
2.0208535194396973	2626185.4268079475
2.0242159366607666	2127336.2738753264
2.027573823928833	2249456.3386251633
2.0309269428253174	2643681.706116294
2.034275770187378	3517745.9855542914
2.0376198291778564	5005457.281626312
2.040959596633911	5953927.798161175
2.044294595718384	6186472.098542877
2.0476250648498535	6178490.320209168
2.0509510040283203	5890640.841371829
2.054272413253784	5685835.06634586
2.057589530944824	5927313.947568281
2.0609018802642822	6331971.74928445
2.0642096996307373	6560776.463702087
2.0675129890441895	6578046.970781901
2.0708119869232178	6456820.147245585
2.074106216430664	6331506.420218049
2.0773961544036865	6355553.649509851
2.080681324005127	6439951.585602699
2.0839622020721436	6426097.920557464
2.087238311767578	6349235.633137001
2.090510129928589	6295349.699926352
2.0937774181365967	6274168.225684954
2.0970399379730225	6199959.723980617
2.1002981662750244	6018538.317623057
2.1035518646240234	5886082.650335437
2.1068007946014404	5887988.056821993
2.1100454330444336	5891629.578285118
2.1132853031158447	5789004.911468927
2.116520881652832	5559231.68023064
2.1197516918182373	5328550.838362075
2.1229779720306396	5196280.963503931
2.12619948387146	5094968.6477592755
2.1294167041778564	5047020.132215523
2.132629156112671	5027137.350171197
2.1358368396759033	4792427.306494941
2.139039993286133	4504615.9816208
2.1422386169433594	4381044.434647846
2.145432472229004	4303508.534854671
2.1486217975616455	4199651.810199729
2.151806354522705	3987700.260792014
2.1549863815307617	3919562.80799413
2.1581614017486572	4075037.9147761012
2.16133189201355	4135774.3326876517
2.1644976139068604	4012867.6801898233
2.167658567428589	3732237.4452756564
2.1708147525787354	3552306.7197624594
2.173966407775879	3685545.539197236
2.1771130561828613	3896144.4187490633
2.1802549362182617	3805911.5440019527
2.183391809463501	3365034.8772268505
2.1865241527557373	2907051.4541755114
2.1896514892578125	2654809.777584068
2.1927738189697266	2359782.4439775483
2.1958916187286377	1785708.1709755366
2.1990041732788086	1202328.3169292265
2.2021119594573975	922484.8425245114
2.2052149772644043	947321.6709804522
2.208312749862671	1167840.2828892902
2.2114057540893555	1499380.6616976464
2.214493751525879	1715684.8286023529
2.217576742172241	1501861.5006691099
2.2206547260284424	1060047.6853349216
2.2237277030944824	790535.9700370032
2.2267956733703613	688756.991854714
2.2298583984375	664738.34937157
2.2329163551330566	674616.5770382464
2.235969066619873	713030.7921193826
2.2390167713165283	714899.1973935917
2.2420592308044434	631105.655301396
2.2450966835021973	537900.1337865535
2.248128890991211	509415.31381137384
2.2511560916900635	558748.8854522445
2.254178285598755	676999.0937898704
2.257194995880127	840137.5106213681
2.260206699371338	796198.0975642344
2.2632133960723877	507141.22864124784
2.266214609146118	412796.40649797564
2.2692108154296875	682344.0475183392
2.2722020149230957	953810.9122039394
2.2751877307891846	918953.0390882463
2.278168201446533	771386.2575159565
2.2811436653137207	761612.9943047483
2.284113883972168	766308.8838172206
2.287078857421875	633060.4034454513
2.290038824081421	499799.2881893229
2.2929933071136475	481767.2478800707
2.295942783355713	470712.5049170671
2.298887014389038	404265.678223991
2.301826238632202	368747.46878390847
2.304760217666626	575007.9442705254
2.3076889514923096	1054349.8151361519
2.310612440109253	1503631.7471225348
2.3135311603546143	1710898.745347581
2.3164443969726562	1469153.6248674465
2.319352865219116	827971.1672267019
2.322256088256836	408250.41178119066
2.3251543045043945	368763.0265017413
2.328047275543213	378729.7671992335
2.330935478210449	354045.5659611704
2.3338186740875244	306804.3656349189
2.3366971015930176	250301.6172561113
2.3395702838897705	208388.82552409405
2.3424389362335205	175486.69122435994
2.3453025817871094	150796.3080795196
2.348161458969116	156329.69595566834
2.351015567779541	265226.2148778625
2.353865146636963	552424.7305858204
2.3567099571228027	913524.2276022044
2.3595502376556396	1139483.2264017814
2.3623859882354736	1098218.9053433114
2.3652172088623047	780338.0629466965
2.368043899536133	401698.46556919726
2.370866537094116	202684.98493716362
2.3736846446990967	186809.977499877
2.3764986991882324	216927.14825155988
2.3793084621429443	242998.91501553843
2.3821144104003906	320743.6744954244
2.384916305541992	446756.1546714775
2.387714147567749	513509.9316751413
2.3905084133148193	473021.1205083275
2.393299102783203	412376.74720580206
2.3960859775543213	365554.7618790792
2.398869514465332	367772.4731110891
2.4016497135162354	497411.61740268546
2.4044265747070312	744156.2893464998
2.407200336456299	947115.776633958
2.409970998764038	964450.4408315276
2.4127390384674072	895335.8562912
2.415503978729248	903791.4686449748
2.418266534805298	1006111.6846057263
2.4210267066955566	1078284.919883405
2.4237842559814453	1021717.0910358825
2.426539897918701	991621.5201064305
2.429293394088745	1181853.41369215
2.4320452213287354	1393036.5696729587
2.4347951412200928	1362764.9505677442
2.4375438690185547	1269478.9419613671
2.440291166305542	1320455.7282758458
2.443037271499634	1353865.5610110818
2.445782423019409	1293465.637717453
2.4485268592834473	1302455.3398679968
2.451270818710327	1421845.247032035
2.454014539718628	1547836.2579245437
2.4567582607269287	1586970.219850809
2.4595019817352295	1590919.65218806
2.4622461795806885	1752020.6695097373
2.4649908542633057	1999578.0689138023
2.4677364826202393	1990236.1664954543
2.4704833030700684	1626765.087273765
2.473231554031372	1146945.7855708508
2.4759814739227295	798882.3146949573
2.4787333011627197	622556.1562882531
2.481487512588501	544528.2044435599
2.4842441082000732	524090.1060431776
