#wavelength	surface flux
0.6450077295303345	57249.351046534066
0.6472567915916443	89964.19865914842
0.6494921445846558	117107.54992006632
0.6517150402069092	134184.77629209205
0.6539263725280762	151558.82331975517
0.6561272740364075	169855.2887643216
0.6583186388015747	189073.43622630165
0.6605015397071838	209107.9862706341
0.6626768708229065	229678.7907436437
0.6648455858230591	249032.73101932323
0.6670085787773132	254663.83918268804
0.6691668033599854	227525.11205319504
0.6713210344314575	216082.23349090325
0.6734722256660461	278373.70936592814
0.6756211519241333	357524.96205947717
0.6777685880661011	404705.1872749366
0.6799154281616211	438600.11033464066
0.6820623278617859	469824.31946836406
0.6842101216316223	500047.95785663923
0.6863595843315125	529338.9793163587
0.688511312007904	556591.7952223443
0.6906660795211792	579221.9837914301
0.6928245425224304	599179.7789019103
0.6949873566627502	624651.5793274603
0.6971551775932312	652957.3970996492
0.6993286609649658	676354.1550597807
0.7015084028244019	696758.8521750473
0.7036949396133423	713910.0323578595
0.7058889269828796	725395.3724230495
0.7080909013748169	732081.9655427702
0.710301399230957	735940.3183499445
0.712520956993103	736005.5955339934
0.7147500514984131	728287.1522217274
0.7169892191886902	712357.6827827456
0.7192389369010925	690269.6148583844
0.7214996814727783	661339.2035839185
0.723771870136261	626839.5075124908
0.7260559797286987	589559.8283104893
0.7283523678779602	548377.5194240678
0.7306615710258484	513111.8497888791
0.7329838871955872	488260.83276426437
0.7353196740150452	452690.9999952909
0.7376693487167358	402261.8797994746
0.7400332689285278	349454.8179374354
0.7424117922782898	297115.35405286
0.7448052167892456	247104.30095229493
0.7472138404846191	199041.88949953648
0.7496379613876343	152853.48269764526
0.7520779371261597	110891.00323692951
0.7545340061187744	74834.37837774993
0.7570064663887024	46037.99581777525
0.7594954967498779	25215.386357821328
0.7620013952255249	11838.147264872727
0.7645244002342224	4449.021239112131
0.7670646905899048	1423.4688443237123
0.7696225643157959	1553.2654270705757
0.7721980810165405	5596.653364032939
0.7747915983200073	15815.481738076349
0.7774031162261963	32226.944493373758
0.7800329327583313	59340.16814107126
0.7826811671257019	110200.5020613983
0.7853479981422424	184121.09070430492
0.7880334854125977	269064.5817798952
0.7907378077507019	327623.7683503293
0.7934610247612	335340.4996945844
0.7962033748626709	446468.3907522623
0.7989648580551147	713496.9930433565
0.801745593547821	966558.0918797213
0.8045456409454346	1173460.6151449832
0.8073651194572449	1375387.3396596438
0.8102040886878967	1574027.0333872153
0.8130625486373901	1808743.643137397
0.8159406185150146	2088211.7645682737
0.8188382983207703	2395909.2120310646
0.8217556476593018	2763069.974538605
0.8246926665306091	3141130.8911448685
0.8276493549346924	3465811.4648063504
0.8306257724761963	3836670.433867672
0.8336219191551208	4326083.972382644
0.8366377949714661	4805337.789462981
0.8396733403205872	5234954.598224702
0.8427285552024841	5716793.083339278
0.8458034992218018	6199570.643344893
0.8488980531692505	6249927.751415704
0.8520121574401855	6146032.371239914
0.8551458716392517	7141502.800791704
0.8582990765571594	8505251.099295754
0.8614717125892639	8739875.324403264
0.8646637797355652	8750518.535978168
0.8678751587867737	9444634.055494228
0.8711057901382446	10258961.651355874
0.8743556141853333	11006867.99656866
0.87762451171875	11895806.163551925
0.8809124231338501	12702996.355714122
0.8842192888259888	13303537.231270421
0.8875449895858765	13538251.467974572
0.8908893465995789	12902651.582162522
0.894252359867096	12164660.687441627
0.8976338505744934	13735790.318592329
0.9010337591171265	17616720.167709276
0.9044519662857056	21313973.225789435
0.9078882932662964	23800940.484253906
0.9113426208496094	25112956.465106767
0.914814829826355	25285781.932586044
0.9183048605918884	25445091.22898379
0.9218124747276306	24285663.251270477
0.925337553024292	19326844.435404047
0.9288799166679382	15558995.29549151
0.9324395060539246	15784949.268024476
0.9360161423683167	16385241.133397587
0.9396095871925354	16150972.40059125
0.943219780921936	15595286.044059487
0.9468464851379395	14331378.152754793
0.9504896402359009	15618438.837824652
0.9541489481925964	21050445.073413353
0.9578243494033813	22533857.809727047
0.9615156054496765	17718423.49392782
0.9652225375175476	13478830.12299557
0.9689450263977051	16612235.40831409
0.9726828336715698	25116155.52633744
0.9764357805252075	29303732.903784063
0.9802037477493286	30592701.18038872
0.983986496925354	36008795.07911092
0.9877838492393494	41199326.633944035
0.9915955662727356	41928651.43024909
0.9954215884208679	40397232.327952355
0.9992615580558777	36122396.68498037
1.0031154155731201	32339982.927351367
1.0069829225540161	34138858.48027206
1.0108637809753418	40620823.21734983
1.0147579908370972	48513393.77099138
1.018665075302124	53633849.85581668
1.022585153579712	53870656.87001239
1.0265177488327026	54596889.67507775
1.0304628610610962	60674928.217305504
1.0344202518463135	67970905.71262339
1.0383895635604858	72563038.12499171
1.0423706769943237	75449463.42856956
1.0463634729385376	77505034.55398642
1.0503677129745483	79340798.14834976
1.0543830394744873	84663205.55200772
1.058409333229065	91575609.34429963
1.0624464750289917	95346475.41038856
1.0664942264556885	97145259.31118424
1.0705522298812866	99012520.98415382
1.0746204853057861	101194943.31977342
1.0786986351013184	102333929.67308578
1.0827864408493042	103097790.30140343
1.086883783340454	95995902.12496118
1.0909905433654785	75624874.93309492
1.0951062440872192	57758227.800810054
1.0992310047149658	42613981.32652247
1.10336434841156	23157114.237949513
1.1075061559677124	13330293.108485337
1.1116561889648438	11597979.930309525
1.115814208984375	8671269.115238395
1.1199802160263062	7777452.372444564
1.124153733253479	8475686.131969824
1.1283347606658936	7074264.80167194
1.1325229406356812	5525065.914039583
1.1367181539535522	9287350.218146197
1.1409201622009277	16906984.956430964
1.145128846168518	20958635.508668784
1.1493438482284546	17683295.016116325
1.1535650491714478	11840993.458730647
1.1577922105789185	9370020.218935218
1.1620250940322876	10083132.107817419
1.1662636995315552	14071873.334568163
1.170507550239563	18932105.482944697
1.174756646156311	24346014.829565044
1.1790107488632202	32911857.773453582
1.1832695007324219	36793244.837053165
1.1875330209732056	33363964.759498123
1.191800832748413	40225978.581061736
1.1960728168487549	57559709.21430482
1.2003488540649414	67148826.77835403
1.2046287059783936	69893653.36023794
1.2089121341705322	71355595.36301547
1.2131990194320679	75757617.83226025
1.2174891233444214	86153219.81190163
1.2217823266983032	94186229.15106553
1.2260783910751343	98452119.55553631
1.230377197265625	104586026.38911587
1.2346785068511963	109100599.68633786
1.238982081413269	106875103.48693264
1.2432878017425537	103199197.81798744
1.2475954294204712	103147088.62535177
1.2519049644470215	103932249.74494782
1.256216049194336	116518550.77962227
1.2605286836624146	128427351.43473393
1.2648425102233887	123621050.39270619
1.2691574096679688	124546738.2828484
1.2734732627868652	134708693.2754729
1.2777899503707886	133116446.10350323
1.2821072340011597	120261757.65159427
1.2864248752593994	116163393.05872662
1.2907428741455078	118127504.51896381
1.2950609922409058	115060676.04138394
1.2993791103363037	96962077.44522935
1.303696870803833	78657704.31971326
1.3080145120620728	76673780.20980285
1.3123314380645752	80164853.05927551
1.3166478872299194	83646228.13645445
1.3209635019302368	73594052.07372935
1.3252781629562378	54864525.08484791
1.3295916318893433	38096987.33697759
1.3339040279388428	18488955.574065443
1.3382149934768677	5345728.937257536
1.3425244092941284	2327605.3648479544
1.3468321561813354	1857804.2518473887
1.3511382341384888	1624898.2746100882
1.3554422855377197	1207987.5219588547
1.3597444295883179	1350242.7213763562
1.3640443086624146	1965310.0812912297
1.3683418035507202	1772990.2860180913
1.3726370334625244	1293580.7191533702
1.3769296407699585	1576875.2384859205
1.381219506263733	1519077.8166647342
1.3855066299438477	865357.8351356105
1.3897908926010132	995853.1336498421
1.3940720558166504	1765610.297927226
1.3983501195907593	1638887.7791875952
1.4026249647140503	1321172.6396732477
1.4068963527679443	1594279.7596023497
1.4111642837524414	1678951.293247396
1.4154287576675415	1636583.426956971
1.419689416885376	1565909.037098973
1.4239463806152344	1568408.997070344
1.4281994104385376	1224263.8499994187
1.4324485063552856	800099.5961282132
1.436693549156189	1233588.6470918122
1.440934419631958	2429364.1862648637
1.4451709985733032	4422990.309860981
1.449403166770935	6541551.576297844
1.453631043434143	6488378.059965098
1.4578542709350586	5647423.297613873
1.4620729684829712	7411856.836933888
1.4662868976593018	9480243.013389286
1.4704961776733398	6925988.763542234
1.4747005701065063	3267971.437760325
1.4788999557495117	4365609.7123909
1.4830944538116455	8227544.221439862
1.4872838258743286	9365169.548746303
1.491468071937561	7296380.5464509465
1.4956470727920532	7325745.540356286
1.4998208284378052	10775771.376834812
1.5039892196655273	12243200.108518776
1.5081522464752197	10052362.37973435
1.5123097896575928	10581655.050180748
1.5164618492126465	17115703.822594456
1.5206083059310913	24265235.3711246
1.5247491598129272	25925284.383881092
1.5288842916488647	25410344.169949487
1.5330137014389038	28042315.73685617
1.5371372699737549	30391504.930354502
1.541254997253418	30113295.588498037
1.545366883277893	32195196.103529748
1.5494728088378906	35142398.89564018
1.5535727739334106	36019223.28774186
1.5576666593551636	37880200.330146804
1.561754584312439	42157657.131416515
1.5658363103866577	47504458.41347735
1.5699119567871094	50034717.149543114
1.5739814043045044	49366840.16827808
1.5780447721481323	50981032.546700664
1.582101821899414	56024612.975960776
1.5861525535583496	60054267.08689907
1.5901970863342285	58808070.57085428
1.5942351818084717	53786492.32195755
1.5982669591903687	52326996.65461477
1.6022924184799194	52750401.64012441
1.606311559677124	49804625.62915463
1.6103241443634033	48652415.55594652
1.6143304109573364	47397773.48383574
1.6183301210403442	42039862.55799711
1.6223233938217163	38338030.94514643
1.6263102293014526	37268674.47546288
1.6302905082702637	38589857.26951378
1.634264349937439	43648595.59183359
1.638231635093689	49550310.9150887
1.6421923637390137	50974971.53605846
1.646146535873413	43805280.26378088
1.6500942707061768	36670471.09243182
1.6540353298187256	37725737.10370772
1.6579699516296387	39643381.9029058
1.661897897720337	37051328.131583914
1.6658192873001099	27177895.05943519
1.6697341203689575	18737110.081098817
1.6736423969268799	22144743.929228947
1.677544116973877	26818641.330163192
1.6814392805099487	26749845.332981713
1.6853278875350952	24235848.53254464
1.6892099380493164	20094624.26553713
1.6930854320526123	16592302.809079498
1.696954369544983	14581136.075651232
1.7008168697357178	14069149.474630792
1.7046726942062378	14270114.289961342
1.708522081375122	15612900.332859335
1.712364912033081	16412762.676441425
1.7162011861801147	16290185.304505955
1.7200311422348022	17772259.907741237
1.723854422569275	18206795.133922525
1.7276713848114014	15888101.241138132
1.731481909751892	13409365.789755372
1.7352858781814575	12670143.336203992
1.7390835285186768	13579895.507364085
1.7428747415542603	13860349.364979126
1.7466596364974976	11380126.741414042
1.7504380941390991	8602455.961850636
1.7542102336883545	9219183.17124299
1.7579760551452637	12232153.428869957
1.7617355585098267	15403865.095630495
1.7654887437820435	15908503.540104039
1.7692357301712036	12041098.83457896
1.7729763984680176	7656510.073980735
1.776710867881775	4789513.98729149
1.7804391384124756	3469774.7671728204
1.7841613292694092	3477451.280433922
1.7878772020339966	3687830.4024245283
1.7915871143341064	5373156.567306916
1.7952908277511597	7031228.907571259
1.7989884614944458	6390231.742805285
1.8026801347732544	4745438.480529792
1.806365728378296	3575784.5888783745
1.8100452423095703	3130155.6846887968
1.8137187957763672	2691298.277685168
1.817386507987976	2019515.3689930267
1.8210482597351074	3740374.375561843
1.8247040510177612	6866656.372484597
1.828354001045227	6109249.707736013
1.8319982290267944	3066570.0753394356
1.8356364965438843	2956265.316977698
1.8392690420150757	4914474.085888107
1.8428958654403687	5525513.86170497
1.8465168476104736	4615747.480208433
1.8501322269439697	3616787.9688906777
1.8537418842315674	3055183.5383270774
1.8573459386825562	3164232.641465488
1.860944390296936	2550919.996515269
1.864537239074707	1131989.2853121152
1.8681244850158691	599264.2713947258
1.871706247329712	1215773.4461106644
1.8752825260162354	2317349.643988232
1.8788533210754395	2808845.7018703637
1.8824186325073242	3260455.002467456
1.8859784603118896	5571256.360872197
1.8895330429077148	7767157.590247623
1.8930821418762207	6197208.57230824
1.8966259956359863	3985538.9211612307
1.9001644849777222	3810714.779909679
1.9036977291107178	3293977.597936484
1.9072256088256836	3945821.966871751
1.9107483625411987	5057692.202410359
1.9142658710479736	3642535.8048040606
1.9177782535552979	2829618.0969786225
1.9212853908538818	2717470.698289318
1.9247875213623047	1348335.4157088683
1.9282845258712769	747693.7767374599
1.9317764043807983	2263298.117913875
1.9352631568908691	5049560.737295897
1.9387450218200684	5416980.21756603
1.942221760749817	2972243.0514673884
1.9456936120986938	1391017.400996923
1.9491604566574097	1216496.5537976408
1.952622413635254	1906451.4548896875
1.956079363822937	4145470.4889800246
1.959531545639038	6443205.565235918
1.962978720664978	5627307.892468869
1.966421127319336	3826643.7039762507
1.9698586463928223	4320145.033527294
1.9732913970947266	5073775.179393824
1.9767193794250488	5359200.960279295
1.9801424741744995	5918591.289930094
1.9835609197616577	6131369.810602396
1.9869745969772339	7337398.386175713
1.990383505821228	8616676.651596231
1.9937876462936401	8333803.385781689
1.9971871376037598	6903019.213999318
2.000581979751587	5436829.058619154
2.003972291946411	6548364.6779543245
2.007357597351074	8643740.050501086
2.0107386112213135	9494449.45961367
2.0141148567199707	9036096.016552763
2.017486572265625	7638958.106999058
2.0208535194396973	7869425.652594273
2.0242159366607666	9359792.646620324
2.027573823928833	9655282.72014881
2.0309269428253174	9426174.453526318
2.034275770187378	10814693.280805754
2.0376198291778564	14237164.88275228
2.040959596633911	17379407.06459628
2.044294595718384	18355326.525741644
2.0476250648498535	18098931.99392943
2.0509510040283203	16667282.645422107
2.054272413253784	14829429.726475796
2.057589530944824	15513326.787781378
2.0609018802642822	18297079.541059654
2.0642096996307373	20391164.36109827
2.0675129890441895	21215431.875800148
2.0708119869232178	21256612.130084116
2.074106216430664	20781888.47409062
2.0773961544036865	21081194.731776357
2.080681324005127	21942452.392554943
2.0839622020721436	21921939.838991765
2.087238311767578	21171495.3961398
2.090510129928589	20646143.937669292
2.0937774181365967	20819320.312232148
2.0970399379730225	20851915.78819591
2.1002981662750244	19811479.812400807
2.1035518646240234	18958535.840617903
2.1068007946014404	19188564.626495082
2.1100454330444336	19430505.26759912
2.1132853031158447	19001683.795860797
2.116520881652832	17843687.88844135
2.1197516918182373	16669422.208191713
2.1229779720306396	16143744.276860729
2.12619948387146	15799050.65362492
2.1294167041778564	15678782.124480177
2.132629156112671	15946104.159546142
2.1358368396759033	15383308.422639152
2.139039993286133	14241892.590469413
2.1422386169433594	13375139.222100182
2.145432472229004	12565662.680025233
2.1486217975616455	11937808.764638614
2.151806354522705	11178286.996097974
2.1549863815307617	11066401.520619348
2.1581614017486572	11850863.48912252
2.16133189201355	12267190.701167013
2.1644976139068604	12016117.861225944
2.167658567428589	10958302.567049434
2.1708147525787354	9902433.190805443
2.173966407775879	9982949.239808418
2.1771130561828613	10627666.719598716
2.1802549362182617	10538377.865865171
2.183391809463501	9521492.216955826
2.1865241527557373	8521525.70839393
2.1896514892578125	7836338.734708907
2.1927738189697266	6734512.19538864
2.1958916187286377	4785521.039008013
2.1990041732788086	2805100.498434089
2.2021119594573975	1852706.0946377516
2.2052149772644043	1850302.6623979309
2.208312749862671	2230302.377234816
2.2114057540893555	2892358.414642896
2.214493751525879	3437791.1720253844
2.217576742172241	3154879.5108541762
2.2206547260284424	2521621.710059608
2.2237277030944824	2137781.205386924
2.2267956733703613	1755986.6381721734
2.2298583984375	1430778.1407077392
2.2329163551330566	1336096.9285394698
2.235969066619873	1426788.1800308772
2.2390167713165283	1443957.0453995941
2.2420592308044434	1256795.6814730973
2.2450966835021973	1071353.3634190406
2.248128890991211	1024159.2939047251
2.2511560916900635	1099331.9382962715
2.254178285598755	1374578.4706255621
2.257194995880127	1888753.2111452117
2.260206699371338	1900471.2629544118
2.2632133960723877	1165427.2690117953
2.266214609146118	833809.2699965562
2.2692108154296875	1356232.1023801272
2.2722020149230957	1887789.018828482
2.2751877307891846	1800250.2434905407
2.278168201446533	1500184.407663608
2.2811436653137207	1446488.0313883577
2.284113883972168	1387017.964856457
2.287078857421875	1111778.770068692
2.290038824081421	892806.0855195067
2.2929933071136475	891819.901892259
2.295942783355713	937214.6671843954
2.298887014389038	1009549.7912348877
2.301826238632202	1216983.3205044249
2.304760217666626	1582096.7481982624
2.3076889514923096	2151175.3319967855
2.310612440109253	2932375.471493154
2.3135311603546143	3641319.0085517233
2.3164443969726562	3364672.04776691
2.319352865219116	1933678.52964484
2.322256088256836	849437.4598787725
2.3251543045043945	625921.0127343091
2.328047275543213	589052.3675188079
2.330935478210449	576652.0329204506
2.3338186740875244	543541.616864408
2.3366971015930176	463643.09207051026
2.3395702838897705	403583.130276639
2.3424389362335205	380581.7657377107
2.3453025817871094	364299.3909699583
2.348161458969116	358349.5853105269
2.351015567779541	516319.8346931012
2.353865146636963	1007418.5224899538
2.3567099571228027	1660546.9907826695
2.3595502376556396	2104542.0229174583
2.3623859882354736	2061822.391496733
2.3652172088623047	1473182.8528741791
2.368043899536133	761978.138211066
2.370866537094116	393354.00314329687
2.3736846446990967	360776.27802254603
2.3764986991882324	411604.0142060293
2.3793084621429443	439908.43153805955
2.3821144104003906	533485.2985627078
2.384916305541992	738316.8617193494
2.387714147567749	891172.5664601355
2.3905084133148193	843126.8515086699
2.393299102783203	730047.3886118518
2.3960859775543213	649342.1466717926
2.398869514465332	656999.3822616317
2.4016497135162354	877285.6378192368
2.4044265747070312	1296309.6605479023
2.407200336456299	1608973.338858739
2.409970998764038	1566571.9858503616
2.4127390384674072	1390860.3293607512
2.415503978729248	1371829.1147345896
2.418266534805298	1509608.3455925432
2.4210267066955566	1615997.9847454666
2.4237842559814453	1559773.0658065635
2.426539897918701	1566677.0609105255
2.429293394088745	1901304.2886408325
2.4320452213287354	2228079.2340474525
2.4347951412200928	2142741.8415867253
2.4375438690185547	1934471.5895571876
2.440291166305542	1939094.4801115731
2.443037271499634	1971216.5186625172
2.445782423019409	1936637.973305047
2.4485268592834473	2004509.8648790342
2.451270818710327	2154252.799421976
2.454014539718628	2284951.9713062206
2.4567582607269287	2349529.1908843378
2.4595019817352295	2400323.2616167786
2.4622461795806885	2753611.793322868
2.4649908542633057	3210714.6969070984
2.4677364826202393	3078341.5186262648
2.4704833030700684	2328414.175147417
2.473231554031372	1514212.0680700417
2.4759814739227295	1010245.8610160764
2.4787333011627197	792149.8988081727
