#wavelength	surface flux
0.6450077295303345	101063.07475882127
0.6472567915916443	152423.12746539866
0.6494921445846558	183793.97282735203
0.6517150402069092	192366.10892384604
0.6539263725280762	199678.113585589
0.6561272740364075	207008.44517195807
0.6583186388015747	214476.40446469584
0.6605015397071838	222141.89901428306
0.6626768708229065	229910.5503456683
0.6648455858230591	237622.5054560119
0.6670085787773132	242478.15669924772
0.6691668033599854	238883.5316942516
0.6713210344314575	239987.85161386925
0.6734722256660461	258711.26363537865
0.6756211519241333	277811.90287218307
0.6777685880661011	288589.38901938946
0.6799154281616211	297816.3955698233
0.6820623278617859	307107.0515692111
0.6842101216316223	316635.3670516994
0.6863595843315125	326285.18225462735
0.688511312007904	335865.25185577583
0.6906660795211792	344981.29130264383
0.6928245425224304	354330.5685739819
0.6949873566627502	365221.9663159332
0.6971551775932312	376696.1657560465
0.6993286609649658	387594.6142444979
0.7015084028244019	398340.896356987
0.7036949396133423	409590.97974423534
0.7058889269828796	421334.80936863704
0.7080909013748169	432983.10405397724
0.710301399230957	444733.08182044234
0.712520956993103	456751.29950443585
0.7147500514984131	468090.0276737732
0.7169892191886902	478854.25723820063
0.7192389369010925	490878.70768805855
0.7214996814727783	503591.8584452204
0.723771870136261	515539.04988612945
0.7260559797286987	527351.2145062663
0.7283523678779602	539312.4080952799
0.7306615710258484	551805.9558381661
0.7329838871955872	565213.7768192608
0.7353196740150452	578240.1999258649
0.7376693487167358	590429.4002039591
0.7400332689285278	601613.3226778792
0.7424117922782898	610556.1214609866
0.7448052167892456	617036.0700363709
0.7472138404846191	619829.055957033
0.7496379613876343	616061.4832366379
0.7520779371261597	601725.2424538238
0.7545340061187744	570071.9783874736
0.7570064663887024	510271.21786101384
0.7594954967498779	408273.5741469471
0.7620013952255249	262093.7047155159
0.7645244002342224	114857.9964367394
0.7670646905899048	31811.507996883785
0.7696225643157959	35729.10799648886
0.7721980810165405	138871.84408446858
0.7747915983200073	326251.8573824727
0.7774031162261963	508070.1176455467
0.7800329327583313	639587.982690682
0.7826811671257019	757891.7069621417
0.7853479981422424	862090.7146088191
0.7880334854125977	932360.1782128408
0.7907378077507019	942688.5757244045
0.7934610247612	864641.7334186368
0.7962033748626709	879404.1554339257
0.7989648580551147	1045537.1236358652
0.801745593547821	1160360.645796699
0.8045456409454346	1203509.09713274
0.8073651194572449	1239365.6794096765
0.8102040886878967	1270677.1992333413
0.8130625486373901	1304168.6723097567
0.8159406185150146	1346146.5098032611
0.8188382983207703	1389374.8143958605
0.8217556476593018	1428296.7407055516
0.8246926665306091	1468040.02548225
0.8276493549346924	1508906.7134748523
0.8306257724761963	1548376.5254352263
0.8336219191551208	1588732.58094864
0.8366377949714661	1629335.2952537653
0.8396733403205872	1673881.712966886
0.8427285552024841	1725540.6417107112
0.8458034992218018	1776993.6358468798
0.8488980531692505	1823954.6445911808
0.8520121574401855	1870499.4312327385
0.8551458716392517	1922691.099411866
0.8582990765571594	1974591.3144519066
0.8614717125892639	2016843.6312892083
0.8646637797355652	2061102.2910259168
0.8678751587867737	2117062.528093003
0.8711057901382446	2175435.5270363213
0.8743556141853333	2230328.123488271
0.87762451171875	2281800.6795324385
0.8809124231338501	2332961.9287702492
0.8842192888259888	2387660.9697347307
0.8875449895858765	2439121.137404858
0.8908893465995789	2477417.6067913314
0.894252359867096	2518271.5786740743
0.8976338505744934	2589911.3532439
0.9010337591171265	2680657.271146609
0.9044519662857056	2763246.3321340443
0.9078882932662964	2835368.94599803
0.9113426208496094	2901089.5696865926
0.914814829826355	2955467.21166562
0.9183048605918884	3012502.372357377
0.9218124747276306	3066860.272809926
0.925337553024292	3023215.9599910174
0.9288799166679382	2886488.733143147
0.9324395060539246	2857316.05044179
0.9360161423683167	2989789.478125874
0.9396095871925354	3146812.689144726
0.943219780921936	3199682.307610443
0.9468464851379395	3205686.2378285434
0.9504896402359009	3291708.062955535
0.9541489481925964	3419040.166148746
0.9578243494033813	3480418.375398604
0.9615156054496765	3459486.1950088902
0.9652225375175476	3486011.2691915315
0.9689450263977051	3644044.7689391063
0.9726828336715698	3887541.3797039944
0.9764357805252075	4081868.0447286973
0.9802037477493286	4207043.350997947
0.983986496925354	4331162.403137119
0.9877838492393494	4464197.970960652
0.9915955662727356	4605239.868441763
0.9954215884208679	4735759.659344356
0.9992615580558777	4850533.097739257
1.0031154155731201	4959630.03685259
1.0069829225540161	5079241.374620424
1.0108637809753418	5210571.443244282
1.0147579908370972	5342686.640866305
1.018665075302124	5462737.829639205
1.022585153579712	5558896.357286314
1.0265177488327026	5640579.125644264
1.0304628610610962	5743996.17362487
1.0344202518463135	5889966.121613991
1.0383895635604858	6037267.289773047
1.0423706769943237	6161201.551191154
1.0463634729385376	6274983.504343247
1.0503677129745483	6385864.713327691
1.0543830394744873	6508349.250344582
1.058409333229065	6637141.9489224255
1.0624464750289917	6759060.473957098
1.0664942264556885	6875270.427924543
1.0705522298812866	6990967.038571928
1.0746204853057861	7114708.270251794
1.0786986351013184	7243950.526091546
1.0827864408493042	7368043.006077326
1.086883783340454	7467626.045371605
1.0909905433654785	7529174.012362004
1.0951062440872192	7523834.726316122
1.0992310047149658	7254990.097405519
1.10336434841156	6779904.310030152
1.1075061559677124	6615136.467399922
1.1116561889648438	6613590.818737116
1.115814208984375	6433905.567794515
1.1199802160263062	6333933.562397803
1.124153733253479	6522415.31943603
1.1283347606658936	6710048.081231535
1.1325229406356812	6513559.327297138
1.1367181539535522	6677941.585206426
1.1409201622009277	7405876.138694404
1.145128846168518	7836033.572802273
1.1493438482284546	7445866.17748955
1.1535650491714478	6579393.588573653
1.1577922105789185	6339375.674038579
1.1620250940322876	6887182.05260334
1.1662636995315552	7660071.152348645
1.170507550239563	8206654.880916994
1.174756646156311	8717864.548882656
1.1790107488632202	9390038.653278874
1.1832695007324219	9897218.582587814
1.1875330209732056	10201904.566281114
1.191800832748413	10482698.302336492
1.1960728168487549	10798366.784717545
1.2003488540649414	11038082.353626136
1.2046287059783936	11202293.78654887
1.2089121341705322	11372059.350501
1.2131990194320679	11567902.07176561
1.2174891233444214	11780525.770628957
1.2217823266983032	11988713.399409166
1.2260783910751343	12179107.445725989
1.230377197265625	12350652.188659575
1.2346785068511963	12511565.646600397
1.238982081413269	12682801.668451512
1.2432878017425537	12852249.697786072
1.2475954294204712	12998449.601470575
1.2519049644470215	13135666.756275047
1.256216049194336	13305344.743852789
1.2605286836624146	13471306.04538108
1.2648425102233887	13600725.041505171
1.2691574096679688	13725258.093633952
1.2734732627868652	13860489.346635917
1.2777899503707886	13995898.771643968
1.2821072340011597	14109886.633039165
1.2864248752593994	14180205.572517257
1.2907428741455078	14209497.646023724
1.2950609922409058	14295173.774217263
1.2993791103363037	14393829.26946505
1.303696870803833	14418084.305616355
1.3080145120620728	14482593.406389218
1.3123314380645752	14647869.04456916
1.3166478872299194	14858561.24218992
1.3209635019302368	14819073.428275775
1.3252781629562378	14285258.184934255
1.3295916318893433	12858011.343697997
1.3339040279388428	9938718.964884765
1.3382149934768677	6222370.137565672
1.3425244092941284	4191523.0954090846
1.3468321561813354	4248473.462712372
1.3511382341384888	3767281.7415487017
1.3554422855377197	2796023.085867021
1.3597444295883179	2581597.5737338094
1.3640443086624146	2854831.2006675606
1.3683418035507202	3564528.5264457827
1.3726370334625244	5232842.041285845
1.3769296407699585	6747964.851973163
1.381219506263733	5403678.336521758
1.3855066299438477	2898499.557431397
1.3897908926010132	2102540.1306207655
1.3940720558166504	2293586.703835729
1.3983501195907593	2772936.0944584156
1.4026249647140503	4127301.635647423
1.4068963527679443	5204642.209780728
1.4111642837524414	4266754.18692697
1.4154287576675415	3460906.314624141
1.419689416885376	3585016.4376878007
1.4239463806152344	3514844.960367398
1.4281994104385376	4061809.415563439
1.4324485063552856	4495976.502810144
1.436693549156189	4499932.217361384
1.440934419631958	5264157.033888851
1.4451709985733032	7021970.045749843
1.449403166770935	9247265.38210455
1.453631043434143	10642018.575258927
1.4578542709350586	11252398.240295347
1.4620729684829712	11911635.591126591
1.4662868976593018	12021758.083167622
1.4704961776733398	11554499.56601865
1.4747005701065063	11435185.252375066
1.4788999557495117	11933988.601819843
1.4830944538116455	13163763.023927331
1.4872838258743286	14482991.363421772
1.491468071937561	14895532.833188616
1.4956470727920532	14849338.005972901
1.4998208284378052	15432364.191341046
1.5039892196655273	16298944.757467607
1.5081522464752197	16553112.76327188
1.5123097896575928	16849444.33640844
1.5164618492126465	17686708.012628384
1.5206083059310913	18786319.95535231
1.5247491598129272	19563709.7366613
1.5288842916488647	19749532.563110065
1.5330137014389038	20026727.46914937
1.5371372699737549	20485032.515905466
1.541254997253418	20705307.3484478
1.545366883277893	20945183.097821213
1.5494728088378906	21332144.15272442
1.5535727739334106	21561371.44884799
1.5576666593551636	21546153.502106264
1.561754584312439	21704494.08596457
1.5658363103866577	22202822.496297803
1.5699119567871094	22538564.198848654
1.5739814043045044	22378761.593794152
1.5780447721481323	22022332.173623674
1.582101821899414	22275398.631532654
1.5861525535583496	23040554.88477089
1.5901970863342285	23413641.175052978
1.5942351818084717	23353633.788602266
1.5982669591903687	23208268.311954454
1.6022924184799194	23200286.24480384
1.606311559677124	23352919.711623527
1.6103241443634033	23398448.45503787
1.6143304109573364	23275860.05122162
1.6183301210403442	23094214.990542732
1.6223233938217163	22884045.75486644
1.6263102293014526	22630712.49075701
1.6302905082702637	22345771.551184982
1.634264349937439	22681465.596968517
1.638231635093689	23744709.92399896
1.6421923637390137	24335450.75867691
1.646146535873413	23951779.01571209
1.6500942707061768	23492118.91580848
1.6540353298187256	23786510.227427613
1.6579699516296387	24219897.801274166
1.661897897720337	23648265.117795847
1.6658192873001099	21882705.946591724
1.6697341203689575	21257049.54221611
1.6736423969268799	22798951.87800078
1.677544116973877	23855538.344414566
1.6814392805099487	23810151.15253699
1.6853278875350952	23681657.798708104
1.6892099380493164	23317812.321646497
1.6930854320526123	22366832.460725054
1.696954369544983	21321113.443617217
1.7008168697357178	21166163.519302983
1.7046726942062378	21627450.056733068
1.708522081375122	22161630.09604008
1.712364912033081	22658615.05566916
1.7162011861801147	23195079.920353524
1.7200311422348022	23758883.376855586
1.723854422569275	23893723.15512255
1.7276713848114014	23581515.08327229
1.731481909751892	22950538.34336409
1.7352858781814575	22222806.33929677
1.7390835285186768	21755166.9371696
1.7428747415542603	21217598.937611945
1.7466596364974976	20265178.74688135
1.7504380941390991	18979595.194899954
1.7542102336883545	18154241.568862326
1.7579760551452637	19496033.744863402
1.7617355585098267	21209623.058322065
1.7654887437820435	20218618.520665303
1.7692357301712036	17274812.55178966
1.7729763984680176	13575010.492104629
1.776710867881775	9833053.455107067
1.7804391384124756	8340770.797021944
1.7841613292694092	8490933.376507573
1.7878772020339966	7795182.000029687
1.7915871143341064	8042259.751686404
1.7952908277511597	9627119.358255815
1.7989884614944458	9594957.76639226
1.8026801347732544	6878321.529032971
1.806365728378296	3949958.7706252886
1.8100452423095703	4013806.4714712338
1.8137187957763672	5098189.383175398
1.817386507987976	4486738.33803501
1.8210482597351074	5224915.410111866
1.8247040510177612	5850854.736799236
1.828354001045227	3755867.6761213834
1.8319982290267944	3164945.422649512
1.8356364965438843	5076518.321927263
1.8392690420150757	6915195.48683328
1.8428958654403687	7226546.712510439
1.8465168476104736	7092391.946838962
1.8501322269439697	7094008.0403761575
1.8537418842315674	5498878.341926879
1.8573459386825562	3997257.2207421856
1.860944390296936	3565465.154376201
1.864537239074707	2830845.1679260936
1.8681244850158691	3217118.934348067
1.871706247329712	5250760.200371967
1.8752825260162354	7481168.459176918
1.8788533210754395	9959731.096030338
1.8824186325073242	11722561.31979725
1.8859784603118896	11043038.416595029
1.8895330429077148	10278489.496229317
1.8930821418762207	11810916.01275501
1.8966259956359863	11483645.656955104
1.9001644849777222	6880950.324113544
1.9036977291107178	3581342.5003565336
1.9072256088256836	3971897.4762103516
1.9107483625411987	3952379.661739855
1.9142658710479736	2440433.5254517794
1.9177782535552979	2275541.9148699353
1.9212853908538818	3229956.8797176806
1.9247875213623047	3307150.816746795
1.9282845258712769	3423616.626148496
1.9317764043807983	4473248.09651259
1.9352631568908691	4963614.4654849
1.9387450218200684	4669761.106244038
1.942221760749817	5010751.716169104
1.9456936120986938	5660438.117973646
1.9491604566574097	6228151.716536995
1.952622413635254	5948658.2966390895
1.956079363822937	4873453.680123289
1.959531545639038	4863166.181628476
1.962978720664978	5418144.791236347
1.966421127319336	6758777.305120171
1.9698586463928223	9149109.7796112
1.9732913970947266	10348474.16616196
1.9767193794250488	10956945.481314994
1.9801424741744995	12647243.081155129
1.9835609197616577	14318671.342479968
1.9869745969772339	14388504.813099425
1.990383505821228	12807246.77731203
1.9937876462936401	12287020.827102294
1.9971871376037598	12613923.034321982
2.000581979751587	13428570.419193136
2.003972291946411	15916543.563786428
2.007357597351074	17938373.54381292
2.0107386112213135	19493600.80804528
2.0141148567199707	20084088.340454157
2.017486572265625	18891362.499774076
2.0208535194396973	19310639.55186491
2.0242159366607666	21485555.35656163
2.027573823928833	22787157.80561453
2.0309269428253174	23544575.02543744
2.034275770187378	24527667.106138997
2.0376198291778564	25302227.57985096
2.040959596633911	25938415.2155336
2.044294595718384	26803178.587048408
2.0476250648498535	27683099.45724029
2.0509510040283203	27847518.595497284
2.054272413253784	27419758.683607284
2.057589530944824	27586897.29619643
2.0609018802642822	28275490.304889407
2.0642096996307373	28817909.336889636
2.0675129890441895	29172557.60636724
2.0708119869232178	29338376.478994388
2.074106216430664	29266167.416783918
2.0773961544036865	29187973.433594316
2.080681324005127	29338547.329246413
2.0839622020721436	29538050.01711776
2.087238311767578	29668621.253979247
2.090510129928589	29662365.235160965
2.0937774181365967	29522929.160149403
2.0970399379730225	29493015.846812885
2.1002981662750244	29510915.89247676
2.1035518646240234	29372226.285379723
2.1068007946014404	29174582.97204946
2.1100454330444336	29280986.95586347
2.1132853031158447	29514896.274569046
2.116520881652832	29392192.119726032
2.1197516918182373	29211978.46925573
2.1229779720306396	29281120.664046135
2.12619948387146	29417853.866445
2.1294167041778564	29469255.46792561
2.132629156112671	29480964.750497095
2.1358368396759033	29309820.409630843
2.139039993286133	28934985.427119777
2.1422386169433594	28559585.959391695
2.145432472229004	28240519.619415324
2.1486217975616455	28001215.23861977
2.151806354522705	27712575.53975606
2.1549863815307617	27663228.00892943
2.1581614017486572	27727134.69519828
2.16133189201355	27419825.8739514
2.1644976139068604	27143920.426387805
2.167658567428589	27104580.264767926
2.1708147525787354	27155799.301944055
2.173966407775879	27133070.143822584
2.1771130561828613	26963710.991939824
2.1802549362182617	26698445.301782753
2.183391809463501	26265192.39560408
2.1865241527557373	25678038.539083432
2.1896514892578125	24851539.52376716
2.1927738189697266	23156716.127558455
2.1958916187286377	20375825.75713287
2.1990041732788086	17673370.56318106
2.2021119594573975	16157414.071624534
2.2052149772644043	15661386.431921385
2.208312749862671	15957080.201633167
2.2114057540893555	16990915.306156896
2.214493751525879	17919049.14745097
2.217576742172241	17910791.275402725
2.2206547260284424	17541567.396484725
2.2237277030944824	17208461.566262584
2.2267956733703613	16103489.122815687
2.2298583984375	14484811.645723391
2.2329163551330566	13446049.699078972
2.235969066619873	13149374.517715836
2.2390167713165283	12817672.386098165
2.2420592308044434	11735287.144665172
2.2450966835021973	10535798.849084165
2.248128890991211	10711747.040908223
2.2511560916900635	11876570.816436414
2.254178285598755	12553810.812896218
2.257194995880127	12959223.120772855
2.260206699371338	12983884.922396854
2.2632133960723877	11858244.10520945
2.266214609146118	10413489.289621988
2.2692108154296875	9924891.86796549
2.2722020149230957	10628870.141416347
2.2751877307891846	11513810.895228755
2.278168201446533	11457444.760740954
2.2811436653137207	10743719.326244807
2.284113883972168	10153716.662453871
2.287078857421875	9638147.436628232
2.290038824081421	9073695.856045365
2.2929933071136475	8701867.202738604
2.295942783355713	8470504.837090746
2.298887014389038	8229419.347607678
2.301826238632202	8150997.31229696
2.304760217666626	8518728.947301792
2.3076889514923096	9348744.481344601
2.310612440109253	10238740.745397922
2.3135311603546143	10018152.684970243
2.3164443969726562	7978356.592888797
2.319352865219116	5875552.591793799
2.322256088256836	5239581.677464618
2.3251543045043945	5217542.632908245
2.328047275543213	5134327.741596823
2.330935478210449	5221247.894771677
2.3338186740875244	5388071.12117869
2.3366971015930176	5474533.79863427
2.3395702838897705	5532689.388530553
2.3424389362335205	5453128.707394127
2.3453025817871094	5244365.07964785
2.348161458969116	5199605.85025417
2.351015567779541	5679981.213816887
2.353865146636963	6642120.2130161505
2.3567099571228027	7461614.338080893
2.3595502376556396	8082936.707309863
2.3623859882354736	8798294.724576376
2.3652172088623047	8639226.414598122
2.368043899536133	6754139.885104288
2.370866537094116	4698460.567599514
2.3736846446990967	4321247.15684529
2.3764986991882324	4727574.359627058
2.3793084621429443	4759329.734500049
2.3821144104003906	5005582.31504148
2.384916305541992	6023093.183330245
2.387714147567749	7168905.03009453
2.3905084133148193	7547912.300386601
2.393299102783203	7406393.414424736
2.3960859775543213	7164741.442246638
2.398869514465332	6999309.824940675
2.4016497135162354	6801951.241457517
2.4044265747070312	6618296.959926477
2.407200336456299	7139655.679841843
2.409970998764038	8215206.984418116
2.4127390384674072	8889179.248727
2.415503978729248	9202634.962245964
2.418266534805298	9922612.38195224
2.4210267066955566	10541492.246419134
2.4237842559814453	9962860.916029882
2.426539897918701	8963910.878046775
2.429293394088745	9069535.480510436
2.4320452213287354	9971037.957043285
2.4347951412200928	10461925.903309515
2.4375438690185547	10365350.945103597
2.440291166305542	10064380.622514185
2.443037271499634	9456030.514936224
2.445782423019409	8416117.085529346
2.4485268592834473	7318917.031425322
2.451270818710327	6974512.103021196
2.454014539718628	8091141.566570951
2.4567582607269287	9338821.546974005
2.4595019817352295	9132483.64444691
2.4622461795806885	9204189.965091147
2.4649908542633057	9352176.323212253
2.4677364826202393	7696533.961659213
2.4704833030700684	5547308.521350624
2.473231554031372	4062238.754394047
2.4759814739227295	3125398.973395479
2.4787333011627197	2808923.432082412
2.481487512588501	3276415.7535417224
