#wavelength	surface flux
0.6450077295303345	738982.7827626783
0.6472567915916443	1155147.8780500148
0.6494921445846558	1486554.1180213992
0.6517150402069092	1677996.4179874978
0.6539263725280762	1869754.1572633781
0.6561272740364075	2069785.94515185
0.6583186388015747	2274404.16580844
0.6605015397071838	2475546.1890466795
0.6626768708229065	2655621.229966095
0.6648455858230591	2765136.8066616263
0.6670085787773132	2609140.0801441786
0.6691668033599854	2022576.4488187723
0.6713210344314575	1716424.1929172918
0.6734722256660461	2447010.209965104
0.6756211519241333	3518559.919239422
0.6777685880661011	4196555.14681855
0.6799154281616211	4609612.697450777
0.6820623278617859	4934964.981659551
0.6842101216316223	5226029.723322498
0.6863595843315125	5488296.86676755
0.688511312007904	5709411.934938496
0.6906660795211792	5897876.357281318
0.6928245425224304	6102406.067971231
0.6949873566627502	6362448.510390015
0.6971551775932312	6649950.75827482
0.6993286609649658	6878246.437356026
0.7015084028244019	7020474.220557578
0.7036949396133423	7107120.937911289
0.7058889269828796	7149568.407438169
0.7080909013748169	7149162.116104654
0.710301399230957	7107063.425021455
0.712520956993103	7021273.833471113
0.7147500514984131	6883143.777923507
0.7169892191886902	6692205.29555957
0.7192389369010925	6457226.404585306
0.7214996814727783	6179881.155187379
0.723771870136261	5859967.45489437
0.7260559797286987	5504555.37812855
0.7283523678779602	5118761.873489432
0.7306615710258484	4726230.229651001
0.7329838871955872	4339089.570227209
0.7353196740150452	3918876.1327786907
0.7376693487167358	3463970.8370108893
0.7400332689285278	3007133.154041882
0.7424117922782898	2557928.539532049
0.7448052167892456	2124973.7684240234
0.7472138404846191	1713165.1315469586
0.7496379613876343	1327219.7697371761
0.7520779371261597	977658.1702586667
0.7545340061187744	673253.2160587942
0.7570064663887024	421866.8975318292
0.7594954967498779	230783.22503767523
0.7620013952255249	103033.35105044529
0.7645244002342224	33878.2851656289
0.7670646905899048	8309.343931177767
0.7696225643157959	9298.240095435489
0.7721980810165405	42419.33620624175
0.7747915983200073	132366.4469477191
0.7774031162261963	277035.79165808647
0.7800329327583313	501977.2180465428
0.7826811671257019	905605.3182417494
0.7853479981422424	1468584.654001247
0.7880334854125977	2083368.58435449
0.7907378077507019	2482170.2143073916
0.7934610247612	2492280.5525628803
0.7962033748626709	3230238.9788912185
0.7989648580551147	5089251.221296573
0.801745593547821	6855419.687710543
0.8045456409454346	8291621.250407899
0.8073651194572449	9745791.922908824
0.8102040886878967	11269601.29628916
0.8130625486373901	12884794.764814422
0.8159406185150146	14276953.80780887
0.8188382983207703	15672017.096520143
0.8217556476593018	18194887.471292775
0.8246926665306091	21348221.55626157
0.8276493549346924	24095709.706300292
0.8306257724761963	26835174.357071433
0.8336219191551208	29882678.94306509
0.8366377949714661	33015557.45647671
0.8396733403205872	36183628.530318916
0.8427285552024841	39543900.93535252
0.8458034992218018	42370851.922449574
0.8488980531692505	41545694.43431974
0.8520121574401855	39585110.98644597
0.8551458716392517	45940119.58137642
0.8582990765571594	53227226.10632382
0.8614717125892639	48242975.598008454
0.8646637797355652	41553715.659905076
0.8678751587867737	43383813.665396705
0.8711057901382446	46982390.932586364
0.8743556141853333	50168472.9749375
0.87762451171875	55152286.24542351
0.8809124231338501	59719287.97524592
0.8842192888259888	63731069.73808737
0.8875449895858765	66297853.86412798
0.8908893465995789	64720754.232092075
0.894252359867096	65690642.24314355
0.8976338505744934	77402420.03399505
0.9010337591171265	93862681.33978385
0.9044519662857056	106399255.7621924
0.9078882932662964	115686529.00635493
0.9113426208496094	124394488.4922133
0.914814829826355	130972992.26650965
0.9183048605918884	136386961.43819046
0.9218124747276306	138834700.05573374
0.925337553024292	132187749.09262182
0.9288799166679382	125549191.3862792
0.9324395060539246	128872096.04517345
0.9360161423683167	137726465.61711943
0.9396095871925354	144694869.21014184
0.943219780921936	146114059.0533126
0.9468464851379395	144328273.48876098
0.9504896402359009	152524662.5883617
0.9541489481925964	173248199.15117264
0.9578243494033813	183689006.49783424
0.9615156054496765	172134927.52445173
0.9652225375175476	157813966.63837737
0.9689450263977051	170005372.26651984
0.9726828336715698	201460844.33192447
0.9764357805252075	217792494.84620816
0.9802037477493286	219963809.57257095
0.983986496925354	223111407.16866875
0.9877838492393494	210045692.11024562
0.9915955662727356	179121711.1441312
0.9954215884208679	156439593.84856075
0.9992615580558777	139662708.0469877
1.0031154155731201	128441341.93649082
1.0069829225540161	133704313.15080534
1.0108637809753418	149476957.18533608
1.0147579908370972	167346192.33867207
1.018665075302124	179972785.69352332
1.022585153579712	182791910.09953818
1.0265177488327026	184381429.81669214
1.0304628610610962	197357916.8298249
1.0344202518463135	216946985.26741698
1.0383895635604858	231033318.21872815
1.0423706769943237	239180761.20202884
1.0463634729385376	248612627.1680629
1.0503677129745483	258524139.84343228
1.0543830394744873	269033870.0451355
1.058409333229065	280389084.09312457
1.0624464750289917	289498221.75603545
1.0664942264556885	298044314.8043318
1.0705522298812866	308136572.85488003
1.0746204853057861	320046090.06444
1.0786986351013184	330295452.9168932
1.0827864408493042	336975445.532968
1.086883783340454	333008929.33075535
1.0909905433654785	312897328.77348804
1.0951062440872192	288435637.65687037
1.0992310047149658	245982908.39610475
1.10336434841156	184052859.24236524
1.1075061559677124	149651020.19661093
1.1116561889648438	137680540.3341286
1.115814208984375	129465046.51748176
1.1199802160263062	136925119.86330816
1.124153733253479	146599576.22248653
1.1283347606658936	132346020.28049414
1.1325229406356812	102145833.2318224
1.1367181539535522	101535017.54863782
1.1409201622009277	138334758.15114617
1.145128846168518	175840834.61314124
1.1493438482284546	177681693.71457657
1.1535650491714478	155018753.8425663
1.1577922105789185	144119656.62573594
1.1620250940322876	138792229.38333538
1.1662636995315552	133961213.55378447
1.170507550239563	131023587.49082845
1.174756646156311	131288184.49203502
1.1790107488632202	151682112.79549718
1.1832695007324219	185623656.45428357
1.1875330209732056	206508326.84955737
1.191800832748413	236771375.12527075
1.1960728168487549	279289750.4759181
1.2003488540649414	298674320.152147
1.2046287059783936	308559134.1918311
1.2089121341705322	317026336.4254366
1.2131990194320679	327706241.73365545
1.2174891233444214	350430466.57001406
1.2217823266983032	369248771.8617079
1.2260783910751343	379514393.02490145
1.230377197265625	386725326.67634904
1.2346785068511963	382522069.6947607
1.238982081413269	351924100.5462945
1.2432878017425537	313165327.5885697
1.2475954294204712	296307008.3833332
1.2519049644470215	292878848.82803375
1.256216049194336	333559464.46855754
1.2605286836624146	396116010.4271637
1.2648425102233887	420989893.9670445
1.2691574096679688	437653017.54728615
1.2734732627868652	457084248.1000639
1.2777899503707886	459374380.17423964
1.2821072340011597	448617432.5300413
1.2864248752593994	442093720.5454277
1.2907428741455078	440023593.7614931
1.2950609922409058	434488605.1076998
1.2993791103363037	413925986.04099673
1.303696870803833	396947512.99271166
1.3080145120620728	398146233.81100655
1.3123314380645752	400021841.38550705
1.3166478872299194	393933992.3749849
1.3209635019302368	360951112.1356629
1.3252781629562378	306338081.14998746
1.3295916318893433	227337656.41562316
1.3339040279388428	118835915.48463808
1.3382149934768677	44193102.689506404
1.3425244092941284	24385483.82281412
1.3468321561813354	22649900.743364464
1.3511382341384888	21752310.19015689
1.3554422855377197	18226884.78629693
1.3597444295883179	22018505.148731835
1.3640443086624146	30885181.110106163
1.3683418035507202	29599135.64860396
1.3726370334625244	26582724.014767703
1.3769296407699585	30005639.556412436
1.381219506263733	25003381.096623037
1.3855066299438477	15675325.494374063
1.3897908926010132	15338213.009321162
1.3940720558166504	18950461.05794192
1.3983501195907593	18958168.711802505
1.4026249647140503	20033739.959770225
1.4068963527679443	23678216.148811545
1.4111642837524414	25472777.29565589
1.4154287576675415	26218948.6503577
1.419689416885376	24619401.125412144
1.4239463806152344	22572322.089557197
1.4281994104385376	20125332.665398985
1.4324485063552856	16905766.49508253
1.436693549156189	18752123.094994355
1.440934419631958	24935823.977330223
1.4451709985733032	34707573.059965536
1.449403166770935	46019857.90446528
1.453631043434143	46666867.763735086
1.4578542709350586	42956932.37799336
1.4620729684829712	49594508.90304187
1.4662868976593018	56184570.606124416
1.4704961776733398	46683211.108672984
1.4747005701065063	35482332.89357539
1.4788999557495117	41440100.30930976
1.4830944538116455	58760221.96380384
1.4872838258743286	66424561.27492772
1.491468071937561	58966375.45375509
1.4956470727920532	58351323.68907792
1.4998208284378052	70405817.82201946
1.5039892196655273	76117620.51002365
1.5081522464752197	69883763.57539365
1.5123097896575928	73386528.0194087
1.5164618492126465	95817932.76015735
1.5206083059310913	118410012.8066813
1.5247491598129272	123306378.24472512
1.5288842916488647	121214312.00409918
1.5330137014389038	127996712.7583437
1.5371372699737549	132964425.35043967
1.541254997253418	130475765.88181892
1.545366883277893	134468965.16368228
1.5494728088378906	141132299.9791553
1.5535727739334106	144330423.62924662
1.5576666593551636	150689759.99697703
1.561754584312439	160113834.4851373
1.5658363103866577	168973413.7900361
1.5699119567871094	172440446.2606674
1.5739814043045044	172067081.23868355
1.5780447721481323	175855926.0148354
1.582101821899414	183776055.22757584
1.5861525535583496	189002886.50720924
1.5901970863342285	187105163.23048294
1.5942351818084717	182086942.50177065
1.5982669591903687	182709652.1102862
1.6022924184799194	184098248.85258573
1.606311559677124	179750776.5514144
1.6103241443634033	177780692.8701928
1.6143304109573364	176333640.57459947
1.6183301210403442	170048607.52466577
1.6223233938217163	165744413.3928279
1.6263102293014526	164299324.50212246
1.6302905082702637	163685999.6161519
1.634264349937439	165474959.54250404
1.638231635093689	169383796.3284981
1.6421923637390137	171141010.347214
1.646146535873413	165838892.70719808
1.6500942707061768	158830508.16752174
1.6540353298187256	156501192.61063367
1.6579699516296387	154526396.1653043
1.661897897720337	146521868.32316303
1.6658192873001099	126865098.93582572
1.6697341203689575	114935740.93615863
1.6736423969268799	126484378.43209282
1.677544116973877	137832564.99671233
1.6814392805099487	137114943.3130484
1.6853278875350952	130884023.17703885
1.6892099380493164	121321537.27679347
1.6930854320526123	110940025.50971207
1.696954369544983	105480769.02465218
1.7008168697357178	105405675.50378487
1.7046726942062378	105178427.05253814
1.708522081375122	104101566.4697221
1.712364912033081	100851649.22890478
1.7162011861801147	97021339.31748526
1.7200311422348022	96673103.88533728
1.723854422569275	95570782.69091573
1.7276713848114014	88605061.01349187
1.731481909751892	77355275.64304268
1.7352858781814575	71127801.4406256
1.7390835285186768	72362650.19263981
1.7428747415542603	71002891.40542907
1.7466596364974976	61331271.96630281
1.7504380941390991	52622735.7149028
1.7542102336883545	52612163.68435554
1.7579760551452637	59633032.16654055
1.7617355585098267	70699998.39263585
1.7654887437820435	73164749.69935103
1.7692357301712036	59473877.70563461
1.7729763984680176	43229165.98549585
1.776710867881775	31546356.853156373
1.7804391384124756	26960599.151055373
1.7841613292694092	27239872.951697882
1.7878772020339966	26436336.977082416
1.7915871143341064	32654936.080310706
1.7952908277511597	40625966.92284766
1.7989884614944458	38074044.835494384
1.8026801347732544	28198623.039021373
1.806365728378296	20199592.501730926
1.8100452423095703	18368216.959624015
1.8137187957763672	17699374.048953783
1.817386507987976	15279468.068643894
1.8210482597351074	21548261.25142121
1.8247040510177612	32951806.486889277
1.828354001045227	31114623.865223616
1.8319982290267944	21751587.644601326
1.8356364965438843	22288941.33053832
1.8392690420150757	29031039.981181193
1.8428958654403687	30072133.70434222
1.8465168476104736	26987217.45805882
1.8501322269439697	25001178.32218966
1.8537418842315674	21931071.75224025
1.8573459386825562	19489242.895229507
1.860944390296936	16398259.447605692
1.864537239074707	11335130.745489791
1.8681244850158691	10049614.798895953
1.871706247329712	14861957.914843855
1.8752825260162354	21085099.83732375
1.8788533210754395	21914847.71771241
1.8824186325073242	21054184.761735227
1.8859784603118896	26312521.358127818
1.8895330429077148	33276131.694945276
1.8930821418762207	31000003.683698885
1.8966259956359863	24792994.958144058
1.9001644849777222	21533690.59670597
1.9036977291107178	18029603.715701547
1.9072256088256836	22181622.435457643
1.9107483625411987	27107227.62665249
1.9142658710479736	21332110.911423072
1.9177782535552979	19294467.848172087
1.9212853908538818	18221378.418002635
1.9247875213623047	10451159.810947396
1.9282845258712769	8192121.101225425
1.9317764043807983	15362805.728377847
1.9352631568908691	25677806.502756834
1.9387450218200684	26942856.652293216
1.942221760749817	18763311.46600538
1.9456936120986938	13277070.757730152
1.9491604566574097	12486543.291837951
1.952622413635254	15269107.562631452
1.956079363822937	23864977.295878798
1.959531545639038	31581271.769515656
1.962978720664978	27595512.396250557
1.966421127319336	21806517.647126626
1.9698586463928223	24527370.096183054
1.9732913970947266	26525747.414213073
1.9767193794250488	26107747.04698865
1.9801424741744995	27166360.424244706
1.9835609197616577	27507591.24571687
1.9869745969772339	30190645.42478541
1.990383505821228	32681635.407019947
1.9937876462936401	31453950.278328806
1.9971871376037598	27670723.844509985
2.000581979751587	24635768.388372604
2.003972291946411	29042531.253649272
2.007357597351074	34632180.63073669
2.0107386112213135	36455135.46627052
2.0141148567199707	35542998.671127364
2.017486572265625	31968043.776100855
2.0208535194396973	32776704.89679201
2.0242159366607666	37328377.24451372
2.027573823928833	37914152.2686188
2.0309269428253174	36852566.5656177
2.034275770187378	39675840.53170917
2.0376198291778564	45505566.79588231
2.040959596633911	50494928.25543871
2.044294595718384	52199848.93906384
2.0476250648498535	52550245.88852507
2.0509510040283203	51226076.56480202
2.054272413253784	47874578.97547864
2.057589530944824	48325120.553480476
2.0609018802642822	53136483.84891019
2.0642096996307373	56549097.640067175
2.0675129890441895	57439367.18914976
2.0708119869232178	57418832.614916496
2.074106216430664	56949263.06035233
2.0773961544036865	57803646.49206635
2.080681324005127	59370538.57004613
2.0839622020721436	59575343.889863186
2.087238311767578	58720045.0231812
2.090510129928589	57917567.482376635
2.0937774181365967	58170108.005412154
2.0970399379730225	58653985.89915288
2.1002981662750244	57559157.86021693
2.1035518646240234	56350544.33997583
2.1068007946014404	56652099.276309446
2.1100454330444336	57118928.44927901
2.1132853031158447	56768458.37885118
2.116520881652832	55678768.765591845
2.1197516918182373	54698009.221240915
2.1229779720306396	54373350.379175164
2.12619948387146	53906495.9076957
2.1294167041778564	53372674.81611716
2.132629156112671	53396208.47912185
2.1358368396759033	52811274.90948931
2.139039993286133	51574043.14495266
2.1422386169433594	50710345.647482
2.145432472229004	50031630.54341054
2.1486217975616455	49308221.96196752
2.151806354522705	48380551.23410976
2.1549863815307617	48205946.43638321
2.1581614017486572	48888923.78181083
2.16133189201355	49208349.17508572
2.1644976139068604	48878991.57905626
2.167658567428589	47471023.54265601
2.1708147525787354	45548257.56382016
2.173966407775879	44565418.86032741
2.1771130561828613	44388366.68094013
2.1802549362182617	43729669.339458846
2.183391809463501	42179005.6921476
2.1865241527557373	40544052.93242674
2.1896514892578125	39192345.968922935
2.1927738189697266	36986338.3320976
2.1958916187286377	32725872.81304946
2.1990041732788086	27809077.685232554
2.2021119594573975	24856920.48257143
2.2052149772644043	23647243.413313895
2.208312749862671	23165513.08563965
2.2114057540893555	24581005.350165557
2.214493751525879	26899077.50255636
2.217576742172241	27077737.0926325
2.2206547260284424	26133030.264711034
2.2237277030944824	24907976.533723205
2.2267956733703613	22351949.600785933
2.2298583984375	20195543.443535224
2.2329163551330566	19823080.15838349
2.235969066619873	20589706.301484764
2.2390167713165283	20743885.145876374
2.2420592308044434	19502393.956117902
2.2450966835021973	18187876.7905884
2.248128890991211	17835195.463244796
2.2511560916900635	18415884.218551278
2.254178285598755	19983009.803555362
2.257194995880127	22127598.21680338
2.260206699371338	21200914.14019895
2.2632133960723877	16593733.784792408
2.266214609146118	14564407.482150787
2.2692108154296875	17496937.5776716
2.2722020149230957	20474673.226656787
2.2751877307891846	20365970.977558218
2.278168201446533	19433040.885340616
2.2811436653137207	19131139.34160773
2.284113883972168	18080361.050357956
2.287078857421875	16215411.777708113
2.290038824081421	15293737.532441875
2.2929933071136475	15548960.643741729
2.295942783355713	15775021.697213305
2.298887014389038	16194477.060960291
2.301826238632202	17484905.143016584
2.304760217666626	19140440.87220197
2.3076889514923096	21189837.15132343
2.310612440109253	24149511.580786116
2.3135311603546143	26280787.567495923
2.3164443969726562	23664440.355679926
2.319352865219116	16861747.32890873
2.322256088256836	12056948.268912917
2.3251543045043945	10464085.247126281
2.328047275543213	9858735.631607756
2.330935478210449	10117663.692689389
2.3338186740875244	10164034.810742624
2.3366971015930176	9572361.703788219
2.3395702838897705	9131453.610350503
2.3424389362335205	9068548.314095657
2.3453025817871094	9125158.236075435
2.348161458969116	9166350.392246492
2.351015567779541	10462972.113043679
2.353865146636963	14228173.901004389
2.3567099571228027	18699696.427966934
2.3595502376556396	21129543.46036851
2.3623859882354736	20425165.020299852
2.3652172088623047	16843661.026644625
2.368043899536133	12210183.724046674
2.370866537094116	9270896.369323686
2.3736846446990967	9308563.515789934
2.3764986991882324	10231432.337532032
2.3793084621429443	9996340.775510274
2.3821144104003906	9511590.91497841
2.384916305541992	10375434.756156484
2.387714147567749	12270862.863836898
2.3905084133148193	13240665.958800059
2.393299102783203	12823051.160667099
2.3960859775543213	11942017.03949429
2.398869514465332	11827316.28734027
2.4016497135162354	13222084.247675704
2.4044265747070312	15453769.882956566
2.407200336456299	16900663.833809286
2.409970998764038	16704701.939226577
2.4127390384674072	15830866.363546923
2.415503978729248	15224797.643775696
2.418266534805298	14848721.080906073
2.4210267066955566	14537226.288618557
2.4237842559814453	14196669.80361222
2.426539897918701	14449615.633514717
2.429293394088745	15963112.504730891
2.4320452213287354	17316477.905383594
2.4347951412200928	16638465.839804247
2.4375438690185547	14773859.687507091
2.440291166305542	13743994.136804543
2.443037271499634	13947010.114194017
2.445782423019409	15349480.962105285
2.4485268592834473	17063029.890719775
2.451270818710327	16826496.308885667
2.454014539718628	15384291.926605368
2.4567582607269287	14827203.809871906
2.4595019817352295	14694048.480677484
2.4622461795806885	15988889.294915533
2.4649908542633057	17797423.784732126
2.4677364826202393	16358927.585971534
2.4704833030700684	12211073.972923744
2.473231554031372	8362472.703603504
2.4759814739227295	6233020.103330514
