#wavelength	surface flux
0.6450077295303345	289656.43063719315
0.6472567915916443	436989.73184252647
0.6494921445846558	527552.8562504889
0.6517150402069092	552914.7177896749
0.6539263725280762	574066.8310490403
0.6561272740364075	594777.7492234292
0.6583186388015747	615870.072104685
0.6605015397071838	637347.570806261
0.6626768708229065	658137.7885698654
0.6648455858230591	677982.1905245243
0.6670085787773132	681100.6193557237
0.6691668033599854	636356.9433340736
0.6713210344314575	615759.9907958021
0.6734722256660461	694609.7569411045
0.6756211519241333	780360.855631816
0.6777685880661011	818351.9134275144
0.6799154281616211	843421.9990362724
0.6820623278617859	868345.9793270801
0.6842101216316223	895547.8084510268
0.6863595843315125	922088.6904965035
0.688511312007904	946164.416598549
0.6906660795211792	967003.1483537867
0.6928245425224304	989959.3024599932
0.6949873566627502	1020671.7107225124
0.6971551775932312	1052639.249190049
0.6993286609649658	1080844.45831186
0.7015084028244019	1107683.454692464
0.7036949396133423	1135595.4877483132
0.7058889269828796	1164705.715099863
0.7080909013748169	1193148.1827194719
0.710301399230957	1221462.5609386964
0.712520956993103	1249945.1548301545
0.7147500514984131	1275248.133383737
0.7169892191886902	1297919.861827439
0.7192389369010925	1324317.7315948212
0.7214996814727783	1352642.529688505
0.723771870136261	1377976.9637250213
0.7260559797286987	1401894.3925359156
0.7283523678779602	1424814.704894714
0.7306615710258484	1447450.714026072
0.7329838871955872	1470835.5965699183
0.7353196740150452	1491145.2312179855
0.7376693487167358	1506739.8317888025
0.7400332689285278	1516398.1057690121
0.7424117922782898	1515350.2503316125
0.7448052167892456	1501968.2790649459
0.7472138404846191	1471720.461752952
0.7496379613876343	1415362.1743847367
0.7520779371261597	1322037.0948491283
0.7545340061187744	1177959.046565304
0.7570064663887024	970256.2202462275
0.7594954967498779	699335.8052640229
0.7620013952255249	401450.515145722
0.7645244002342224	159440.9801052849
0.7670646905899048	41230.78583854239
0.7696225643157959	47023.60441329719
0.7721980810165405	196627.00467361946
0.7747915983200073	504712.652284933
0.7774031162261963	855647.5480795
0.7800329327583313	1173565.0189182372
0.7826811671257019	1522688.0627817537
0.7853479981422424	1855847.3937312907
0.7880334854125977	2087496.2792279352
0.7907378077507019	2132290.9336394127
0.7934610247612	1925483.043483735
0.7962033748626709	1993220.2362157882
0.7989648580551147	2475813.1538181566
0.801745593547821	2800069.690675349
0.8045456409454346	2921357.11717311
0.8073651194572449	3016120.372379643
0.8102040886878967	3094806.9462449923
0.8130625486373901	3178872.035849883
0.8159406185150146	3282995.9134443835
0.8188382983207703	3387310.0582898553
0.8217556476593018	3485052.6339412713
0.8246926665306091	3586586.1810934865
0.8276493549346924	3685264.112856445
0.8306257724761963	3777248.3392220438
0.8336219191551208	3870324.6320134406
0.8366377949714661	3961923.874426363
0.8396733403205872	4063362.2338375305
0.8427285552024841	4184534.0240913206
0.8458034992218018	4303145.411818434
0.8488980531692505	4401267.355689955
0.8520121574401855	4495256.095675927
0.8551458716392517	4618369.896789746
0.8582990765571594	4732246.100304843
0.8614717125892639	4776175.904562433
0.8646637797355652	4832490.256859725
0.8678751587867737	4967666.881668354
0.8711057901382446	5111367.697541232
0.8743556141853333	5234283.0210616775
0.87762451171875	5345419.747450846
0.8809124231338501	5452698.617674548
0.8842192888259888	5578680.322593684
0.8875449895858765	5690072.730323489
0.8908893465995789	5744919.717629055
0.894252359867096	5817397.408914051
0.8976338505744934	5992681.622607606
0.9010337591171265	6211264.310786247
0.9044519662857056	6400765.269310646
0.9078882932662964	6562356.252323909
0.9113426208496094	6697850.4405141305
0.914814829826355	6792045.345084416
0.9183048605918884	6892750.078110126
0.9218124747276306	6985305.475651743
0.925337553024292	6803783.842937344
0.9288799166679382	6383773.542353735
0.9324395060539246	6272726.953658858
0.9360161423683167	6582725.314072322
0.9396095871925354	6947217.014032313
0.943219780921936	7049942.871458493
0.9468464851379395	7029253.297422412
0.9504896402359009	7201524.06438391
0.9541489481925964	7474260.012228634
0.9578243494033813	7566753.546437141
0.9615156054496765	7436438.774922954
0.9652225375175476	7427121.347007085
0.9689450263977051	7763126.534300472
0.9726828336715698	8341663.458484032
0.9764357805252075	8802393.323361706
0.9802037477493286	9071246.913373081
0.983986496925354	9327676.030907664
0.9877838492393494	9600284.157572292
0.9915955662727356	9888932.169984208
0.9954215884208679	10150128.95900425
0.9992615580558777	10359928.633818943
1.0031154155731201	10554615.054898512
1.0069829225540161	10799744.097661704
1.0108637809753418	11090043.692874562
1.0147579908370972	11383528.909971863
1.018665075302124	11635165.67122766
1.022585153579712	11802361.436930342
1.0265177488327026	11929208.481695792
1.0304628610610962	12132566.84021355
1.0344202518463135	12450168.371106429
1.0383895635604858	12755796.580069724
1.0423706769943237	12989036.72585691
1.0463634729385376	13193771.293403123
1.0503677129745483	13391077.995178664
1.0543830394744873	13621712.909690209
1.058409333229065	13868577.860991936
1.0624464750289917	14091361.825276757
1.0664942264556885	14297300.47366547
1.0705522298812866	14500776.66497709
1.0746204853057861	14721457.61421916
1.0786986351013184	14952405.392103087
1.0827864408493042	15165837.298217485
1.086883783340454	15302604.923138812
1.0909905433654785	15319891.763166133
1.0951062440872192	15167170.932225548
1.0992310047149658	14367963.387613207
1.10336434841156	13079353.564601451
1.1075061559677124	12590211.731002048
1.1116561889648438	12579213.516988615
1.115814208984375	12222401.438212058
1.1199802160263062	12035053.119484318
1.124153733253479	12427656.545562409
1.1283347606658936	12753079.550184954
1.1325229406356812	12217094.767594228
1.1367181539535522	12473907.214232314
1.1409201622009277	13966905.17484182
1.145128846168518	14866734.474499876
1.1493438482284546	14077959.28557044
1.1535650491714478	12260827.962985635
1.1577922105789185	11657370.397134105
1.1620250940322876	12644315.898039745
1.1662636995315552	14105115.851041663
1.170507550239563	15091226.514820142
1.174756646156311	16060955.808972936
1.1790107488632202	17496671.936214656
1.1832695007324219	18631458.406384476
1.1875330209732056	19271356.331614777
1.191800832748413	19846122.240389697
1.1960728168487549	20523569.51080152
1.2003488540649414	20997451.651095252
1.2046287059783936	21264758.725718327
1.2089121341705322	21541331.90764882
1.2131990194320679	21906931.53883723
1.2174891233444214	22340105.123302665
1.2217823266983032	22755601.812903445
1.2260783910751343	23112513.8952795
1.230377197265625	23420199.347778827
1.2346785068511963	23701011.262915887
1.238982081413269	23997450.58347109
1.2432878017425537	24272612.618617762
1.2475954294204712	24437618.401434705
1.2519049644470215	24542952.536059245
1.256216049194336	24847840.383193582
1.2605286836624146	25210249.55601821
1.2648425102233887	25409774.980029948
1.2691574096679688	25574143.917413775
1.2734732627868652	25768396.324718453
1.2777899503707886	25964742.944437657
1.2821072340011597	26110883.312269058
1.2864248752593994	26154488.90804162
1.2907428741455078	26098690.664580517
1.2950609922409058	26177878.979297005
1.2993791103363037	26290911.303243812
1.303696870803833	26225608.29345706
1.3080145120620728	26273403.542604506
1.3123314380645752	26557388.3943829
1.3166478872299194	26884408.218312226
1.3209635019302368	26603705.47110949
1.3252781629562378	25240112.602757927
1.3295916318893433	22051325.931748725
1.3339040279388428	16082567.64510634
1.3382149934768677	9312446.029019462
1.3425244092941284	5984756.031262248
1.3468321561813354	6138168.11866033
1.3511382341384888	5545110.124350476
1.3554422855377197	4187870.6050222917
1.3597444295883179	3906453.4340793667
1.3640443086624146	4355530.7581570335
1.3683418035507202	5445253.333366507
1.3726370334625244	7996383.735891923
1.3769296407699585	10372916.674081502
1.381219506263733	8357599.713344446
1.3855066299438477	4476079.0031976495
1.3897908926010132	3201789.84951485
1.3940720558166504	3458499.336493903
1.3983501195907593	4099296.461853058
1.4026249647140503	6060480.165409928
1.4068963527679443	7682202.72364219
1.4111642837524414	6281106.938882809
1.4154287576675415	5025853.2213530345
1.419689416885376	5171246.852935214
1.4239463806152344	5076212.077362115
1.4281994104385376	5880745.22379217
1.4324485063552856	6485912.144983644
1.436693549156189	6435550.651928899
1.440934419631958	7473074.027894466
1.4451709985733032	9953544.564540397
1.449403166770935	13212447.611751394
1.453631043434143	15305657.487667877
1.4578542709350586	16277585.617852926
1.4620729684829712	17379434.881139692
1.4662868976593018	17586309.491670955
1.4704961776733398	16873287.758890506
1.4747005701065063	16761873.871589584
1.4788999557495117	17608819.046879597
1.4830944538116455	19544549.65768338
1.4872838258743286	21550893.611731224
1.491468071937561	22113287.501786314
1.4956470727920532	22144686.49931889
1.4998208284378052	23368959.6717628
1.5039892196655273	24965954.84731
1.5081522464752197	25317023.20124915
1.5123097896575928	25701489.78310985
1.5164618492126465	27205947.722872637
1.5206083059310913	29371531.86003008
1.5247491598129272	30880875.962605763
1.5288842916488647	31112810.968663096
1.5330137014389038	31593474.25390916
1.5371372699737549	32494525.754864927
1.541254997253418	32892082.57946742
1.545366883277893	33368849.278337788
1.5494728088378906	34161577.226854935
1.5535727739334106	34588598.36781547
1.5576666593551636	34494577.83675466
1.561754584312439	34800008.097273976
1.5658363103866577	35838644.73524631
1.5699119567871094	36508794.06133514
1.5739814043045044	36209511.43355802
1.5780447721481323	35637088.95815685
1.582101821899414	36160725.93802399
1.5861525535583496	37493992.81944887
1.5901970863342285	38101226.25731932
1.5942351818084717	37956258.067373045
1.5982669591903687	37702469.35189645
1.6022924184799194	37742834.73427731
1.606311559677124	38021407.20591131
1.6103241443634033	38100163.39041736
1.6143304109573364	37955101.95153343
1.6183301210403442	37766876.68079542
1.6223233938217163	37622729.863396555
1.6263102293014526	37475373.1302861
1.6302905082702637	37194140.86333665
1.634264349937439	37669721.339639544
1.638231635093689	39134772.54299359
1.6421923637390137	39970258.465107195
1.646146535873413	39513801.71766414
1.6500942707061768	38890004.333530866
1.6540353298187256	39183276.42267303
1.6579699516296387	39641308.28981005
1.661897897720337	38759963.42397927
1.6658192873001099	36301434.55892699
1.6697341203689575	35413841.07274291
1.6736423969268799	37625668.796755634
1.677544116973877	39263435.86953489
1.6814392805099487	39270797.73842741
1.6853278875350952	39076160.007181846
1.6892099380493164	38419275.08448946
1.6930854320526123	36794304.12422742
1.696954369544983	35190540.05805416
1.7008168697357178	35076287.65917738
1.7046726942062378	35701950.83719488
1.708522081375122	36139025.65342433
1.712364912033081	36446247.3986197
1.7162011861801147	36974739.55550292
1.7200311422348022	37681442.480263025
1.723854422569275	37719919.58966047
1.7276713848114014	36955484.03727784
1.731481909751892	35504167.91992235
1.7352858781814575	33841068.91806314
1.7390835285186768	32679064.96411088
1.7428747415542603	31384926.02342552
1.7466596364974976	29417364.023480963
1.7504380941390991	27048613.499301158
1.7542102336883545	25614694.511722185
1.7579760551452637	28050341.853630625
1.7617355585098267	31278937.832011215
1.7654887437820435	29570083.647606328
1.7692357301712036	24322234.57311851
1.7729763984680176	18493071.447138038
1.776710867881775	13139685.049292315
1.7804391384124756	11034146.26793931
1.7841613292694092	11295962.830514539
1.7878772020339966	10384367.639752394
1.7915871143341064	10700457.886290025
1.7952908277511597	13001277.179432467
1.7989884614944458	13198821.044567317
1.8026801347732544	9530179.004049188
1.806365728378296	5506847.859942465
1.8100452423095703	5632989.277842628
1.8137187957763672	7141240.277437462
1.817386507987976	6299073.39141517
1.8210482597351074	7175854.987698709
1.8247040510177612	7957693.895589592
1.828354001045227	5240305.773510378
1.8319982290267944	4532618.110036011
1.8356364965438843	7125262.162997879
1.8392690420150757	9596957.418773048
1.8428958654403687	9870793.117989205
1.8465168476104736	9508741.379643217
1.8501322269439697	9460358.519474229
1.8537418842315674	7355246.614517722
1.8573459386825562	5322501.517535295
1.860944390296936	4744744.362692879
1.864537239074707	3937110.6907204646
1.8681244850158691	4599377.742884983
1.871706247329712	7230646.225846487
1.8752825260162354	9990847.31220561
1.8788533210754395	13036989.373384498
1.8824186325073242	15137399.727939637
1.8859784603118896	14281015.831934633
1.8895330429077148	13562031.613801861
1.8930821418762207	15807508.746840362
1.8966259956359863	15537316.55024719
1.9001644849777222	9577778.609863773
1.9036977291107178	5251710.006915338
1.9072256088256836	5808536.864838258
1.9107483625411987	5767023.987995423
1.9142658710479736	3662768.108643
1.9177782535552979	3381987.5524347746
1.9212853908538818	4625782.124616008
1.9247875213623047	4709914.50036469
1.9282845258712769	4841356.994934468
1.9317764043807983	6172478.002846536
1.9352631568908691	6763060.249263395
1.9387450218200684	6302024.939365691
1.942221760749817	6589188.018223557
1.9456936120986938	7349690.68638505
1.9491604566574097	8107365.06534002
1.952622413635254	7783173.436926875
1.956079363822937	6402873.085553472
1.959531545639038	6341259.505446196
1.962978720664978	6997457.7511532
1.966421127319336	8574800.542943446
1.9698586463928223	11400832.519161887
1.9732913970947266	12775680.497285582
1.9767193794250488	13495199.306762788
1.9801424741744995	15606001.119452188
1.9835609197616577	17760424.47462845
1.9869745969772339	17932856.791757796
1.990383505821228	15868973.147916296
1.9937876462936401	15038895.201105341
1.9971871376037598	15393383.217667812
2.000581979751587	16554393.961468242
2.003972291946411	19836903.557943363
2.007357597351074	22424435.863117903
2.0107386112213135	24621264.489096936
2.0141148567199707	25568558.851478137
2.017486572265625	23829747.192589656
2.0208535194396973	24296894.3142888
2.0242159366607666	27440585.36873147
2.027573823928833	29482181.58690715
2.0309269428253174	30759202.54184808
2.034275770187378	32369209.11377419
2.0376198291778564	33652315.48331257
2.040959596633911	34803107.147482574
2.044294595718384	36363287.91227188
2.0476250648498535	38004278.213391796
2.0509510040283203	38412716.50209365
2.054272413253784	37563940.107899606
2.057589530944824	37775904.358886816
2.0609018802642822	39112511.92745409
2.0642096996307373	40246381.40360705
2.0675129890441895	41011439.10295369
2.0708119869232178	41322086.431378
2.074106216430664	41105044.96291367
2.0773961544036865	40942069.931492254
2.080681324005127	41286438.227212116
2.0839622020721436	41773220.45160205
2.087238311767578	42132057.53718575
2.090510129928589	42123831.852117114
2.0937774181365967	41817732.1794144
2.0970399379730225	41785315.02893981
2.1002981662750244	41861572.87372104
2.1035518646240234	41589698.23992229
2.1068007946014404	41196192.18148377
2.1100454330444336	41528218.91727991
2.1132853031158447	42219330.204386055
2.116520881652832	42157754.02710611
2.1197516918182373	41921245.778755344
2.1229779720306396	42134674.43910534
2.12619948387146	42403234.18113532
2.1294167041778564	42472648.24827473
2.132629156112671	42506576.679716915
2.1358368396759033	42285908.998427756
2.139039993286133	41732959.303429544
2.1422386169433594	41244548.533010766
2.145432472229004	40893079.30089458
2.1486217975616455	40582258.19895475
2.151806354522705	40173878.623523995
2.1549863815307617	40089551.41131953
2.1581614017486572	40215114.15541867
2.16133189201355	39903145.18787975
2.1644976139068604	39563427.37226299
2.167658567428589	39430130.16496125
2.1708147525787354	39317659.439401716
2.173966407775879	39055894.84134599
2.1771130561828613	38709876.31210889
2.1802549362182617	38440856.885788515
2.183391809463501	38015700.19783691
2.1865241527557373	37332527.733145855
2.1896514892578125	36320206.11806593
2.1927738189697266	34176175.82397073
2.1958916187286377	30591417.466435023
2.1990041732788086	27129995.465517994
2.2021119594573975	25197466.64203215
2.2052149772644043	24446263.367416404
2.208312749862671	24671255.444155008
2.2114057540893555	25971806.17387017
2.214493751525879	27227310.76120971
2.217576742172241	27272148.074400425
2.2206547260284424	26854040.525361132
2.2237277030944824	26461263.73327294
2.2267956733703613	24995428.21272077
2.2298583984375	22861453.41516918
2.2329163551330566	21539270.9953603
2.235969066619873	21221759.0487509
2.2390167713165283	20814204.380680498
2.2420592308044434	19267405.702341374
2.2450966835021973	17479947.51703266
2.248128890991211	17610566.65600674
2.2511560916900635	19222078.049972344
2.254178285598755	20260528.134473044
2.257194995880127	20890369.398701858
2.260206699371338	20936849.47803893
2.2632133960723877	19285189.137090836
2.266214609146118	17080745.250517383
2.2692108154296875	16265931.225045225
2.2722020149230957	17216969.8621981
2.2751877307891846	18465174.696108792
2.278168201446533	18344302.508324936
2.2811436653137207	17218255.426141445
2.284113883972168	16333087.562508028
2.287078857421875	15654306.581270957
2.290038824081421	14719416.904878642
2.2929933071136475	13638932.310572317
2.295942783355713	12545969.44516226
2.298887014389038	11551926.906490143
2.301826238632202	10941030.81163437
2.304760217666626	10915490.096230969
2.3076889514923096	11443582.080826284
2.310612440109253	12295112.468292193
2.3135311603546143	12275549.430788323
2.3164443969726562	10310957.916496288
2.319352865219116	8073414.609708508
2.322256088256836	7312091.005823006
2.3251543045043945	7239810.69004095
2.328047275543213	7155089.431697963
2.330935478210449	7315083.227042536
2.3338186740875244	7613282.87929236
2.3366971015930176	7851874.139094762
2.3395702838897705	8070637.475100161
2.3424389362335205	8147161.983540612
2.3453025817871094	8109553.17525144
2.348161458969116	8181242.845400641
2.351015567779541	8670649.501316885
2.353865146636963	9619967.243774945
2.3567099571228027	10413149.16188655
2.3595502376556396	11105398.851667244
2.3623859882354736	12125077.178448282
2.3652172088623047	12063231.33316619
2.368043899536133	9643563.658599105
2.370866537094116	7095153.098262425
2.3736846446990967	6874885.31398835
2.3764986991882324	7340885.631982851
2.3793084621429443	6988185.676621477
2.3821144104003906	7076730.309251107
2.384916305541992	8475019.67260615
2.387714147567749	10282049.31027015
2.3905084133148193	11169844.682787994
2.393299102783203	11079710.104560731
2.3960859775543213	10372935.763633467
2.398869514465332	9665512.67584806
2.4016497135162354	9214777.226612201
2.4044265747070312	8987519.211181015
2.407200336456299	9611216.53005146
2.409970998764038	10826135.753391353
2.4127390384674072	11562537.333606267
2.415503978729248	11952697.403396524
2.418266534805298	12852925.26297025
2.4210267066955566	13610550.450661989
2.4237842559814453	12976117.16264254
2.426539897918701	11786019.91928898
2.429293394088745	11692227.583681367
2.4320452213287354	12502052.523476219
2.4347951412200928	13063260.851581348
2.4375438690185547	13032197.112307167
2.440291166305542	12592972.10109782
2.443037271499634	11712017.56465437
2.445782423019409	10463062.946779639
2.4485268592834473	9244882.582220327
2.451270818710327	8860557.191673268
2.454014539718628	10262816.846117552
2.4567582607269287	11907349.009848123
2.4595019817352295	11604519.448072493
2.4622461795806885	11501528.260332339
2.4649908542633057	11605117.766319482
2.4677364826202393	9611787.90820717
2.4704833030700684	7028734.287753129
2.473231554031372	5216506.512647168
2.4759814739227295	4051624.9544020076
2.4787333011627197	3664069.8918868285
2.481487512588501	4269095.6270648
