#wavelength	surface flux
0.6450077295303345	223480.67708441906
0.6472567915916443	336903.26413683494
0.6494921445846558	406250.3006162992
0.6517150402069092	425270.65441860305
0.6539263725280762	441041.963989733
0.6561272740364075	456483.3223454507
0.6583186388015747	472316.36422584584
0.6605015397071838	488587.5092015164
0.6626768708229065	504446.7489423536
0.6648455858230591	519992.598761153
0.6670085787773132	525398.152960086
0.6691668033599854	500161.47564784356
0.6713210344314575	490379.71104845667
0.6734722256660461	543754.8858401141
0.6756211519241333	600614.8995042641
0.6777685880661011	627136.7686823251
0.6799154281616211	645810.5467175553
0.6820623278617859	664813.0379146538
0.6842101216316223	685787.5493584934
0.6863595843315125	706292.1756510874
0.688511312007904	724936.6815212329
0.6906660795211792	741069.2093041174
0.6928245425224304	758876.4024469682
0.6949873566627502	782898.5406033274
0.6971551775932312	807943.1841973434
0.6993286609649658	830029.1190787337
0.7015084028244019	851141.9753928358
0.7036949396133423	873226.8554957577
0.7058889269828796	896372.4166958386
0.7080909013748169	919070.8621265065
0.710301399230957	941778.5675665456
0.712520956993103	964752.8426231036
0.7147500514984131	985292.1088210088
0.7169892191886902	1003860.2746999712
0.7192389369010925	1025687.0005514409
0.7214996814727783	1049339.2543137486
0.723771870136261	1070792.2930433832
0.7260559797286987	1091437.681419785
0.7283523678779602	1111765.7740471317
0.7306615710258484	1132502.1657947206
0.7329838871955872	1154664.493085299
0.7353196740150452	1175217.0722743042
0.7376693487167358	1193031.911274801
0.7400332689285278	1207480.4890416504
0.7424117922782898	1215101.1037195264
0.7448052167892456	1215137.46720964
0.7472138404846191	1204476.821588503
0.7496379613876343	1176037.264877831
0.7520779371261597	1120881.1912495152
0.7545340061187744	1026020.7229647882
0.7570064663887024	875223.1084209091
0.7594954967498779	657412.8424961267
0.7620013952255249	393068.04318933515
0.7645244002342224	161223.6112306237
0.7670646905899048	42466.96446742262
0.7696225643157959	48173.95522884716
0.7721980810165405	197117.57835102404
0.7747915983200073	491101.12011412723
0.7774031162261963	807042.0503478451
0.7800329327583313	1068331.2527882024
0.7826811671257019	1332470.2442464707
0.7853479981422424	1575135.5178034103
0.7880334854125977	1739321.6854975482
0.7907378077507019	1765389.0399800928
0.7934610247612	1600599.41800965
0.7962033748626709	1641171.2999258228
0.7989648580551147	2000605.146007915
0.801745593547821	2243181.2887831633
0.8045456409454346	2331447.011502642
0.8073651194572449	2400508.827401727
0.8102040886878967	2457402.369027116
0.8130625486373901	2519878.2512502144
0.8159406185150146	2601453.214770779
0.8188382983207703	2684225.606371003
0.8217556476593018	2758489.44477465
0.8246926665306091	2834994.5668338905
0.8276493549346924	2911342.4986124677
0.8306257724761963	2983040.1485024
0.8336219191551208	3056012.1993968706
0.8366377949714661	3127961.0491903736
0.8396733403205872	3208276.3568476187
0.8427285552024841	3305380.733021856
0.8458034992218018	3401173.8529588603
0.8488980531692505	3483393.0757921403
0.8520121574401855	3563163.7922021477
0.8551458716392517	3659810.1440369682
0.8582990765571594	3749902.600703532
0.8614717125892639	3796254.361809517
0.8646637797355652	3850815.8082677703
0.8678751587867737	3956078.8817111957
0.8711057901382446	4067558.124733098
0.8743556141853333	4165505.2512435257
0.87762451171875	4254938.639217292
0.8809124231338501	4342629.913395617
0.8842192888259888	4443237.560248075
0.8875449895858765	4531981.615537752
0.8908893465995789	4578801.113153604
0.894252359867096	4637455.82129595
0.8976338505744934	4774101.691575424
0.9010337591171265	4947838.540058944
0.9044519662857056	5100672.267538844
0.9078882932662964	5230697.020797156
0.9113426208496094	5341065.674500044
0.914814829826355	5419298.001916029
0.9183048605918884	5502567.184366514
0.9218124747276306	5577951.102684276
0.925337553024292	5425526.84395031
0.9288799166679382	5073560.654557172
0.9324395060539246	4976493.041411522
0.9360161423683167	5231035.4019087665
0.9396095871925354	5533191.839576625
0.943219780921936	5615376.0220341645
0.9468464851379395	5594023.18604789
0.9504896402359009	5736589.01081208
0.9541489481925964	5964856.505711617
0.9578243494033813	6043012.068993421
0.9615156054496765	5935001.986382935
0.9652225375175476	5928850.884444564
0.9689450263977051	6212218.864364927
0.9726828336715698	6696369.182235247
0.9764357805252075	7080107.682754789
0.9802037477493286	7304526.475278266
0.983986496925354	7519757.767711086
0.9877838492393494	7749683.962404272
0.9915955662727356	7994366.119540032
0.9954215884208679	8217134.47214968
0.9992615580558777	8399466.069680773
1.0031154155731201	8567549.314221099
1.0069829225540161	8772208.758205624
1.0108637809753418	9011962.805281453
1.0147579908370972	9254174.67951891
1.018665075302124	9463667.123115888
1.022585153579712	9606984.399027722
1.0265177488327026	9717280.852895416
1.0304628610610962	9887524.876051024
1.0344202518463135	10150187.452703848
1.0383895635604858	10404444.63568399
1.0423706769943237	10601172.56650895
1.0463634729385376	10774664.655917058
1.0503677129745483	10942231.57690029
1.0543830394744873	11136848.58735162
1.058409333229065	11344859.254327843
1.0624464750289917	11534194.412349423
1.0664942264556885	11709666.927567318
1.0705522298812866	11882747.156359145
1.0746204853057861	12070549.87623042
1.0786986351013184	12267450.754729073
1.0827864408493042	12450174.85663838
1.086883783340454	12569816.565480871
1.0909905433654785	12590892.169612097
1.0951062440872192	12467672.865330083
1.0992310047149658	11794743.747345347
1.10336434841156	10706117.558522806
1.1075061559677124	10293307.315753158
1.1116561889648438	10278484.12074794
1.115814208984375	9961255.715607634
1.1199802160263062	9788772.148131812
1.124153733253479	10118373.599869745
1.1283347606658936	10404501.4988856
1.1325229406356812	9970601.268946929
1.1367181539535522	10207254.081786383
1.1409201622009277	11475545.905041981
1.145128846168518	12231889.2465966
1.1493438482284546	11546692.785999523
1.1535650491714478	9980815.723862205
1.1577922105789185	9467989.39148019
1.1620250940322876	10333294.85044964
1.1662636995315552	11606725.098718777
1.170507550239563	12471227.649549015
1.174756646156311	13321750.791245345
1.1790107488632202	14554675.185339972
1.1832695007324219	15513037.05901597
1.1875330209732056	16055632.840638895
1.191800832748413	16548011.793177795
1.1960728168487549	17126201.19331405
1.2003488540649414	17535293.272617795
1.2046287059783936	17771591.267911963
1.2089121341705322	18013289.30063732
1.2131990194320679	18326013.68968091
1.2174891233444214	18694573.097460456
1.2217823266983032	19050736.01547984
1.2260783910751343	19360307.00628686
1.230377197265625	19628634.5772187
1.2346785068511963	19873561.90712227
1.238982081413269	20133377.230801105
1.2432878017425537	20378225.33381897
1.2475954294204712	20544949.567366604
1.2519049644470215	20671779.39200205
1.256216049194336	20927570.570222575
1.2605286836624146	21209816.76826644
1.2648425102233887	21378393.87599831
1.2691574096679688	21526173.942713324
1.2734732627868652	21698913.137034517
1.2777899503707886	21873014.378366325
1.2821072340011597	22003250.441855058
1.2864248752593994	22044169.56891328
1.2907428741455078	21998593.346061133
1.2950609922409058	22070598.47820083
1.2993791103363037	22172433.333811566
1.303696870803833	22120140.30608421
1.3080145120620728	22166599.425545175
1.3123314380645752	22423215.188865803
1.3166478872299194	22724102.57316477
1.3209635019302368	22495034.357736852
1.3252781629562378	21331942.51947356
1.3295916318893433	18620323.495065186
1.3339040279388428	13555781.475066341
1.3382149934768677	7812059.846160759
1.3425244092941284	4967181.771266769
1.3468321561813354	5053468.786339409
1.3511382341384888	4527832.067237842
1.3554422855377197	3386021.1347667384
1.3597444295883179	3144180.743488875
1.3640443086624146	3499228.913423331
1.3683418035507202	4396038.265489953
1.3726370334625244	6550412.295723904
1.3769296407699585	8579081.158766698
1.381219506263733	6896547.883932409
1.3855066299438477	3631341.711110753
1.3897908926010132	2564256.9382240064
1.3940720558166504	2789461.7446071506
1.3983501195907593	3344968.676270477
1.4026249647140503	5000886.8384192735
1.4068963527679443	6357576.434100688
1.4111642837524414	5182176.811803348
1.4154287576675415	4128223.8028831487
1.419689416885376	4240537.769796466
1.4239463806152344	4157970.7352489117
1.4281994104385376	4842339.696568473
1.4324485063552856	5376333.451747359
1.436693549156189	5361038.685972757
1.440934419631958	6246229.086842496
1.4451709985733032	8375858.06935416
1.449403166770935	11209212.626254264
1.453631043434143	13038669.831142424
1.4578542709350586	13883514.03422672
1.4620729684829712	14841606.988883447
1.4662868976593018	15017189.775624419
1.4704961776733398	14376006.391482247
1.4747005701065063	14249636.515596405
1.4788999557495117	14980405.928527776
1.4830944538116455	16707187.254501708
1.4872838258743286	18513893.949164197
1.491468071937561	19028993.42925847
1.4956470727920532	19028623.917109963
1.4998208284378052	20066306.73578346
1.5039892196655273	21455779.12794684
1.5081522464752197	21775233.8935384
1.5123097896575928	22142645.216303904
1.5164618492126465	23485394.85872331
1.5206083059310913	25390874.564318027
1.5247491598129272	26722421.186909534
1.5288842916488647	26940005.414286647
1.5330137014389038	27366672.8494627
1.5371372699737549	28153542.027793866
1.541254997253418	28499641.68574819
1.545366883277893	28918614.219589863
1.5494728088378906	29617206.706130352
1.5535727739334106	29986748.52727353
1.5576666593551636	29874144.620366752
1.561754584312439	30111374.856061067
1.5658363103866577	31028311.368392676
1.5699119567871094	31643456.032204874
1.5739814043045044	31394933.75537229
1.5780447721481323	30877858.741345074
1.582101821899414	31338032.870168377
1.5861525535583496	32539691.910149794
1.5901970863342285	33090313.591505937
1.5942351818084717	32972815.77098933
1.5982669591903687	32763236.885672472
1.6022924184799194	32815699.48390569
1.606311559677124	33085101.58470295
1.6103241443634033	33174024.54901134
1.6143304109573364	33066429.242716473
1.6183301210403442	32927349.74747554
1.6223233938217163	32827579.33031255
1.6263102293014526	32721293.77892935
1.6302905082702637	32485380.181782283
1.634264349937439	32900995.93859546
1.638231635093689	34182099.42357806
1.6421923637390137	34920596.69862301
1.646146535873413	34531594.13030981
1.6500942707061768	33993071.06621571
1.6540353298187256	34261792.80184022
1.6579699516296387	34673614.221905336
1.661897897720337	33911071.79637784
1.6658192873001099	31786188.116524614
1.6697341203689575	31044214.495213285
1.6736423969268799	32994665.68498328
1.677544116973877	34425626.91855649
1.6814392805099487	34441801.55437204
1.6853278875350952	34296702.553677686
1.6892099380493164	33737831.479676895
1.6930854320526123	32312505.741585422
1.696954369544983	30906422.09165463
1.7008168697357178	30828282.204593323
1.7046726942062378	31390300.668331414
1.708522081375122	31770040.330331355
1.712364912033081	32049289.49266503
1.7162011861801147	32537061.760961115
1.7200311422348022	33187511.908149894
1.723854422569275	33238431.90179421
1.7276713848114014	32573193.26292997
1.731481909751892	31303214.410838142
1.7352858781814575	29835547.290961504
1.7390835285186768	28802290.76955234
1.7428747415542603	27646595.887257412
1.7466596364974976	25886963.02550342
1.7504380941390991	23787562.107985232
1.7542102336883545	22552367.66219033
1.7579760551452637	24755934.916590344
1.7617355585098267	27620704.54691331
1.7654887437820435	26079765.11013958
1.7692357301712036	21399728.015002288
1.7729763984680176	16192617.759912005
1.776710867881775	11425408.903553357
1.7804391384124756	9553323.27172874
1.7841613292694092	9778250.20372341
1.7878772020339966	8983354.818577763
1.7915871143341064	9294393.553403635
1.7952908277511597	11371834.94025831
1.7989884614944458	11564442.294731231
1.8026801347732544	8291379.813103066
1.806365728378296	4722756.659860514
1.8100452423095703	4834431.708076111
1.8137187957763672	6143493.522736591
1.817386507987976	5400679.345465217
1.8210482597351074	6178954.725018368
1.8247040510177612	6861949.297217371
1.828354001045227	4462938.102210821
1.8319982290267944	3809400.7296239883
1.8356364965438843	6053033.079818546
1.8392690420150757	8208179.404926952
1.8428958654403687	8458309.69065399
1.8465168476104736	8176274.841864479
1.8501322269439697	8184390.894669554
1.8537418842315674	6377273.717418322
1.8573459386825562	4603460.996973614
1.860944390296936	4089928.2994856685
1.864537239074707	3345379.410109541
1.8681244850158691	3861627.8921909607
1.871706247329712	6140584.154810638
1.8752825260162354	8604546.38607651
1.8788533210754395	11387275.606175851
1.8824186325073242	13330193.826370101
1.8859784603118896	12555283.086663099
1.8895330429077148	11851065.071322732
1.8930821418762207	13837012.923565697
1.8966259956359863	13583553.257742535
1.9001644849777222	8240311.250768778
1.9036977291107178	4386348.855684414
1.9072256088256836	4850008.990840285
1.9107483625411987	4817342.13040724
1.9142658710479736	3036339.82824139
1.9177782535552979	2812295.5175889446
1.9212853908538818	3883232.037352477
1.9247875213623047	3964230.378075827
1.9282845258712769	4086474.935730209
1.9317764043807983	5242758.92151946
1.9352631568908691	5768275.756253859
1.9387450218200684	5405659.160145379
1.942221760749817	5713238.844050299
1.9456936120986938	6407304.4877137635
1.9491604566574097	7080577.493937099
1.952622413635254	6798053.196047705
1.956079363822937	5579060.916698753
1.959531545639038	5523757.853409776
1.962978720664978	6108786.767955375
1.966421127319336	7535093.765300385
1.9698586463928223	10092364.346399494
1.9732913970947266	11356291.865329683
1.9767193794250488	12025456.626540754
1.9801424741744995	13931601.915860623
1.9835609197616577	15871885.806365725
1.9869745969772339	16025221.922775637
1.990383505821228	14177135.10604373
1.9937876462936401	13462105.768267073
1.9971871376037598	13800370.77785328
2.000581979751587	14844576.84600391
2.003972291946411	17821885.49291669
2.007357597351074	20201646.44983278
2.0107386112213135	22211444.448420465
2.0141148567199707	23044306.390150968
2.017486572265625	21466036.79777825
2.0208535194396973	21940339.301513456
2.0242159366607666	24824676.520673275
2.027573823928833	26661884.72213456
2.0309269428253174	27806744.43783664
2.034275770187378	29286130.34925176
2.0376198291778564	30472952.4893467
2.040959596633911	31510119.379126593
2.044294595718384	32920436.175278608
2.0476250648498535	34409363.31207445
2.0509510040283203	34766382.15480931
2.054272413253784	34006697.451942995
2.057589530944824	34219415.77208792
2.0609018802642822	35430951.05068538
2.0642096996307373	36455225.2958295
2.0675129890441895	37151931.3125497
2.0708119869232178	37447449.86046684
2.074106216430664	37267001.807661764
2.0773961544036865	37120619.92699313
2.080681324005127	37432015.725464635
2.0839622020721436	37875299.09623599
2.087238311767578	38198711.21957825
2.090510129928589	38198654.835746415
2.0937774181365967	37941405.815673344
2.0970399379730225	37930883.59958073
2.1002981662750244	38010461.91184232
2.1035518646240234	37761975.40782761
2.1068007946014404	37395062.20118735
2.1100454330444336	37707706.93601373
2.1132853031158447	38364600.04828772
2.116520881652832	38327977.88012886
2.1197516918182373	38126791.183476925
2.1229779720306396	38339083.92455725
2.12619948387146	38600828.51502983
2.1294167041778564	38677232.16595659
2.132629156112671	38720690.91710206
2.1358368396759033	38533033.24709037
2.139039993286133	38042626.463414855
2.1422386169433594	37611389.93409645
2.145432472229004	37308986.899657466
2.1486217975616455	37039368.592655964
2.151806354522705	36669401.20490854
2.1549863815307617	36593252.75729942
2.1581614017486572	36722232.31090912
2.16133189201355	36465942.23979882
2.1644976139068604	36185650.3104759
2.167658567428589	36090561.06890551
2.1708147525787354	36010618.78072945
2.173966407775879	35793378.65850401
2.1771130561828613	35513895.63778909
2.1802549362182617	35327798.94972294
2.183391809463501	34998392.098806456
2.1865241527557373	34418575.27315731
2.1896514892578125	33532040.278537903
2.1927738189697266	31590794.24900482
2.1958916187286377	28289734.401369687
2.1990041732788086	25092705.889510594
2.2021119594573975	23360455.40033571
2.2052149772644043	22788239.36064053
2.208312749862671	23118396.237085093
2.2114057540893555	24345903.68812774
2.214493751525879	25425966.188095618
2.217576742172241	25381445.79456093
2.2206547260284424	24959336.309535775
2.2237277030944824	24594846.85902437
2.2267956733703613	23250332.35769209
2.2298583984375	21275403.436511975
2.2329163551330566	20036643.301597953
2.235969066619873	19728454.230874855
2.2390167713165283	19329674.08970917
2.2420592308044434	17851912.257194515
2.2450966835021973	16149477.620677015
2.248128890991211	16259231.190230684
2.2511560916900635	17772759.8229
2.254178285598755	18754608.238033623
2.257194995880127	19340207.620096408
2.260206699371338	19359874.67375862
2.2632133960723877	17791194.88134926
2.266214609146118	15722865.37391087
2.2692108154296875	14972737.939786019
2.2722020149230957	15901383.207405666
2.2751877307891846	17114806.748702407
2.278168201446533	17013704.507212594
2.2811436653137207	15949581.299577948
2.284113883972168	15138134.187019486
2.287078857421875	14535562.486461883
2.290038824081421	13647224.650658863
2.2929933071136475	12547880.127134873
2.295942783355713	11380463.218485795
2.298887014389038	10299266.947693763
2.301826238632202	9604836.754238106
2.304760217666626	9473506.978578271
2.3076889514923096	9856672.979939165
2.310612440109253	10557799.4077861
2.3135311603546143	10532455.662525704
2.3164443969726562	8827301.535809923
2.319352865219116	6904160.642752949
2.322256088256836	6283855.0575186275
2.3251543045043945	6260722.145114627
2.328047275543213	6211382.097873402
2.330935478210449	6363430.797853494
2.3338186740875244	6638127.651213352
2.3366971015930176	6868187.896738744
2.3395702838897705	7088933.358437807
2.3424389362335205	7199905.3067833325
2.3453025817871094	7220883.074342519
2.348161458969116	7306766.793009315
2.351015567779541	7707896.636546303
2.353865146636963	8491858.34849329
2.3567099571228027	9141938.073852336
2.3595502376556396	9745880.961982341
2.3623859882354736	10709504.691841451
2.3652172088623047	10686973.664004512
2.368043899536133	8475868.07941193
2.370866537094116	6206762.654997117
2.3736846446990967	6109883.569714165
2.3764986991882324	6537183.705031341
2.3793084621429443	6150938.8491297355
2.3821144104003906	6222730.991247125
2.384916305541992	7558142.839903259
2.387714147567749	9289351.416507598
2.3905084133148193	10155244.859864276
2.393299102783203	10066902.143064968
2.3960859775543213	9324735.441876905
2.398869514465332	8563211.219132531
2.4016497135162354	8106101.474738823
2.4044265747070312	7902628.512182984
2.407200336456299	8484285.056681376
2.409970998764038	9603736.843683232
2.4127390384674072	10293081.030594252
2.415503978729248	10671086.832575511
2.418266534805298	11513849.999972658
2.4210267066955566	12236865.58601317
2.4237842559814453	11710611.71224652
2.426539897918701	10681041.49797932
2.429293394088745	10620240.280836089
2.4320452213287354	11356536.559024474
2.4347951412200928	11878397.119393343
2.4375438690185547	11877847.670396708
2.440291166305542	11496345.310070543
2.443037271499634	10688691.013884977
2.445782423019409	9530746.448728403
2.4485268592834473	8390817.16019128
2.451270818710327	8036949.425504369
2.454014539718628	9379069.119165791
2.4567582607269287	10944258.655969817
2.4595019817352295	10678430.778103035
2.4622461795806885	10590269.404518627
2.4649908542633057	10677996.716842387
2.4677364826202393	8800911.178119197
2.4704833030700684	6387453.484132419
2.473231554031372	4718656.836056134
2.4759814739227295	3659218.128012972
2.4787333011627197	3304095.5061928504
2.481487512588501	3844146.148347019
