#wavelength	surface flux
0.6450077295303345	2264.4293930781646
0.6472567915916443	3543.712810439539
0.6494921445846558	4605.2890991498125
0.6517150402069092	5287.337661024709
0.6539263725280762	5974.365746395124
0.6561272740364075	6689.626866307219
0.6583186388015747	7448.210154967379
0.6605015397071838	8262.754050493944
0.6626768708229065	9145.814417659416
0.6648455858230591	10100.30431328508
0.6670085787773132	10935.28263797032
0.6691668033599854	11223.493493036454
0.6713210344314575	11795.23472369754
0.6734722256660461	13649.89334041996
0.6756211519241333	15682.662733582905
0.6777685880661011	17168.793448002845
0.6799154281616211	18543.20177847519
0.6820623278617859	19931.778703565207
0.6842101216316223	21342.476989427967
0.6863595843315125	22766.397656554636
0.688511312007904	24128.68784967607
0.6906660795211792	25183.965925647855
0.6928245425224304	25981.1136822495
0.6949873566627502	27279.78930846717
0.6971551775932312	28981.819707196242
0.6993286609649658	30376.730169398365
0.7015084028244019	31638.12012337849
0.7036949396133423	32787.566464131916
0.7058889269828796	33609.00164248615
0.7080909013748169	34180.49129412645
0.710301399230957	34684.8956542197
0.712520956993103	35022.929660264555
0.7147500514984131	34806.26399645147
0.7169892191886902	34014.630489059564
0.7192389369010925	32892.18954916023
0.7214996814727783	31310.1743703945
0.723771870136261	29192.155391245626
0.7260559797286987	26969.17933368837
0.7283523678779602	24795.15113041606
0.7306615710258484	23597.37577083863
0.7329838871955872	23704.865236029236
0.7353196740150452	22893.97641917421
0.7376693487167358	20675.49795034571
0.7400332689285278	18232.784967429994
0.7424117922782898	15868.329747991353
0.7448052167892456	13767.66503956389
0.7472138404846191	11779.99269713205
0.7496379613876343	9770.415453294616
0.7520779371261597	7859.411149543723
0.7545340061187744	6099.446299075498
0.7570064663887024	4522.039512926558
0.7594954967498779	3140.0887268170895
0.7620013952255249	1940.6563623718762
0.7645244002342224	974.5809193720155
0.7670646905899048	425.4691760013952
0.7696225643157959	451.7045596954402
0.7721980810165405	1191.6604935253038
0.7747915983200073	2629.1915008633227
0.7774031162261963	4413.349046967798
0.7800329327583313	6610.955360597321
0.7826811671257019	9953.950117214703
0.7853479981422424	14447.868857067935
0.7880334854125977	19526.32675354394
0.7907378077507019	23182.046278257425
0.7934610247612	24034.65840107683
0.7962033748626709	30950.484457826587
0.7989648580551147	47067.421978943166
0.801745593547821	62724.73826673801
0.8045456409454346	76175.32621554105
0.8073651194572449	89287.8836051329
0.8102040886878967	101296.029597095
0.8130625486373901	116379.32207694347
0.8159406185150146	138051.67060006634
0.8188382983207703	164914.6322108774
0.8217556476593018	195715.79318838866
0.8246926665306091	225433.39105099038
0.8276493549346924	250215.29342602214
0.8306257724761963	280380.70345127105
0.8336219191551208	324136.95090135396
0.8366377949714661	367341.24774631136
0.8396733403205872	405805.27527108963
0.8427285552024841	452025.8240909316
0.8458034992218018	505221.08757703635
0.8488980531692505	532239.7917081583
0.8520121574401855	547238.45843599
0.8551458716392517	641233.9355712004
0.8582990765571594	779397.1457610283
0.8614717125892639	878319.6756076869
0.8646637797355652	965596.8353408241
0.8678751587867737	1071298.9455897002
0.8711057901382446	1189159.044525687
0.8743556141853333	1299641.9435157352
0.87762451171875	1388034.950510259
0.8809124231338501	1437104.14441321
0.8842192888259888	1455440.412013274
0.8875449895858765	1466648.617612738
0.8908893465995789	1398416.8345793567
0.894252359867096	1262976.457759486
0.8976338505744934	1427560.674638259
0.9010337591171265	1983376.2130814102
0.9044519662857056	2532796.06889145
0.9078882932662964	2855165.1823237995
0.9113426208496094	2947849.2726095784
0.914814829826355	2867018.831787461
0.9183048605918884	2850950.645725924
0.9218124747276306	2735598.257076253
0.925337553024292	1988202.6226802778
0.9288799166679382	1248445.0758818686
0.9324395060539246	1130578.3466725447
0.9360161423683167	1182525.3946964883
0.9396095871925354	1142266.3407192198
0.943219780921936	1051316.6203395892
0.9468464851379395	896040.624157771
0.9504896402359009	1089932.687147143
0.9541489481925964	1775757.6364564127
0.9578243494033813	1886558.7085495181
0.9615156054496765	1247760.5474119193
0.9652225375175476	864379.5435278552
0.9689450263977051	1406200.0959638553
0.9726828336715698	2538822.743159473
0.9764357805252075	3136963.3641351145
0.9802037477493286	3448048.46492593
0.983986496925354	4362340.540890815
0.9877838492393494	5347851.487709374
0.9915955662727356	5992837.316752648
0.9954215884208679	6528569.724961839
0.9992615580558777	6662106.1901190495
1.0031154155731201	6573519.103647998
1.0069829225540161	7239318.986960222
1.0108637809753418	8736895.28508071
1.0147579908370972	10333800.371953515
1.018665075302124	11388039.362952588
1.022585153579712	11710991.246190729
1.0265177488327026	12083790.903121067
1.0304628610610962	13113556.083997188
1.0344202518463135	14236488.030978326
1.0383895635604858	15041905.876078336
1.0423706769943237	15626540.086829005
1.0463634729385376	15706935.785477405
1.0503677129745483	15738965.387971174
1.0543830394744873	16666503.503112491
1.058409333229065	17808854.796274945
1.0624464750289917	18405459.422856215
1.0664942264556885	18319984.98132828
1.0705522298812866	17771646.76623705
1.0746204853057861	17496037.057223015
1.0786986351013184	17273921.053526804
1.0827864408493042	17153772.71383505
1.086883783340454	15849791.877068654
1.0909905433654785	12009890.52780551
1.0951062440872192	8353124.773543753
1.0992310047149658	5546631.342380083
1.10336434841156	2637542.963131443
1.1075061559677124	1276411.7192668414
1.1116561889648438	1020820.7325405173
1.115814208984375	612928.0139030019
1.1199802160263062	450149.1249154196
1.124153733253479	471927.1917541928
1.1283347606658936	371762.5597874501
1.1325229406356812	303676.9068855913
1.1367181539535522	687901.0608911734
1.1409201622009277	1413597.6406546193
1.145128846168518	1744791.781133477
1.1493438482284546	1349408.2846050982
1.1535650491714478	683443.9744379077
1.1577922105789185	365794.2675437841
1.1620250940322876	460835.18321342644
1.1662636995315552	917436.1416400938
1.170507550239563	1638756.1202664303
1.174756646156311	2769755.381536363
1.1790107488632202	4379598.26480468
1.1832695007324219	5105223.311759517
1.1875330209732056	4803275.08509732
1.191800832748413	6530941.37240216
1.1960728168487549	10227056.72178578
1.2003488540649414	12688512.266002543
1.2046287059783936	13790536.64220699
1.2089121341705322	14331296.218047844
1.2131990194320679	15222173.86648742
1.2174891233444214	17388428.55504875
1.2217823266983032	19414819.06611602
1.2260783910751343	21016773.665404174
1.230377197265625	22954444.088632204
1.2346785068511963	24406250.298548218
1.238982081413269	25229041.783956684
1.2432878017425537	26342479.564227022
1.2475954294204712	27486380.50535723
1.2519049644470215	28141709.685865626
1.256216049194336	29947777.070580937
1.2605286836624146	30591823.512662634
1.2648425102233887	28276457.61814744
1.2691574096679688	27633478.089059606
1.2734732627868652	29511795.20003414
1.2777899503707886	28695658.462800782
1.2821072340011597	24843926.55475762
1.2864248752593994	23286659.929026112
1.2907428741455078	23305018.982200935
1.2950609922409058	22397331.59095821
1.2993791103363037	17908019.783119176
1.303696870803833	12830576.947725557
1.3080145120620728	11429010.040173689
1.3123314380645752	12083222.057132231
1.3166478872299194	14285322.388659827
1.3209635019302368	13124888.8509566
1.3252781629562378	8769859.856346397
1.3295916318893433	5246000.839433487
1.3339040279388428	2235137.5914086914
1.3382149934768677	549649.4237693336
1.3425244092941284	193265.51035008274
1.3468321561813354	104147.34253883347
1.3511382341384888	65001.65085614547
1.3554422855377197	38648.98711603005
1.3597444295883179	36185.45546723275
1.3640443086624146	48936.32047473227
1.3683418035507202	43550.3607967006
1.3726370334625244	32137.006313795802
1.3769296407699585	48999.70088040847
1.381219506263733	55703.938027588534
1.3855066299438477	31688.129130975518
1.3897908926010132	46569.60063185912
1.3940720558166504	102022.01855872147
1.3983501195907593	94114.1086956772
1.4026249647140503	65022.8558755355
1.4068963527679443	71958.55231508373
1.4111642837524414	55208.43678508058
1.4154287576675415	34532.15122173411
1.419689416885376	37511.072955609074
1.4239463806152344	49154.66865498325
1.4281994104385376	37346.55664097829
1.4324485063552856	19294.36131105096
1.436693549156189	54444.29881509372
1.440934419631958	191092.07110582982
1.4451709985733032	476334.19293345424
1.449403166770935	810662.2572116058
1.453631043434143	860090.1793866864
1.4578542709350586	815980.4102991931
1.4620729684829712	1206877.1467102102
1.4662868976593018	1609215.2001086872
1.4704961776733398	1077220.6745269224
1.4747005701065063	323919.52168685815
1.4788999557495117	455271.9705478654
1.4830944538116455	1003884.633016936
1.4872838258743286	1090934.1894461336
1.491468071937561	746460.199039729
1.4956470727920532	888615.203482493
1.4998208284378052	1774441.6199501038
1.5039892196655273	2141350.2056925953
1.5081522464752197	1574029.6978983087
1.5123097896575928	1534614.2409612855
1.5164618492126465	2717455.373398768
1.5206083059310913	4239915.240180823
1.5247491598129272	5033881.448880384
1.5288842916488647	5311670.611455714
1.5330137014389038	5885882.801629795
1.5371372699737549	6516468.332342119
1.541254997253418	6723341.8275623955
1.545366883277893	7338195.572082752
1.5494728088378906	8280836.058368133
1.5535727739334106	8926940.85564553
1.5576666593551636	9789692.496911814
1.561754584312439	11204443.84674481
1.5658363103866577	12848514.506979639
1.5699119567871094	13695127.488677837
1.5739814043045044	13343798.1504528
1.5780447721481323	13400076.037712742
1.582101821899414	14667956.69224037
1.5861525535583496	15827863.476960957
1.5901970863342285	15302159.242458165
1.5942351818084717	13148865.24793589
1.5982669591903687	11548973.95763174
1.6022924184799194	10760314.900110954
1.606311559677124	9720131.950834103
1.6103241443634033	9299514.169274054
1.6143304109573364	8338757.753979877
1.6183301210403442	6152633.550823234
1.6223233938217163	4590742.460274985
1.6263102293014526	3901542.5235598343
1.6302905082702637	4353192.056664226
1.634264349937439	6047286.26105867
1.638231635093689	7867262.78024532
1.6421923637390137	8187139.754579281
1.646146535873413	5835751.811911007
1.6500942707061768	3625284.6579576195
1.6540353298187256	3933819.5746313194
1.6579699516296387	4680106.832797116
1.661897897720337	4582645.2606642805
1.6658192873001099	3206909.08507743
1.6697341203689575	1680878.3498514239
1.6736423969268799	1564099.0612756512
1.677544116973877	1620079.2280251363
1.6814392805099487	1396934.1053478215
1.6853278875350952	1219932.009063988
1.6892099380493164	975664.170426358
1.6930854320526123	828898.3916067892
1.696954369544983	627223.5132124423
1.7008168697357178	430248.96842796245
1.7046726942062378	408253.62378870975
1.708522081375122	619493.0421601714
1.712364912033081	869543.6019593093
1.7162011861801147	1090420.4044407294
1.7200311422348022	1459938.3402869506
1.723854422569275	1439788.4950360176
1.7276713848114014	999138.0223910842
1.731481909751892	841532.8323888219
1.7352858781814575	979343.3635394981
1.7390835285186768	1202477.8526770328
1.7428747415542603	1363122.8933119166
1.7466596364974976	1136094.1918620458
1.7504380941390991	745666.3296614402
1.7542102336883545	843444.3378252627
1.7579760551452637	1243500.0520707972
1.7617355585098267	1338599.552664081
1.7654887437820435	1104000.5469890584
1.7692357301712036	768559.624613248
1.7729763984680176	502586.02496059984
1.776710867881775	318972.1075994617
1.7804391384124756	228710.2467560909
1.7841613292694092	228804.13467101956
1.7878772020339966	261550.07797317117
1.7915871143341064	427061.67494779284
1.7952908277511597	538131.1066030113
1.7989884614944458	420612.59447391966
1.8026801347732544	299812.52429004136
1.806365728378296	305616.61478786985
1.8100452423095703	308492.2378302158
1.8137187957763672	223405.8968708844
1.817386507987976	137062.90882041233
1.8210482597351074	282865.3829278612
1.8247040510177612	556114.0984562697
1.828354001045227	493989.4668836549
1.8319982290267944	215110.54009352846
1.8356364965438843	187674.44318967016
1.8392690420150757	407804.44788459473
1.8428958654403687	574207.662685625
1.8465168476104736	498350.8599555592
1.8501322269439697	292611.8674828225
1.8537418842315674	219295.05623665045
1.8573459386825562	295048.2226513732
1.860944390296936	241807.55590045574
1.864537239074707	80066.9084702835
1.8681244850158691	16223.358928957095
1.871706247329712	34800.37133319796
1.8752825260162354	93626.64299318055
1.8788533210754395	168486.57817382217
1.8824186325073242	307785.30146124406
1.8859784603118896	665125.5998789318
1.8895330429077148	950494.7690766697
1.8930821418762207	671122.3525483449
1.8966259956359863	293677.3726321363
1.9001644849777222	249013.15551169636
1.9036977291107178	230695.2502336676
1.9072256088256836	325948.29587681656
1.9107483625411987	472734.422800839
1.9142658710479736	322884.4842809265
1.9177782535552979	174919.19600696128
1.9212853908538818	158861.5998783619
1.9247875213623047	78892.88363974592
1.9282845258712769	39833.88001863984
1.9317764043807983	173280.27770207243
1.9352631568908691	429361.7113318805
1.9387450218200684	459062.5616916512
1.942221760749817	232537.66298323055
1.9456936120986938	88140.72512631676
1.9491604566574097	63114.866347250616
1.952622413635254	88003.91918626153
1.956079363822937	220885.2210223867
1.959531545639038	452490.59898473765
1.962978720664978	492761.77869347134
1.966421127319336	369218.83298564324
1.9698586463928223	418787.3802620955
1.9732913970947266	530823.0836384766
1.9767193794250488	623724.2861417482
1.9801424741744995	759615.3831354055
1.9835609197616577	831411.4758480436
1.9869745969772339	974694.1293016925
1.990383505821228	1125848.2521662372
1.9937876462936401	1082173.5517364338
1.9971871376037598	829657.7509713154
2.000581979751587	564317.8378043565
2.003972291946411	746110.3100795357
2.007357597351074	1184734.6196536787
2.0107386112213135	1403630.6719765572
2.0141148567199707	1306594.7172929333
2.017486572265625	1048487.5614784412
2.0208535194396973	917718.0663887623
2.0242159366607666	931600.9176224519
2.027573823928833	1003851.8387579437
2.0309269428253174	1077591.0732794404
2.034275770187378	1347345.9414035364
2.0376198291778564	1940906.2165470384
2.040959596633911	2392947.488297296
2.044294595718384	2502506.2381870905
2.0476250648498535	2403093.513366617
2.0509510040283203	2117932.4822786944
2.054272413253784	1947042.2070899853
2.057589530944824	2108944.9620123226
2.0609018802642822	2360731.052852521
2.0642096996307373	2517304.761004697
2.0675129890441895	2573666.2730097002
2.0708119869232178	2537879.6103348467
2.074106216430664	2458511.0509936227
2.0773961544036865	2440667.3468566304
2.080681324005127	2463496.205416139
2.0839622020721436	2422033.1271827626
2.087238311767578	2342661.054220649
2.090510129928589	2302285.7054821006
2.0937774181365967	2292527.3552923435
2.0970399379730225	2233568.691075509
2.1002981662750244	2090350.5804227665
2.1035518646240234	1993502.6607718319
2.1068007946014404	2002199.5623287328
2.1100454330444336	1999732.6314794861
2.1132853031158447	1911877.4361215243
2.116520881652832	1722082.3055331444
2.1197516918182373	1513223.3765343365
2.1229779720306396	1377154.7797768414
2.12619948387146	1287934.8028453207
2.1294167041778564	1269127.161525539
2.132629156112671	1318410.7697084409
2.1358368396759033	1249939.3844597975
2.139039993286133	1108066.9510029443
2.1422386169433594	994790.2626847681
2.145432472229004	859493.3585950417
2.1486217975616455	737429.188930779
2.151806354522705	610921.5829242775
2.1549863815307617	611861.9557901641
2.1581614017486572	755547.4502302994
2.16133189201355	822608.9336053639
2.1644976139068604	775387.2550864635
2.167658567428589	621734.7028309627
2.1708147525787354	526794.0588206439
2.173966407775879	667081.0959165801
2.1771130561828613	886468.5746075877
2.1802549362182617	936449.3214567383
2.183391809463501	802406.5221831981
2.1865241527557373	666366.9893759065
2.1896514892578125	594451.3958236803
2.1927738189697266	483648.2508236313
2.1958916187286377	286392.4620067742
2.1990041732788086	110323.64061667184
2.2021119594573975	39958.846521107385
2.2052149772644043	50537.1698144054
2.208312749862671	99798.42403769743
2.2114057540893555	162959.445146013
2.214493751525879	195999.11609553656
2.217576742172241	152022.57872528874
2.2206547260284424	78753.58582131806
2.2237277030944824	46012.9288963728
2.2267956733703613	37835.189610039764
2.2298583984375	30966.034456284582
2.2329163551330566	26950.687747563563
2.235969066619873	28521.090919755694
2.2390167713165283	28729.488197887033
2.2420592308044434	23144.58850950482
2.2450966835021973	17948.693021695835
2.248128890991211	16659.36013651384
2.2511560916900635	18615.348248956594
2.254178285598755	30534.590942164505
2.257194995880127	60301.80904454221
2.260206699371338	69774.8869687826
2.2632133960723877	37208.32728709496
2.266214609146118	19519.504917022703
2.2692108154296875	48085.99884885735
2.2722020149230957	79500.90479821878
2.2751877307891846	69111.23164807085
2.278168201446533	40542.91055319245
2.2811436653137207	34183.905266096175
2.284113883972168	37283.27652650571
2.287078857421875	27625.201616627302
2.290038824081421	15618.73461186689
2.2929933071136475	12996.066249464862
2.295942783355713	13332.34996804618
2.298887014389038	13279.046060789318
2.301826238632202	17583.69813474018
2.304760217666626	32067.60535249497
2.3076889514923096	58808.53866702623
2.310612440109253	98909.99656577056
2.3135311603546143	155520.9688253318
2.3164443969726562	171936.26128377244
2.319352865219116	100014.48029487679
2.322256088256836	29301.01590967539
2.3251543045043945	14207.153704582142
2.328047275543213	12334.853790165253
2.330935478210449	9326.371263893134
2.3338186740875244	7260.4117571294655
2.3366971015930176	5495.400996885902
2.3395702838897705	4205.222667469885
2.3424389362335205	3530.865573119796
2.3453025817871094	3018.189894954678
2.348161458969116	3050.3439942062264
2.351015567779541	7464.081871736235
2.353865146636963	22028.6764774954
2.3567099571228027	44761.95510311999
2.3595502376556396	66767.2300199808
2.3623859882354736	71039.19811013743
2.3652172088623047	45898.14962305556
2.368043899536133	15992.604214383375
2.370866537094116	4104.7831586630355
2.3736846446990967	2924.888501345046
2.3764986991882324	3551.333647000176
2.3793084621429443	4905.4057060412915
2.3821144104003906	9637.86557741965
2.384916305541992	17168.856915825698
2.387714147567749	19869.268357531928
2.3905084133148193	14942.02672019988
2.393299102783203	10338.136324824987
2.3960859775543213	8690.867341644347
2.398869514465332	9574.056470608002
2.4016497135162354	20114.123867058355
2.4044265747070312	45548.24745279176
2.407200336456299	66297.66198179372
2.409970998764038	61402.70322031963
2.4127390384674072	46300.23003370679
2.415503978729248	44358.73487361397
2.418266534805298	57493.81869522553
2.4210267066955566	68796.13486804812
2.4237842559814453	63020.57050007048
2.426539897918701	57454.42706111137
2.429293394088745	77421.6279794026
2.4320452213287354	101374.90230301143
2.4347951412200928	99258.42857276031
2.4375438690185547	96371.57775820911
2.440291166305542	115989.8018085342
2.443037271499634	122747.52893475357
2.445782423019409	102041.17196814343
2.4485268592834473	93100.92645418392
2.451270818710327	127573.67287096451
2.454014539718628	183800.753125303
2.4567582607269287	214624.4791984503
2.4595019817352295	228338.0013794928
2.4622461795806885	263967.4858522838
2.4649908542633057	319969.48990535067
2.4677364826202393	347505.91609184124
2.4704833030700684	301753.16092254256
2.473231554031372	206964.7195711047
2.4759814739227295	126803.74697386107
2.4787333011627197	81290.89696811847
2.481487512588501	52117.78336305006
