#wavelength	surface flux
0.6450077295303345	31182.19962393233
0.6472567915916443	49262.35885353416
0.6494921445846558	64709.36827285763
0.6517150402069092	74919.28248974684
0.6539263725280762	85509.28060600779
0.6561272740364075	96838.57029961306
0.6583186388015747	108918.8061752322
0.6605015397071838	121716.79614695723
0.6626768708229065	135131.20082571346
0.6648455858230591	148388.02658088919
0.6670085787773132	154829.53788070614
0.6691668033599854	143205.7695843746
0.6713210344314575	139972.0936391134
0.6734722256660461	177400.83683090622
0.6756211519241333	223230.92380865518
0.6777685880661011	251151.15567199193
0.6799154281616211	272524.74205993133
0.6820623278617859	292878.6598808073
0.6842101216316223	312885.44121843256
0.6863595843315125	332536.9857919807
0.688511312007904	351318.3155782023
0.6906660795211792	367826.486946923
0.6928245425224304	382608.93555181625
0.6949873566627502	399638.5426025722
0.6971551775932312	417812.27396232483
0.6993286609649658	433211.8670421
0.7015084028244019	446612.9947174497
0.7036949396133423	457856.7013802226
0.7058889269828796	465674.31004419003
0.7080909013748169	470334.04957907874
0.710301399230957	472655.02761616814
0.712520956993103	472017.396248738
0.7147500514984131	466345.76731681824
0.7169892191886902	455480.7585743976
0.7192389369010925	440840.48334907345
0.7214996814727783	422188.8071377575
0.723771870136261	399080.0760899539
0.7260559797286987	373017.5403649755
0.7283523678779602	344716.3969675228
0.7306615710258484	318761.1043398231
0.7329838871955872	297141.87689013337
0.7353196740150452	270149.1342473162
0.7376693487167358	236093.12403194694
0.7400332689285278	201239.5354331142
0.7424117922782898	167350.3871161395
0.7448052167892456	135634.09472991768
0.7472138404846191	106294.24143096092
0.7496379613876343	79564.31734639402
0.7520779371261597	56575.60659986291
0.7545340061187744	37940.92266444648
0.7570064663887024	23802.66087876364
0.7594954967498779	13847.019956071634
0.7620013952255249	7253.240352857069
0.7645244002342224	3164.859604068935
0.7670646905899048	1212.5031844303799
0.7696225643157959	1295.1286882805646
0.7721980810165405	3894.0883582317556
0.7747915983200073	9690.092202205185
0.7774031162261963	18216.999332336232
0.7800329327583313	31866.61602109368
0.7826811671257019	57802.93931742647
0.7853479981422424	96984.62789724098
0.7880334854125977	144485.11632000114
0.7907378077507019	179415.15868047805
0.7934610247612	187948.14152263288
0.7962033748626709	259950.2993066312
0.7989648580551147	427923.35229925084
0.801745593547821	594267.1830999132
0.8045456409454346	739047.4408030405
0.8073651194572449	886479.6400807148
0.8102040886878967	1037407.0147853435
0.8130625486373901	1213004.8824503976
0.8159406185150146	1421389.504599268
0.8188382983207703	1653834.4276730937
0.8217556476593018	1922910.8605439118
0.8246926665306091	2205001.1086386293
0.8276493549346924	2468737.371856782
0.8306257724761963	2764051.062063979
0.8336219191551208	3128406.564944502
0.8366377949714661	3496654.338189488
0.8396733403205872	3852887.649217922
0.8427285552024841	4251855.646144669
0.8458034992218018	4639670.388207429
0.8488980531692505	4702021.542589257
0.8520121574401855	4654220.954667577
0.8551458716392517	5432967.566845345
0.8582990765571594	6583533.678755639
0.8614717125892639	7125947.462626664
0.8646637797355652	7516157.669359258
0.8678751587867737	8207124.002416583
0.8711057901382446	8958553.831675708
0.8743556141853333	9667146.370008184
0.87762451171875	10406447.981558342
0.8809124231338501	11083173.616877504
0.8842192888259888	11680984.82407066
0.8875449895858765	12065250.438684609
0.8908893465995789	11578836.919241978
0.894252359867096	10836660.708140632
0.8976338505744934	12306662.33902744
0.9010337591171265	15664921.658834523
0.9044519662857056	18445069.3938018
0.9078882932662964	20227176.37250011
0.9113426208496094	21349558.88604382
0.914814829826355	21882469.956928875
0.9183048605918884	22416369.191782724
0.9218124747276306	21890835.39634545
0.925337553024292	18109836.1644398
0.9288799166679382	14414987.083781494
0.9324395060539246	14103441.999363402
0.9360161423683167	15192769.980234109
0.9396095871925354	15936447.156299585
0.943219780921936	15732461.8753415
0.9468464851379395	14223628.066664545
0.9504896402359009	15109793.202176936
0.9541489481925964	19971602.022375867
0.9578243494033813	21690032.54129242
0.9615156054496765	17821077.244219653
0.9652225375175476	14288918.020475015
0.9689450263977051	17365414.08668918
0.9726828336715698	24952008.198209904
0.9764357805252075	28798995.516563747
0.9802037477493286	30326900.451961245
0.983986496925354	34943517.89983299
0.9877838492393494	39571022.78327171
0.9915955662727356	41215389.66456825
0.9954215884208679	40772501.73824774
0.9992615580558777	37995386.44248496
1.0031154155731201	35799663.35456454
1.0069829225540161	38012293.623408325
1.0108637809753418	43654386.49746107
1.0147579908370972	49889448.66375809
1.018665075302124	54148611.166699536
1.022585153579712	55519006.5468879
1.0265177488327026	57052492.34317772
1.0304628610610962	61512300.495630056
1.0344202518463135	66710639.42097043
1.0383895635604858	70519578.49949594
1.0423706769943237	73475727.17818758
1.0463634729385376	75734322.789997
1.0503677129745483	77790460.89125082
1.0543830394744873	81762757.17213795
1.058409333229065	86640395.96397544
1.0624464750289917	89992065.70798573
1.0664942264556885	91553708.89581725
1.0705522298812866	92379314.35671446
1.0746204853057861	93897101.64517875
1.0786986351013184	95158388.02717087
1.0827864408493042	95677832.76830867
1.086883783340454	90198704.67131303
1.0909905433654785	74604084.39560282
1.0951062440872192	59285143.184134476
1.0992310047149658	43787676.26412406
1.10336434841156	24620483.678333115
1.1075061559677124	15072822.733038312
1.1116561889648438	13013616.791587241
1.115814208984375	10066932.30566553
1.1199802160263062	9494087.278423805
1.124153733253479	10392789.120018506
1.1283347606658936	8828512.6465365
1.1325229406356812	6857651.798088895
1.1367181539535522	10599395.641664255
1.1409201622009277	18399203.49114961
1.145128846168518	22448248.202473756
1.1493438482284546	19100182.426321585
1.1535650491714478	12844220.576158756
1.1577922105789185	10181246.195392273
1.1620250940322876	11023208.903625853
1.1662636995315552	14815223.743822988
1.170507550239563	19590520.76208565
1.174756646156311	24964980.519860227
1.1790107488632202	33289921.628556553
1.1832695007324219	38168332.11590666
1.1875330209732056	36632859.517890885
1.191800832748413	43806176.601422474
1.1960728168487549	60249542.3914509
1.2003488540649414	69965778.19177829
1.2046287059783936	73700924.56699313
1.2089121341705322	75588878.781643
1.2131990194320679	79139116.2479051
1.2174891233444214	87881466.92140023
1.2217823266983032	95421145.3296581
1.2260783910751343	99975023.70537902
1.230377197265625	105106003.87756193
1.2346785068511963	108306601.8669714
1.238982081413269	106093897.68596375
1.2432878017425537	102646512.92871597
1.2475954294204712	102067220.33927973
1.2519049644470215	102249932.30727853
1.256216049194336	112221460.63220009
1.2605286836624146	123517586.3301107
1.2648425102233887	122742948.50739644
1.2691574096679688	124662167.30601795
1.2734732627868652	132211285.17451344
1.2777899503707886	131055232.07056454
1.2821072340011597	121564924.19471933
1.2864248752593994	117826422.78773262
1.2907428741455078	118019669.6842642
1.2950609922409058	114472008.13657123
1.2993791103363037	99790067.18647403
1.303696870803833	85960113.04582964
1.3080145120620728	84608446.44226874
1.3123314380645752	86562203.22583506
1.3166478872299194	88534776.7430976
1.3209635019302368	78867330.54512197
1.3252781629562378	60308769.657809705
1.3295916318893433	41381035.75259771
1.3339040279388428	19644580.16707202
1.3382149934768677	5612353.92029137
1.3425244092941284	2334443.013659159
1.3468321561813354	1839636.7935650165
1.3511382341384888	1591665.7023501291
1.3554422855377197	1180504.772278447
1.3597444295883179	1339770.4914292074
1.3640443086624146	1971037.6202090317
1.3683418035507202	1819357.9947823877
1.3726370334625244	1384262.2538646343
1.3769296407699585	1690563.0253972176
1.381219506263733	1602375.259355214
1.3855066299438477	902574.2692584182
1.3897908926010132	957567.2691685513
1.3940720558166504	1600113.311460909
1.3983501195907593	1498458.5597014297
1.4026249647140503	1313731.6559699178
1.4068963527679443	1605126.908631969
1.4111642837524414	1604554.7648485035
1.4154287576675415	1512605.7574644524
1.419689416885376	1442739.9238368748
1.4239463806152344	1397933.9884881233
1.4281994104385376	1113454.1951001708
1.4324485063552856	824271.7770160649
1.436693549156189	1311788.850600981
1.440934419631958	2516906.7401394565
1.4451709985733032	4528659.6052311035
1.449403166770935	6741526.212815539
1.453631043434143	6831719.078696949
1.4578542709350586	6130994.147171836
1.4620729684829712	7870181.560322854
1.4662868976593018	9738918.049684739
1.4704961776733398	7111592.240992891
1.4747005701065063	3512522.4341763994
1.4788999557495117	4716785.0803435715
1.4830944538116455	8789463.044284154
1.4872838258743286	10045273.278185869
1.491468071937561	7940088.41813042
1.4956470727920532	8073650.981892905
1.4998208284378052	11854580.072093695
1.5039892196655273	13528245.144820943
1.5081522464752197	11258362.25181986
1.5123097896575928	11762926.921945978
1.5164618492126465	18444679.468699675
1.5206083059310913	25918489.07342848
1.5247491598129272	28131871.689372115
1.5288842916488647	27974721.073456325
1.5330137014389038	30549622.21351128
1.5371372699737549	32899118.205125883
1.541254997253418	32783695.355930988
1.545366883277893	34798935.25416038
1.5494728088378906	37777296.598490484
1.5535727739334106	39173394.97544232
1.5576666593551636	41559207.4126865
1.561754584312439	45662383.150612
1.5658363103866577	50011279.94424115
1.5699119567871094	51971476.7936112
1.5739814043045044	51419080.013456225
1.5780447721481323	52364048.39270032
1.582101821899414	56107032.04929752
1.5861525535583496	59283486.08683394
1.5901970863342285	58285352.27753144
1.5942351818084717	54296636.57569698
1.5982669591903687	52737043.039990306
1.6022924184799194	52150991.42763458
1.606311559677124	49333200.58371953
1.6103241443634033	48179932.973382376
1.6143304109573364	46281987.84195442
1.6183301210403442	41023055.04602134
1.6223233938217163	37229891.874361195
1.6263102293014526	35538157.778376214
1.6302905082702637	36253809.630070426
1.634264349937439	40514906.95131889
1.638231635093689	45511317.41383374
1.6421923637390137	46404730.634561725
1.646146535873413	39792805.30546025
1.6500942707061768	33647759.66380015
1.6540353298187256	34842310.646086775
1.6579699516296387	36569925.585026555
1.661897897720337	33966698.736989066
1.6658192873001099	24755653.851341058
1.6697341203689575	17195978.3135975
1.6736423969268799	20176147.27286875
1.677544116973877	24050193.08855903
1.6814392805099487	23869384.187872052
1.6853278875350952	21750677.84820814
1.6892099380493164	18435107.665100593
1.6930854320526123	15699196.075912567
1.696954369544983	13840197.151700737
1.7008168697357178	13074194.08093064
1.7046726942062378	13184872.238482397
1.708522081375122	14595100.665212316
1.712364912033081	15584374.557561073
1.7162011861801147	15505386.454092784
1.7200311422348022	16701334.659284908
1.723854422569275	17044731.64809299
1.7276713848114014	14991525.868443348
1.731481909751892	12930776.260461023
1.7352858781814575	12415334.775716169
1.7390835285186768	13159129.683655938
1.7428747415542603	13287783.710682163
1.7466596364974976	10978868.898019256
1.7504380941390991	8386487.597831452
1.7542102336883545	8833969.873034028
1.7579760551452637	11362108.419907564
1.7617355585098267	13582656.849663537
1.7654887437820435	13458655.372960666
1.7692357301712036	10239030.909372717
1.7729763984680176	6714104.150377946
1.776710867881775	4342404.570841369
1.7804391384124756	3351650.8001437555
1.7841613292694092	3414901.7403739593
1.7878772020339966	3554796.570768711
1.7915871143341064	4986005.032122178
1.7952908277511597	6379321.052065133
1.7989884614944458	5739767.131939615
1.8026801347732544	4197146.040330241
1.806365728378296	3162813.779828874
1.8100452423095703	2800643.07648069
1.8137187957763672	2370874.9831484538
1.817386507987976	1754059.5669215664
1.8210482597351074	3013197.0991865858
1.8247040510177612	5363553.428682144
1.828354001045227	4865033.64545304
1.8319982290267944	2653770.2956878506
1.8356364965438843	2626388.406194795
1.8392690420150757	4287886.609388152
1.8428958654403687	4982897.920118073
1.8465168476104736	4345277.540588746
1.8501322269439697	3447130.604919283
1.8537418842315674	2887647.049194053
1.8573459386825562	2953329.1126064784
1.860944390296936	2383352.658360303
1.864537239074707	1093136.9856323702
1.8681244850158691	602831.6691946872
1.871706247329712	1162198.3405173342
1.8752825260162354	2196776.729014781
1.8788533210754395	2722166.61542435
1.8824186325073242	3128837.501277077
1.8859784603118896	4962157.193683354
1.8895330429077148	6733204.687175854
1.8930821418762207	5493377.503841655
1.8966259956359863	3626663.350650392
1.9001644849777222	3325845.727945459
1.9036977291107178	2850831.34169648
1.9072256088256836	3497299.384268461
1.9107483625411987	4456323.302777137
1.9142658710479736	3210184.712733347
1.9177782535552979	2521326.167723969
1.9212853908538818	2410531.9197245883
1.9247875213623047	1210676.516494914
1.9282845258712769	710980.151015751
1.9317764043807983	1950321.8824356738
1.9352631568908691	4158548.8617436737
1.9387450218200684	4477436.225332191
1.942221760749817	2601013.3958523823
1.9456936120986938	1358384.2348627667
1.9491604566574097	1197824.6424635912
1.952622413635254	1706774.1439662061
1.956079363822937	3394404.6256525223
1.959531545639038	5207201.149479634
1.962978720664978	4702316.518278892
1.966421127319336	3450670.9993732763
1.9698586463928223	3993914.155294821
1.9732913970947266	4674661.1911250735
1.9767193794250488	4930030.288093213
1.9801424741744995	5431547.226869436
1.9835609197616577	5628662.38156917
1.9869745969772339	6461225.26968375
1.990383505821228	7316268.120408673
1.9937876462936401	7137662.7066769125
1.9971871376037598	6058358.165520025
2.000581979751587	4884262.229133393
2.003972291946411	5917089.762015019
2.007357597351074	7785853.304789101
2.0107386112213135	8545636.426650666
2.0141148567199707	8165150.508591904
2.017486572265625	7023147.826582113
2.0208535194396973	7183900.059330265
2.0242159366607666	8338420.6716279555
2.027573823928833	8542981.212708507
2.0309269428253174	8300329.407983079
2.034275770187378	9311310.400110073
2.0376198291778564	11772990.368305087
2.040959596633911	13875796.311978653
2.044294595718384	14512189.235373765
2.0476250648498535	14334684.167529762
2.0509510040283203	13364362.261848304
2.054272413253784	12241267.537088832
2.057589530944824	12714304.23320126
2.0609018802642822	14327078.835022926
2.0642096996307373	15453897.579522809
2.0675129890441895	15834626.025405785
2.0708119869232178	15774298.02723976
2.074106216430664	15452694.927566867
2.0773961544036865	15521524.687146092
2.080681324005127	15887409.321649974
2.0839622020721436	15831041.929626947
2.087238311767578	15419503.120746862
2.090510129928589	15136913.475074342
2.0937774181365967	15170887.016954832
2.0970399379730225	15059181.0598709
2.1002981662750244	14398593.311933842
2.1035518646240234	13895780.285170011
2.1068007946014404	13988353.643417599
2.1100454330444336	14088997.751928248
2.1132853031158447	13788583.159309903
2.116520881652832	13034783.700394884
2.1197516918182373	12275045.246647159
2.1229779720306396	11898893.697297465
2.12619948387146	11643657.082456198
2.1294167041778564	11554517.200532256
2.132629156112671	11689625.621399803
2.1358368396759033	11290770.31811179
2.139039993286133	10556335.209680347
2.1422386169433594	9993110.299465314
2.145432472229004	9457662.965121277
2.1486217975616455	9044558.805407312
2.151806354522705	8524918.887228336
2.1549863815307617	8432310.369552756
2.1581614017486572	8948377.162858648
2.16133189201355	9213481.138035668
2.1644976139068604	9027371.851017108
2.167658567428589	8325920.673478164
2.1708147525787354	7678398.095607122
2.173966407775879	7843212.2955765985
2.1771130561828613	8356589.910419733
2.1802549362182617	8274696.711719283
2.183391809463501	7518031.502801997
2.1865241527557373	6794738.920501931
2.1896514892578125	6307363.012743888
2.1927738189697266	5493761.53676453
2.1958916187286377	3994393.5747922147
2.1990041732788086	2421426.3241115743
2.2021119594573975	1644831.771361593
2.2052149772644043	1654913.4992592204
2.208312749862671	1997095.8288522882
2.2114057540893555	2560318.3287458
2.214493751525879	3001268.6918090573
2.217576742172241	2746334.02155258
2.2206547260284424	2201747.636029306
2.2237277030944824	1869953.6423838104
2.2267956733703613	1553703.0817996298
2.2298583984375	1287824.5919741446
2.2329163551330566	1208612.649499352
2.235969066619873	1284871.477508938
2.2390167713165283	1298581.7687022816
2.2420592308044434	1136727.1730632568
2.2450966835021973	975245.4024067349
2.248128890991211	932779.6128483751
2.2511560916900635	998266.8760834571
2.254178285598755	1233219.3707919384
2.257194995880127	1663665.1131449954
2.260206699371338	1661112.5968142692
2.2632133960723877	1030169.2780244349
2.266214609146118	755791.4073462287
2.2692108154296875	1218418.511705754
2.2722020149230957	1688119.3366752367
2.2751877307891846	1616749.4786661111
2.278168201446533	1355004.501359386
2.2811436653137207	1309278.894147292
2.284113883972168	1261144.6301904016
2.287078857421875	1018090.5924643358
2.290038824081421	820635.3996590651
2.2929933071136475	819019.6398771673
2.295942783355713	861038.4396876178
2.298887014389038	925338.778320121
2.301826238632202	1124598.1593304982
2.304760217666626	1529031.285842346
2.3076889514923096	2101596.834282092
2.310612440109253	2698666.059450342
2.3135311603546143	3162191.659637822
2.3164443969726562	2865027.678586195
2.319352865219116	1662324.6438852367
2.322256088256836	784146.4914410508
2.3251543045043945	638349.194422841
2.328047275543213	622461.9946180533
2.330935478210449	583619.3879251858
2.3338186740875244	519027.0410751266
2.3366971015930176	435299.3435839901
2.3395702838897705	380829.5288104086
2.3424389362335205	359299.0639005581
2.3453025817871094	341706.5986042814
2.348161458969116	334302.87933535175
2.351015567779541	476991.92922540643
2.353865146636963	916281.9146317492
2.3567099571228027	1492852.1841205098
2.3595502376556396	1883522.7291669666
2.3623859882354736	1853234.3245472703
2.3652172088623047	1340119.269163686
2.368043899536133	704772.4969198463
2.370866537094116	368344.91625655035
2.3736846446990967	337396.77192450943
2.3764986991882324	384401.6200568269
2.3793084621429443	418372.4953047281
2.3821144104003906	526472.0071383076
2.384916305541992	725879.2285086855
2.387714147567749	848238.2723372849
2.3905084133148193	785890.2789625238
2.393299102783203	678831.9510617087
2.3960859775543213	606067.5591363795
2.398869514465332	614927.4048821346
2.4016497135162354	818204.7217830956
2.4044265747070312	1203094.6768086597
2.407200336456299	1499927.540316766
2.409970998764038	1494685.991009432
2.4127390384674072	1377173.6263000155
2.415503978729248	1386945.2443242513
2.418266534805298	1524528.5628549212
2.4210267066955566	1613424.9498400888
2.4237842559814453	1520041.1489953648
2.426539897918701	1485565.8779528397
2.429293394088745	1796826.8248556308
2.4320452213287354	2121457.832161055
2.4347951412200928	2045459.3469988746
2.4375438690185547	1847485.809660905
2.440291166305542	1857752.1885107453
2.443037271499634	1888653.8303719936
2.445782423019409	1844364.8015200822
2.4485268592834473	1900942.8389066684
2.451270818710327	2056252.894283107
2.454014539718628	2198320.2325322344
2.4567582607269287	2259177.940695615
2.4595019817352295	2299661.5849088156
2.4622461795806885	2613592.3080675113
2.4649908542633057	3027174.124969863
2.4677364826202393	2928499.9439925654
2.4704833030700684	2265334.9723795434
2.473231554031372	1509917.6668899157
2.4759814739227295	1023307.3733382692
2.4787333011627197	807904.2875424394
2.481487512588501	736164.9036063843
