#wavelength	surface flux
0.6450077295303345	17475.117842235228
0.6472567915916443	27613.369200385892
0.6494921445846558	36274.262884306016
0.6517150402069092	42015.842128566655
0.6539263725280762	48043.76997613887
0.6561272740364075	54577.56842555048
0.6583186388015747	61623.018457373335
0.6605015397071838	69165.33455133114
0.6626768708229065	77173.55311484358
0.6648455858230591	85353.39599991636
0.6670085787773132	90519.36741882542
0.6691668033599854	86810.66644213315
0.6713210344314575	87283.13164935718
0.6734722256660461	107954.23258323847
0.6756211519241333	132375.09916761893
0.6777685880661011	147882.7384756058
0.6799154281616211	160566.36095652706
0.6820623278617859	172972.82689767348
0.6842101216316223	185324.75355112503
0.6863595843315125	197571.38366845617
0.688511312007904	209485.05912979765
0.6906660795211792	220433.45968803836
0.6928245425224304	230519.1089295149
0.6949873566627502	241311.60753101832
0.6971551775932312	252348.51034810845
0.6993286609649658	261910.87062862655
0.7015084028244019	270200.687519467
0.7036949396133423	277174.19001514174
0.7058889269828796	282270.43537139863
0.7080909013748169	285494.33550633956
0.710301399230957	287045.2690197383
0.712520956993103	286539.75136941654
0.7147500514984131	283049.0474013969
0.7169892191886902	276518.79278610286
0.7192389369010925	267855.9678584892
0.7214996814727783	257055.30727495204
0.723771870136261	243430.35121660773
0.7260559797286987	227612.9277211068
0.7283523678779602	210371.21293254377
0.7306615710258484	193544.23660528273
0.7329838871955872	177981.4383492574
0.7353196740150452	160169.69557693697
0.7376693487167358	139686.862145412
0.7400332689285278	119167.1561847978
0.7424117922782898	99428.52952200169
0.7448052167892456	81070.28092368941
0.7472138404846191	64334.89805899862
0.7496379613876343	49364.30907494529
0.7520779371261597	36546.13002104717
0.7545340061187744	26007.81275010419
0.7570064663887024	17658.77032722112
0.7594954967498779	11272.818060398491
0.7620013952255249	6480.711647691578
0.7645244002342224	3064.574578118482
0.7670646905899048	1258.9723962413966
0.7696225643157959	1335.2308942923835
0.7721980810165405	3725.2701729133437
0.7747915983200073	8630.468663796937
0.7774031162261963	15184.405661539819
0.7800329327583313	24401.781997663104
0.7826811671257019	40396.81041857186
0.7853479981422424	63678.53299444488
0.7880334854125977	91546.58090993654
0.7907378077507019	112428.46151025893
0.7934610247612	118555.2054282291
0.7962033748626709	162230.6143461948
0.7989648580551147	263432.0438320861
0.801745593547821	366393.93089592323
0.8045456409454346	459634.70028754463
0.8073651194572449	558182.7781591268
0.8102040886878967	662868.1285997217
0.8130625486373901	783589.8644845792
0.8159406185150146	926921.6247618211
0.8188382983207703	1088870.6877629873
0.8217556476593018	1271498.79792033
0.8246926665306091	1467561.5464826983
0.8276493549346924	1666535.73602141
0.8306257724761963	1886076.7347097523
0.8336219191551208	2140707.3957520477
0.8366377949714661	2407667.4663600833
0.8396733403205872	2683642.4288219963
0.8427285552024841	2990303.5924427332
0.8458034992218018	3285379.242287257
0.8488980531692505	3358205.703000518
0.8520121574401855	3359619.9996762467
0.8551458716392517	3938822.4559804252
0.8582990765571594	4823406.8092767
0.8614717125892639	5392607.323327537
0.8646637797355652	5853295.743735243
0.8678751587867737	6420320.094885677
0.8711057901382446	7032650.923539988
0.8743556141853333	7649872.1031102715
0.87762451171875	8280890.554790847
0.8809124231338501	8891937.820744952
0.8842192888259888	9481022.049541973
0.8875449895858765	9917948.245249102
0.8908893465995789	9614887.904945502
0.894252359867096	9072731.650999745
0.8976338505744934	10341612.343769463
0.9010337591171265	12971970.431189202
0.9044519662857056	15002337.594058568
0.9078882932662964	16339392.347080693
0.9113426208496094	17334775.852665547
0.914814829826355	18064059.338288117
0.9183048605918884	18823501.672713365
0.9218124747276306	18939133.018287726
0.925337553024292	16585476.177885102
0.9288799166679382	13471659.418842072
0.9324395060539246	12892918.58657614
0.9360161423683167	14391973.2003631
0.9396095871925354	15954646.116924409
0.943219780921936	16032443.652880315
0.9468464851379395	14560271.919957215
0.9504896402359009	15243568.396939643
0.9541489481925964	19192363.49375907
0.9578243494033813	20940055.243287317
0.9615156054496765	18409372.197944403
0.9652225375175476	16067338.705436243
0.9689450263977051	18939990.03406952
0.9726828336715698	25158984.142659824
0.9764357805252075	28564900.44081888
0.9802037477493286	30134410.85330071
0.983986496925354	33528053.885071747
0.9877838492393494	37119653.367337145
0.9915955662727356	39112254.78865384
0.9954215884208679	39527177.00306376
0.9992615580558777	38281018.11643024
1.0031154155731201	37612762.3438167
1.0069829225540161	39870430.37890892
1.0108637809753418	44169695.08023454
1.0147579908370972	48606763.33542608
1.018665075302124	51847251.632871404
1.022585153579712	53620441.14370143
1.0265177488327026	55383680.661890045
1.0304628610610962	58456119.67639077
1.0344202518463135	62022788.03390264
1.0383895635604858	65012144.59233379
1.0423706769943237	67474101.47989462
1.0463634729385376	69465053.721635
1.0503677129745483	71366221.5373896
1.0543830394744873	74143115.87859571
1.058409333229065	77395412.75757125
1.0624464750289917	79974320.58167273
1.0664942264556885	81293775.40622096
1.0705522298812866	81927394.18764095
1.0746204853057861	83044662.54458593
1.0786986351013184	84130751.19572279
1.0827864408493042	84602259.40668526
1.086883783340454	81286702.6434174
1.0909905433654785	71242426.91614574
1.0951062440872192	59431891.00857838
1.0992310047149658	45040267.724485435
1.10336434841156	27811159.832076304
1.1075061559677124	18669267.86997208
1.1116561889648438	15625217.950276056
1.115814208984375	12826269.156236809
1.1199802160263062	12994329.476300206
1.124153733253479	14449717.779057095
1.1283347606658936	13189118.812585762
1.1325229406356812	10573904.262929874
1.1367181539535522	13891465.553094964
1.1409201622009277	21771628.193809073
1.145128846168518	25612306.928022347
1.1493438482284546	22428540.487971425
1.1535650491714478	16029995.99337497
1.1577922105789185	13174316.684998116
1.1620250940322876	14213657.286600761
1.1662636995315552	17687913.01423096
1.170507550239563	22079693.009751704
1.174756646156311	27098353.17373236
1.1790107488632202	34814517.356521115
1.1832695007324219	41072258.64481046
1.1875330209732056	42660700.88237119
1.191800832748413	49690174.52213792
1.1960728168487549	63111434.01737895
1.2003488540649414	71527004.61567184
1.2046287059783936	75672043.77358091
1.2089121341705322	78195584.47832493
1.2131990194320679	81206486.92022534
1.2174891233444214	87574114.52922171
1.2217823266983032	93510381.38243745
1.2260783910751343	97453457.14162017
1.230377197265625	101169855.53141184
1.2346785068511963	103530615.19825236
1.238982081413269	102785963.50875436
1.2432878017425537	101125447.40376675
1.2475954294204712	100716937.82657078
1.2519049644470215	100874473.05992974
1.256216049194336	107649139.44941476
1.2605286836624146	116460672.2877667
1.2648425102233887	118546942.67600517
1.2691574096679688	120917540.67420848
1.2734732627868652	125613898.42268832
1.2777899503707886	125431933.03448856
1.2821072340011597	120220798.53390971
1.2864248752593994	117199475.0007123
1.2907428741455078	115859161.55866407
1.2950609922409058	112444258.93743776
1.2993791103363037	102614771.64944467
1.303696870803833	94463972.40310663
1.3080145120620728	94064661.21387236
1.3123314380645752	94442160.09495036
1.3166478872299194	94325586.59138823
1.3209635019302368	85474438.56506488
1.3252781629562378	67806827.6533165
1.3295916318893433	46183464.00755319
1.3339040279388428	21656992.272045806
1.3382149934768677	6280654.072824276
1.3425244092941284	2424682.7816226105
1.3468321561813354	1837747.6153061155
1.3511382341384888	1552613.2796166446
1.3554422855377197	1166631.9837482828
1.3597444295883179	1370476.6510219881
1.3640443086624146	2036365.435704889
1.3683418035507202	2019157.7189732303
1.3726370334625244	1771966.3175324681
1.3769296407699585	2119769.943169385
1.381219506263733	1859632.0589448253
1.3855066299438477	1035763.536016554
1.3897908926010132	986195.5013085885
1.3940720558166504	1406179.7879418584
1.3983501195907593	1367437.461619844
1.4026249647140503	1448107.9643511784
1.4068963527679443	1773298.2781357241
1.4111642837524414	1629684.0136803284
1.4154287576675415	1467192.1653669265
1.419689416885376	1416474.6365195876
1.4239463806152344	1337878.8548020113
1.4281994104385376	1167998.5790972202
1.4324485063552856	1058582.9755028535
1.436693549156189	1601141.8618305705
1.440934419631958	2783610.1327466364
1.4451709985733032	4752645.155051598
1.449403166770935	7085757.838110661
1.453631043434143	7605254.07732133
1.4578542709350586	7432217.692716692
1.4620729684829712	9085074.244111547
1.4662868976593018	10322328.523316897
1.4704961776733398	7666576.645668151
1.4747005701065063	4519046.136575902
1.4788999557495117	5862803.333099026
1.4830944538116455	10035644.400646536
1.4872838258743286	11539618.850281902
1.491468071937561	9705733.415288048
1.4956470727920532	10194736.929981312
1.4998208284378052	14411635.847169435
1.5039892196655273	16508532.601019902
1.5081522464752197	14496719.165974315
1.5123097896575928	14975424.933602033
1.5164618492126465	21217979.13875506
1.5206083059310913	28494739.077398002
1.5247491598129272	31537473.65747689
1.5288842916488647	32113446.87047424
1.5330137014389038	34454996.952653214
1.5371372699737549	36631438.50937539
1.541254997253418	36723401.71440735
1.545366883277893	38406304.93666009
1.5494728088378906	41199968.08382297
1.5535727739334106	42987004.30438071
1.5576666593551636	45327232.52059243
1.561754584312439	48700178.781895705
1.5658363103866577	51917557.434731424
1.5699119567871094	53309655.8037916
1.5739814043045044	52893073.53145
1.5780447721481323	53214046.302295
1.582101821899414	55339750.18336642
1.5861525535583496	57133995.55140329
1.5901970863342285	56348609.47538038
1.5942351818084717	53735387.27431276
1.5982669591903687	52294679.06795162
1.6022924184799194	50989170.00826084
1.606311559677124	48455058.80346757
1.6103241443634033	47187581.61304079
1.6143304109573364	45186499.97652648
1.6183301210403442	40960807.96141439
1.6223233938217163	37690209.358139105
1.6263102293014526	35764809.3263727
1.6302905082702637	35728539.81254145
1.634264349937439	38546364.55773138
1.638231635093689	41925284.04810059
1.6421923637390137	42139304.99513558
1.646146535873413	37070985.47868445
1.6500942707061768	32780772.30419554
1.6540353298187256	33892092.5212738
1.6579699516296387	35039987.750861
1.661897897720337	32245651.39046674
1.6658192873001099	23853048.69120566
1.6697341203689575	17784136.14040556
1.6736423969268799	20879606.068049766
1.677544116973877	24195547.676005825
1.6814392805099487	23888111.174172163
1.6853278875350952	22053432.83224806
1.6892099380493164	19439145.492517065
1.6930854320526123	17244785.256214958
1.696954369544983	15483697.204680052
1.7008168697357178	14582848.007535478
1.7046726942062378	14596516.131997773
1.708522081375122	15861560.211807529
1.712364912033081	16838948.97457427
1.7162011861801147	16709567.254615076
1.7200311422348022	17418124.28088119
1.723854422569275	17548820.605315737
1.7276713848114014	15838024.0816307
1.731481909751892	14141625.551932061
1.7352858781814575	13616670.962960469
1.7390835285186768	13936948.534487665
1.7428747415542603	13728981.21252269
1.7466596364974976	11576875.026912335
1.7504380941390991	9185377.041760508
1.7542102336883545	9240449.748833196
1.7579760551452637	11069920.988648213
1.7617355585098267	12458719.96309706
1.7654887437820435	11832324.739695251
1.7692357301712036	9101623.29793992
1.7729763984680176	6218978.641990262
1.776710867881775	4254665.504329225
1.7804391384124756	3593225.007630916
1.7841613292694092	3681842.581378954
1.7878772020339966	3670565.7711010845
1.7915871143341064	4705042.241672476
1.7952908277511597	5709752.912105908
1.7989884614944458	5070132.824353589
1.8026801347732544	3596699.702608818
1.806365728378296	2634852.5193873956
1.8100452423095703	2342055.753891889
1.8137187957763672	1952102.719479889
1.817386507987976	1458042.0499057714
1.8210482597351074	2203759.492231796
1.8247040510177612	3676469.7434269977
1.828354001045227	3515923.815633663
1.8319982290267944	2274914.525467399
1.8356364965438843	2272799.0956987343
1.8392690420150757	3503946.376504834
1.8428958654403687	4329920.503988425
1.8465168476104736	4100370.393157345
1.8501322269439697	3362037.128993004
1.8537418842315674	2750440.110707327
1.8573459386825562	2669878.380985007
1.860944390296936	2170772.1088794125
1.864537239074707	1118026.8118494297
1.8681244850158691	695966.6856710563
1.871706247329712	1176111.7418832297
1.8752825260162354	2170842.5890101115
1.8788533210754395	2850965.4560168823
1.8824186325073242	3240669.2158138175
1.8859784603118896	4325590.57746045
1.8895330429077148	5434468.165074929
1.8930821418762207	4721594.906453666
1.8966259956359863	3355886.815819614
1.9001644849777222	2753365.573404147
1.9036977291107178	2270379.8241444123
1.9072256088256836	2946164.841623815
1.9107483625411987	3708068.934959402
1.9142658710479736	2653452.5328547508
1.9177782535552979	2086390.7958045143
1.9212853908538818	1971783.0577783084
1.9247875213623047	1043061.0842976422
1.9282845258712769	741687.9717989129
1.9317764043807983	1667779.3579798213
1.9352631568908691	3123925.1181146163
1.9387450218200684	3367317.1967864945
1.942221760749817	2261898.686183744
1.9456936120986938	1483926.289387872
1.9491604566574097	1328011.9802727404
1.952622413635254	1595293.554449301
1.956079363822937	2617751.302046069
1.959531545639038	3851370.2012663344
1.962978720664978	3703918.773076298
1.966421127319336	3134892.1493593496
1.9698586463928223	3763577.516946101
1.9732913970947266	4362712.533613131
1.9767193794250488	4586959.661248008
1.9801424741744995	5009307.141695148
1.9835609197616577	5214444.785510727
1.9869745969772339	5667862.492537344
1.990383505821228	6050221.025283244
1.9937876462936401	5924247.879569734
1.9971871376037598	5186252.903519363
2.000581979751587	4410886.128448612
2.003972291946411	5417860.872903759
2.007357597351074	7017999.079440401
2.0107386112213135	7669137.565728242
2.0141148567199707	7417371.983597821
2.017486572265625	6597798.986906903
2.0208535194396973	6573239.236136934
2.0242159366607666	7201712.182705141
2.027573823928833	7319752.786956365
2.0309269428253174	7149836.975523252
2.034275770187378	7809421.0803866
2.0376198291778564	9363768.058170581
2.040959596633911	10516775.764395088
2.044294595718384	10848219.613427328
2.0476250648498535	10792831.053999243
2.0509510040283203	10303303.018229164
2.054272413253784	9794729.58339863
2.057589530944824	10061190.029054387
2.0609018802642822	10757645.758734776
2.0642096996307373	11183231.121840699
2.0675129890441895	11280438.927705642
2.0708119869232178	11188138.953271994
2.074106216430664	11009488.874952354
2.0773961544036865	10994915.25848994
2.080681324005127	11096072.19783973
2.0839622020721436	11042224.561947364
2.087238311767578	10861888.60543018
2.090510129928589	10736943.511266727
2.0937774181365967	10715321.822709013
2.0970399379730225	10608286.506132962
2.1002981662750244	10284027.78727288
2.1035518646240234	10041619.600610089
2.1068007946014404	10049407.505794203
2.1100454330444336	10065455.91430334
2.1132853031158447	9907163.018249005
2.116520881652832	9534166.624506453
2.1197516918182373	9149444.197349949
2.1229779720306396	8934964.861337872
2.12619948387146	8780421.551590791
2.1294167041778564	8717461.119824737
2.132629156112671	8759369.988004899
2.1358368396759033	8525678.649828035
2.139039993286133	8127922.338225936
2.1422386169433594	7814392.722826232
2.145432472229004	7522784.825928463
2.1486217975616455	7292403.921989735
2.151806354522705	6975242.08001959
2.1549863815307617	6896675.19420462
2.1581614017486572	7172274.032704517
2.16133189201355	7308063.100794749
2.1644976139068604	7186872.258978897
2.167658567428589	6782992.510640642
2.1708147525787354	6430950.837529011
2.173966407775879	6561085.648994658
2.1771130561828613	6876488.93019377
2.1802549362182617	6806265.398506714
2.183391809463501	6314737.632691987
2.1865241527557373	5836747.1543456325
2.1896514892578125	5505647.41230063
2.1927738189697266	4924079.044739747
2.1958916187286377	3784661.402632114
2.1990041732788086	2521503.012497951
2.2021119594573975	1865713.4219904838
2.2052149772644043	1880516.7100695758
2.208312749862671	2205413.468309941
2.2114057540893555	2720848.650478076
2.214493751525879	3102336.943538722
2.217576742172241	2859663.167114185
2.2206547260284424	2358057.8062730124
2.2237277030944824	2032750.701551695
2.2267956733703613	1726036.3350092794
2.2298583984375	1480400.1567545957
2.2329163551330566	1409199.8705748369
2.235969066619873	1486154.58897953
2.2390167713165283	1498889.099003176
2.2420592308044434	1330874.328657303
2.2450966835021973	1157360.4398494398
2.248128890991211	1106190.889502241
2.2511560916900635	1175830.8219829889
2.254178285598755	1410445.56574411
2.257194995880127	1808496.7762502965
2.260206699371338	1764884.883536028
2.2632133960723877	1128513.7403322062
2.266214609146118	873085.9186841883
2.2692108154296875	1355575.665096906
2.2722020149230957	1843324.9966717823
2.2751877307891846	1789092.8257845228
2.278168201446533	1538979.268879251
2.2811436653137207	1496974.0336344407
2.284113883972168	1444835.9948187661
2.287078857421875	1185881.1307454084
2.290038824081421	975332.2586599055
2.2929933071136475	975240.7919553038
2.295942783355713	1020444.49511206
2.298887014389038	1085169.89719419
2.301826238632202	1280220.0462029746
2.304760217666626	1671724.9033986737
2.3076889514923096	2223680.257471793
2.310612440109253	2762898.8802247136
2.3135311603546143	3113841.9371861764
2.3164443969726562	2755674.6196291535
2.319352865219116	1634643.091689888
2.322256088256836	864219.5348732681
2.3251543045043945	753554.2133863146
2.328047275543213	739010.3114863463
2.330935478210449	696330.8460445557
2.3338186740875244	621376.5508496593
2.3366971015930176	524026.3035184671
2.3395702838897705	461311.3694338546
2.3424389362335205	436164.5716011474
2.3453025817871094	414806.9040164868
2.348161458969116	405178.3801784103
2.351015567779541	564383.4354869836
2.353865146636963	1042542.7719379574
2.3567099571228027	1649714.8998034345
2.3595502376556396	2043097.1146371197
2.3623859882354736	2005437.9346741075
2.3652172088623047	1481902.8024640493
2.368043899536133	814290.6744894205
2.370866537094116	444047.2345875487
2.3736846446990967	411218.9885335801
2.3764986991882324	468157.52531193435
2.3793084621429443	506006.9456199396
2.3821144104003906	625444.5087142074
2.384916305541992	848567.5255622417
2.387714147567749	990029.5000095012
2.3905084133148193	928134.883329464
2.393299102783203	811276.3428057559
2.3960859775543213	727193.4255618306
2.398869514465332	736033.8885325916
2.4016497135162354	959936.8192326841
2.4044265747070312	1373451.3075451285
2.407200336456299	1690701.2427380001
2.409970998764038	1692699.8563118936
2.4127390384674072	1575811.7518019653
2.415503978729248	1586215.592837361
2.418266534805298	1725261.103793982
2.4210267066955566	1814248.4472450837
2.4237842559814453	1718760.0087509148
2.426539897918701	1682215.8819026293
2.429293394088745	1989247.620144932
2.4320452213287354	2312869.8599806004
2.4347951412200928	2246744.0204164456
2.4375438690185547	2059329.3611137655
2.440291166305542	2075151.7552622883
2.443037271499634	2107854.018097736
2.445782423019409	2064335.5622488793
2.4485268592834473	2123067.8421434863
2.451270818710327	2275634.7360082213
2.454014539718628	2411759.204122337
2.4567582607269287	2469265.5289659784
2.4595019817352295	2497246.0943982243
2.4622461795806885	2779610.8923997586
2.4649908542633057	3162564.8198501947
2.4677364826202393	3065676.1063565747
2.4704833030700684	2420409.8285532356
2.473231554031372	1656007.2467991922
2.4759814739227295	1142222.0490773853
2.4787333011627197	910697.6540661076
2.481487512588501	841289.5283881264
