#wavelength	surface flux
0.6450077295303345	1718.2106367959052
0.6472567915916443	2671.5603028664073
0.6494921445846558	3425.7113571438535
0.6517150402069092	3869.919862021838
0.6539263725280762	4312.419468906458
0.6561272740364075	4771.347312821398
0.6583186388015747	5256.811217070738
0.6605015397071838	5778.097937044634
0.6626768708229065	6339.832996277592
0.6648455858230591	6941.82981234785
0.6670085787773132	7494.036115216738
0.6691668033599854	7791.847942770791
0.6713210344314575	8235.993610033576
0.6734722256660461	9296.389409263365
0.6756211519241333	10436.799401606393
0.6777685880661011	11323.356302391594
0.6799154281616211	12168.105532636091
0.6820623278617859	13026.278230252581
0.6842101216316223	13899.507739877392
0.6863595843315125	14781.752480084113
0.688511312007904	15635.579896899993
0.6906660795211792	16339.339352145786
0.6928245425224304	16912.96542095308
0.6949873566627502	17727.54234575822
0.6971551775932312	18743.117990790375
0.6993286609649658	19594.64919978656
0.7015084028244019	20350.57106504943
0.7036949396133423	21048.150157751166
0.7058889269828796	21587.466345448767
0.7080909013748169	21994.471815006877
0.710301399230957	22342.57834013176
0.712520956993103	22571.174603520623
0.7147500514984131	22484.23294026646
0.7169892191886902	22066.658503943774
0.7192389369010925	21505.479901360053
0.7214996814727783	20773.263399978398
0.723771870136261	19698.293038199598
0.7260559797286987	18463.410497356166
0.7283523678779602	17250.002346900576
0.7306615710258484	16529.56704269228
0.7329838871955872	16444.815323121555
0.7353196740150452	15885.752494604138
0.7376693487167358	14613.068643504379
0.7400332689285278	13218.955412037627
0.7424117922782898	11838.564203410033
0.7448052167892456	10553.606393670438
0.7472138404846191	9290.208114377221
0.7496379613876343	7977.247039650426
0.7520779371261597	6676.6735631976035
0.7545340061187744	5418.826122747189
0.7570064663887024	4223.806838937258
0.7594954967498779	3095.939508105771
0.7620013952255249	2017.779139903916
0.7645244002342224	1059.6416099451917
0.7670646905899048	478.8093323661083
0.7696225643157959	507.28419298718336
0.7721980810165405	1286.134050131504
0.7747915983200073	2716.966706437169
0.7774031162261963	4372.7405761767495
0.7800329327583313	6245.9548446837125
0.7826811671257019	8898.79086671824
0.7853479981422424	12296.72953646411
0.7880334854125977	15984.835656737669
0.7907378077507019	18646.959960065804
0.7934610247612	19347.390924921052
0.7962033748626709	23939.936614293034
0.7989648580551147	34500.21918873616
0.801745593547821	44644.88543534394
0.8045456409454346	53288.13362679939
0.8073651194572449	61848.55438515998
0.8102040886878967	69847.56301410613
0.8130625486373901	79550.51414795434
0.8159406185150146	93341.40940715413
0.8188382983207703	110356.68611070311
0.8217556476593018	129354.36400568862
0.8246926665306091	148541.72748179795
0.8276493549346924	166690.67942088677
0.8306257724761963	187660.12822892924
0.8336219191551208	214829.6613370621
0.8366377949714661	243217.91634633404
0.8396733403205872	271901.0804964778
0.8427285552024841	306147.45346339646
0.8458034992218018	343690.5979151468
0.8488980531692505	364139.6691278562
0.8520121574401855	378143.3110409657
0.8551458716392517	444678.8083294524
0.8582990765571594	542273.6615139726
0.8614717125892639	617651.7922801607
0.8646637797355652	686636.4120673208
0.8678751587867737	767048.2649719028
0.8711057901382446	857274.6236277285
0.8743556141853333	949083.7535960289
0.87762451171875	1033103.8031655748
0.8809124231338501	1095951.1764015162
0.8842192888259888	1142783.4325429979
0.8875449895858765	1180441.3646533529
0.8908893465995789	1139127.6221374753
0.894252359867096	1054275.0251936712
0.8976338505744934	1223862.0736784576
0.9010337591171265	1666845.4730644212
0.9044519662857056	2074521.0917214453
0.9078882932662964	2329443.8224200536
0.9113426208496094	2458131.52882625
0.914814829826355	2490971.33524196
0.9183048605918884	2563560.0146317277
0.9218124747276306	2551477.8794730906
0.925337553024292	1980473.2946574993
0.9288799166679382	1243908.9193399372
0.9324395060539246	1035276.1388002969
0.9360161423683167	1183275.1944794753
0.9396095871925354	1334242.5859635007
0.943219780921936	1274574.1078741266
0.9468464851379395	1003254.7032133291
0.9504896402359009	1130922.9079821168
0.9541489481925964	1815146.862480344
0.9578243494033813	2037631.8362876603
0.9615156054496765	1516231.1349566511
0.9652225375175476	1167508.3261306456
0.9689450263977051	1802608.800207885
0.9726828336715698	3030054.526858925
0.9764357805252075	3680375.1218416877
0.9802037477493286	4042640.8516478348
0.983986496925354	4915913.766745681
0.9877838492393494	5874050.4611015925
0.9915955662727356	6622123.11732947
0.9954215884208679	7268183.948580002
0.9992615580558777	7589363.856826235
1.0031154155731201	7782636.44975913
1.0069829225540161	8512356.867166061
1.0108637809753418	9753728.679886736
1.0147579908370972	11008869.800898334
1.018665075302124	11891180.75738048
1.022585153579712	12295169.526080228
1.0265177488327026	12672254.174872426
1.0304628610610962	13411182.639689215
1.0344202518463135	14290421.018899878
1.0383895635604858	15001823.754602436
1.0423706769943237	15491378.559320584
1.0463634729385376	15694892.911551371
1.0503677129745483	15871465.323894601
1.0543830394744873	16458102.375742508
1.058409333229065	17167233.257457588
1.0624464750289917	17567415.006302394
1.0664942264556885	17468706.713691972
1.0705522298812866	17086337.34807177
1.0746204853057861	16942037.509155985
1.0786986351013184	16840907.9840961
1.0827864408493042	16708365.038057413
1.086883783340454	15695308.169541676
1.0909905433654785	12807186.418173708
1.0951062440872192	9576746.078046702
1.0992310047149658	6388550.973491692
1.10336434841156	3101889.794377135
1.1075061559677124	1534572.2468828287
1.1116561889648438	1166468.956738399
1.115814208984375	736662.9697712332
1.1199802160263062	591865.1236558823
1.124153733253479	633891.5636542139
1.1283347606658936	545968.3597792495
1.1325229406356812	469042.80854401365
1.1367181539535522	898563.2167269321
1.1409201622009277	1665885.8317826306
1.145128846168518	1963097.7720876196
1.1493438482284546	1514745.3219550783
1.1535650491714478	785019.6730429619
1.1577922105789185	457144.6365407497
1.1620250940322876	595857.4370490722
1.1662636995315552	1077337.5849679355
1.170507550239563	1869626.3755759008
1.174756646156311	3137871.6562553584
1.1790107488632202	4897979.7818073835
1.1832695007324219	5993278.939291024
1.1875330209732056	6167318.925236928
1.191800832748413	8089107.84074538
1.1960728168487549	11728151.4435201
1.2003488540649414	14185304.512525808
1.2046287059783936	15515699.56634225
1.2089121341705322	16299196.065986939
1.2131990194320679	17134865.344277497
1.2174891233444214	18980933.416318946
1.2217823266983032	20893253.911100496
1.2260783910751343	22410751.291557495
1.230377197265625	23946700.693295307
1.2346785068511963	25201928.320596762
1.238982081413269	26146356.50920549
1.2432878017425537	27199115.720631123
1.2475954294204712	28221747.559582483
1.2519049644470215	28965780.721697636
1.256216049194336	30570298.20711951
1.2605286836624146	31702520.403156318
1.2648425102233887	31056334.4633729
1.2691574096679688	31214009.98416311
1.2734732627868652	32633025.520677544
1.2777899503707886	32053923.07518806
1.2821072340011597	29269165.551825132
1.2864248752593994	27724696.564497467
1.2907428741455078	27017274.194631044
1.2950609922409058	25562878.111421026
1.2993791103363037	21425910.55952469
1.303696870803833	17507017.060463578
1.3080145120620728	16593783.59284359
1.3123314380645752	16827871.272455577
1.3166478872299194	18306332.25752245
1.3209635019302368	16582132.685421418
1.3252781629562378	11562427.57277978
1.3295916318893433	6957209.401770506
1.3339040279388428	2866055.0237896377
1.3382149934768677	634735.7600086487
1.3425244092941284	172539.12851184007
1.3468321561813354	90256.27438037339
1.3511382341384888	57029.60848126015
1.3554422855377197	33984.741738520126
1.3597444295883179	34956.08131791511
1.3640443086624146	50556.74554899871
1.3683418035507202	48957.4322440063
1.3726370334625244	37690.997003647164
1.3769296407699585	46502.7823813999
1.381219506263733	46427.61290568936
1.3855066299438477	26791.866913658007
1.3897908926010132	33115.75948839036
1.3940720558166504	61588.79638404686
1.3983501195907593	58893.50591324151
1.4026249647140503	54372.32465251719
1.4068963527679443	65242.54708852471
1.4111642837524414	48850.07592817572
1.4154287576675415	31099.936884391893
1.419689416885376	30237.380214425826
1.4239463806152344	31783.99061673721
1.4281994104385376	24779.443413486366
1.4324485063552856	22162.750996488867
1.436693549156189	62115.04823131328
1.440934419631958	185138.20898935385
1.4451709985733032	436253.8128520957
1.449403166770935	747452.5784389051
1.453631043434143	850305.0238622585
1.4578542709350586	888604.3073761226
1.4620729684829712	1201347.0648305945
1.4662868976593018	1434592.8252998802
1.4704961776733398	947503.5677283756
1.4747005701065063	325054.7690007289
1.4788999557495117	453379.00125723355
1.4830944538116455	975158.096106635
1.4872838258743286	1086921.1986959511
1.491468071937561	791367.0164056729
1.4956470727920532	968732.7399882525
1.4998208284378052	1878042.1763691246
1.5039892196655273	2307600.8933667243
1.5081522464752197	1812717.2998283366
1.5123097896575928	1753514.2619901006
1.5164618492126465	2847520.2793789995
1.5206083059310913	4431873.968635247
1.5247491598129272	5496222.961171923
1.5288842916488647	5943160.644787619
1.5330137014389038	6481249.959454096
1.5371372699737549	7094459.546297033
1.541254997253418	7298867.223285658
1.545366883277893	7739975.430952211
1.5494728088378906	8641284.925891131
1.5535727739334106	9554092.186982358
1.5576666593551636	10570650.126871848
1.561754584312439	11905221.111558458
1.5658363103866577	13318124.296423214
1.5699119567871094	13950261.065298168
1.5739814043045044	13570433.020585496
1.5780447721481323	13399239.219964309
1.582101821899414	14087418.42746002
1.5861525535583496	14683550.246126777
1.5901970863342285	14216350.997512799
1.5942351818084717	12812958.044953011
1.5982669591903687	11665229.728169573
1.6022924184799194	10801350.793316646
1.606311559677124	9814140.18930251
1.6103241443634033	9376959.272953823
1.6143304109573364	8440976.150466302
1.6183301210403442	6587090.295587859
1.6223233938217163	5190144.043885576
1.6263102293014526	4417787.461713154
1.6302905082702637	4586454.941701154
1.634264349937439	5852621.10437253
1.638231635093689	7203682.159343857
1.6421923637390137	7265079.158374113
1.646146535873413	5287884.760039287
1.6500942707061768	3633280.0881917304
1.6540353298187256	4062370.0663552494
1.6579699516296387	4703356.6540207965
1.661897897720337	4460493.985515509
1.6658192873001099	3071412.962607344
1.6697341203689575	1728239.7964177236
1.6736423969268799	1756199.6059921915
1.677544116973877	1872175.6495708914
1.6814392805099487	1662243.8297602246
1.6853278875350952	1458870.3469592095
1.6892099380493164	1205827.4511865494
1.6930854320526123	1059142.0816518387
1.696954369544983	833574.9115907871
1.7008168697357178	606067.6581996782
1.7046726942062378	571399.5689743245
1.708522081375122	804731.7937855127
1.712364912033081	1085869.606972399
1.7162011861801147	1274326.456237412
1.7200311422348022	1566876.6592077245
1.723854422569275	1548678.0471875852
1.7276713848114014	1165883.741966503
1.731481909751892	1022135.2961611433
1.7352858781814575	1135849.5383244704
1.7390835285186768	1309637.119580476
1.7428747415542603	1414151.2419661682
1.7466596364974976	1189800.9941926552
1.7504380941390991	834528.8309922809
1.7542102336883545	872824.3957824303
1.7579760551452637	1163340.9421442645
1.7617355585098267	1213356.3637741941
1.7654887437820435	996618.4783866323
1.7692357301712036	708710.0317137155
1.7729763984680176	470819.57040950324
1.776710867881775	310628.29569614393
1.7804391384124756	252637.35695256735
1.7841613292694092	259418.25648816876
1.7878772020339966	270455.5368410044
1.7915871143341064	375618.2340366029
1.7952908277511597	443659.0283927075
1.7989884614944458	347627.49461980775
1.8026801347732544	230505.74462207666
1.806365728378296	204801.40841005143
1.8100452423095703	198066.5448543147
1.8137187957763672	140085.36773562754
1.817386507987976	81653.9670527898
1.8210482597351074	135957.29224973833
1.8247040510177612	260322.07995843483
1.828354001045227	252566.16224017856
1.8319982290267944	135143.7371645518
1.8356364965438843	114182.85185268667
1.8392690420150757	238312.31285431932
1.8428958654403687	373102.0595533993
1.8465168476104736	360503.16259286145
1.8501322269439697	229363.46787033815
1.8537418842315674	165136.32537872522
1.8573459386825562	202105.54708954698
1.860944390296936	166175.04901306418
1.864537239074707	61671.00411656455
1.8681244850158691	17596.092147920062
1.871706247329712	32830.43969951691
1.8752825260162354	89408.50730391279
1.8788533210754395	168999.4673369571
1.8824186325073242	263059.8692971046
1.8859784603118896	407733.0846681151
1.8895330429077148	503260.9939993652
1.8930821418762207	369261.9593131367
1.8966259956359863	188167.42014987918
1.9001644849777222	144038.11675804597
1.9036977291107178	130356.9383700737
1.9072256088256836	195525.8558732977
1.9107483625411987	269444.2781338304
1.9142658710479736	179664.04004559029
1.9177782535552979	105001.81355704542
1.9212853908538818	97809.80423029451
1.9247875213623047	50503.379266368
1.9282845258712769	31482.794948018523
1.9317764043807983	100522.99972968131
1.9352631568908691	222338.3753639006
1.9387450218200684	241613.80487526898
1.942221760749817	148578.27317270703
1.9456936120986938	84568.16127974499
1.9491604566574097	66934.31545375925
1.952622413635254	73863.40187729915
1.956079363822937	133527.92345915217
1.959531545639038	253579.5065829257
1.962978720664978	295089.45337640523
1.966421127319336	257669.9008479659
1.9698586463928223	301205.384250081
1.9732913970947266	375457.9316596352
1.9767193794250488	434731.32298320415
1.9801424741744995	514229.8920656013
1.9835609197616577	565786.2283433349
1.9869745969772339	628452.8182575548
1.990383505821228	677893.844508286
1.9937876462936401	636966.5942968621
1.9971871376037598	483949.9719852214
2.000581979751587	358663.82061699516
2.003972291946411	504338.12794977636
2.007357597351074	780226.2326968446
2.0107386112213135	922172.8624699211
2.0141148567199707	883137.2654964706
2.017486572265625	752880.0841950946
2.0208535194396973	657634.7232761069
2.0242159366607666	626018.5473085691
2.027573823928833	644890.3390381363
2.0309269428253174	667982.2139352871
2.034275770187378	791352.8018591967
2.0376198291778564	1059439.824466617
2.040959596633911	1231120.3864750855
2.044294595718384	1263255.932755709
2.0476250648498535	1233686.553903163
2.0509510040283203	1140270.4674828472
2.054272413253784	1093676.07734675
2.057589530944824	1151877.66949919
2.0609018802642822	1218741.959114236
2.0642096996307373	1247665.3938161505
2.0675129890441895	1248379.7621458897
2.0708119869232178	1225630.0632098198
2.074106216430664	1198155.986468659
2.0773961544036865	1190238.6844501563
2.080681324005127	1189839.9079615276
2.0839622020721436	1172833.1352065576
2.087238311767578	1149602.0352439666
2.090510129928589	1136937.5457803176
2.0937774181365967	1128729.3919243226
2.0970399379730225	1105874.0013696328
2.1002981662750244	1061307.955347237
2.1035518646240234	1030698.4173206919
2.1068007946014404	1030427.3047869436
2.1100454330444336	1027712.7629859444
2.1132853031158447	999140.7723186838
2.116520881652832	936943.2921711262
2.1197516918182373	865167.8491754403
2.1229779720306396	813143.3380697819
2.12619948387146	775551.3674904916
2.1294167041778564	764879.5205446978
2.132629156112671	780581.4757878709
2.1358368396759033	749343.2477489602
2.139039993286133	687254.6193681692
2.1422386169433594	634751.9531152511
2.145432472229004	577211.7475585212
2.1486217975616455	521250.72903943073
2.151806354522705	450623.78581691056
2.1549863815307617	443488.9410243061
2.1581614017486572	513353.46729391254
2.16133189201355	547807.6291347651
2.1644976139068604	525111.4023159145
2.167658567428589	448283.0287663489
2.1708147525787354	403031.8269313978
2.173966407775879	481854.65210071154
2.1771130561828613	598476.2889327235
2.1802549362182617	623414.3177631989
2.183391809463501	553189.1697599104
2.1865241527557373	479024.0278084431
2.1896514892578125	436813.40371923614
2.1927738189697266	366616.9668587917
2.1958916187286377	230829.0995947445
2.1990041732788086	99260.3876712869
2.2021119594573975	42956.675473722295
2.2052149772644043	55102.70783598483
2.208312749862671	103547.69353138957
2.2114057540893555	161037.57229704226
2.214493751525879	187852.60758914723
2.217576742172241	147118.80127471103
2.2206547260284424	80644.77294751036
2.2237277030944824	49068.72669910394
2.2267956733703613	40250.20823132564
2.2298583984375	33913.713959583394
2.2329163551330566	30350.811490271586
2.235969066619873	32162.95369863221
2.2390167713165283	32411.960796530482
2.2420592308044434	26317.151954589433
2.2450966835021973	20458.591931943673
2.248128890991211	18833.91271157242
2.2511560916900635	20972.467636967485
2.254178285598755	32723.25363308613
2.257194995880127	60310.90970692428
2.260206699371338	67594.50662764789
2.2632133960723877	35943.4023328846
2.266214609146118	19959.46069897777
2.2692108154296875	49088.29024074201
2.2722020149230957	81011.17542063187
2.2751877307891846	71372.25225833124
2.278168201446533	43503.867982351934
2.2811436653137207	37965.504825532
2.284113883972168	41504.525208747815
2.287078857421875	30890.038574977938
2.290038824081421	17625.1536594166
2.2929933071136475	14709.609009958172
2.295942783355713	15060.469343849432
2.298887014389038	14880.467377061954
2.301826238632202	19167.88768445845
2.304760217666626	34285.16976366037
2.3076889514923096	62051.50685985916
2.310612440109253	98981.4501278959
2.3135311603546143	141981.68001027728
2.3164443969726562	146814.55939799396
2.319352865219116	83445.57150212135
2.322256088256836	26609.949367552712
2.3251543045043945	15432.15953242348
2.328047275543213	13583.83380560248
2.330935478210449	10350.652110891913
2.3338186740875244	8060.314821883635
2.3366971015930176	6068.934402414914
2.3395702838897705	4630.581706437022
2.3424389362335205	3882.6747054979805
2.3453025817871094	3315.3221860146323
2.348161458969116	3360.6925532171763
2.351015567779541	8230.708581214523
2.353865146636963	24155.557986763513
2.3567099571228027	48542.70851258428
2.3595502376556396	71081.77196275369
2.3623859882354736	74634.57797130542
2.3652172088623047	48350.36099524987
2.368043899536133	17238.512958280593
2.370866537094116	4557.911247533689
2.3736846446990967	3241.4762215736855
2.3764986991882324	3932.9130769002068
2.3793084621429443	5426.868988253968
2.3821144104003906	10653.605894258671
2.384916305541992	18998.525226191876
2.387714147567749	22030.855983976864
2.3905084133148193	16617.13707467277
2.393299102783203	11524.893231953749
2.3960859775543213	9664.86021066325
2.398869514465332	10595.603172432393
2.4016497135162354	21940.397096422857
2.4044265747070312	49146.98693911444
2.407200336456299	71552.56233942669
2.409970998764038	66870.1173450216
2.4127390384674072	51139.076979805825
2.415503978729248	49198.59996649636
2.418266534805298	63168.21307593065
2.4210267066955566	75052.21995641351
2.4237842559814453	68907.88339105816
2.426539897918701	62753.31311769639
2.429293394088745	82616.25937375907
2.4320452213287354	107187.1080983095
2.4347951412200928	106177.67732294717
2.4375438690185547	103933.39368299703
2.440291166305542	123888.22685369666
2.443037271499634	131147.6648093589
2.445782423019409	110709.61617926192
2.4485268592834473	101618.49607581153
2.451270818710327	135094.64174887163
2.454014539718628	190075.75308202795
2.4567582607269287	220975.45591441746
2.4595019817352295	234049.19084181567
2.4622461795806885	264113.381806192
2.4649908542633057	310842.9084693991
2.4677364826202393	334875.27485031326
2.4704833030700684	296483.32447846234
2.473231554031372	211388.8375619065
2.4759814739227295	134836.24604687758
2.4787333011627197	88290.69028516948
