#wavelength	surface_flux
0.6450077295303345	6343.291261349713
0.6472567915916443	10134.913439295213
0.6494921445846558	13582.484303147201
0.6517150402069092	16113.017874894678
0.6539263725280762	18910.65570560744
0.6561272740364075	22110.799721774965
0.6583186388015747	25676.185476751412
0.6605015397071838	29582.821507105626
0.6626768708229065	34070.909624360334
0.6648455858230591	39247.571800320984
0.6670085787773132	44048.609043553945
0.6691668033599854	45596.743841568445
0.6713210344314575	48009.151199642045
0.6734722256660461	58971.921127046575
0.6756211519241333	72357.18903009484
0.6777685880661011	81905.49980889614
0.6799154281616211	90034.786422396
0.6820623278617859	97904.32463487217
0.6842101216316223	105441.01093235232
0.6863595843315125	111570.44552543039
0.688511312007904	114700.53474244432
0.6906660795211792	114441.29337438702
0.6928245425224304	113592.85350806922
0.6949873566627502	115558.03218747572
0.6971551775932312	120511.05598128647
0.6993286609649658	127354.59733632374
0.7015084028244019	135553.85225042416
0.7036949396133423	143996.93894873816
0.7058889269828796	151465.9622837601
0.7080909013748169	158047.33388821007
0.710301399230957	164758.07994701905
0.712520956993103	170885.39578050113
0.7147500514984131	172621.19712644338
0.7169892191886902	169954.28296868966
0.7192389369010925	169599.39418365812
0.7214996814727783	171820.7712978073
0.723771870136261	171310.75061346422
0.7260559797286987	167949.41369274087
0.7283523678779602	163421.5707246576
0.7306615710258484	157673.5932068777
0.7329838871955872	151138.276754986
0.7353196740150452	144636.01979464144
0.7376693487167358	137892.95882172068
0.7400332689285278	130055.29963463826
0.7424117922782898	121755.77439447194
0.7448052167892456	113926.07385726014
0.7472138404846191	105457.40913742341
0.7496379613876343	94804.92970441193
0.7520779371261597	82832.9086507294
0.7545340061187744	70529.55357447953
0.7570064663887024	57986.533996007165
0.7594954967498779	45878.35872667816
0.7620013952255249	31938.652953593974
0.7645244002342224	15938.856806543057
0.7670646905899048	4959.245604584494
0.7696225643157959	3024.360630364189
0.7721980810165405	10291.314796560095
0.7747915983200073	29547.14619985559
0.7774031162261963	53044.65986327251
0.7800329327583313	74363.58525962496
0.7826811671257019	107684.12253492542
0.7853479981422424	151213.6960498031
0.7880334854125977	192653.38746229906
0.7907378077507019	227968.43214027028
0.7934610247612	247607.2025815758
0.7962033748626709	289525.28610195435
0.7989648580551147	378509.52476577886
0.801745593547821	467634.6510367749
0.8045456409454346	540410.9799641881
0.8073651194572449	608532.3566374669
0.8102040886878967	674316.5060828463
0.8130625486373901	748046.0905963389
0.8159406185150146	841193.7874507293
0.8188382983207703	949784.826421927
0.8217556476593018	1060781.0487186403
0.8246926665306091	1183402.0608782866
0.8276493549346924	1321286.478863975
0.8306257724761963	1457071.7082619136
0.8336219191551208	1588498.3491372096
0.8366377949714661	1732374.6727044438
0.8396733403205872	1905874.506127502
0.8427285552024841	2099171.816759078
0.8458034992218018	2293826.4218359925
0.8488980531692505	2446324.659931048
0.8520121574401855	2601396.7924026074
0.8551458716392517	2955272.981228036
0.8582990765571594	3400798.442971404
0.8614717125892639	3745223.2247654176
0.8646637797355652	4055694.8960081697
0.8678751587867737	4377898.152990138
0.8711057901382446	4725405.867952317
0.8743556141853333	5109548.294648856
0.87762451171875	5585889.04456786
0.8809124231338501	6218106.721891174
0.8842192888259888	6729861.430408299
0.8875449895858765	6694909.786563043
0.8908893465995789	6226729.774243681
0.894252359867096	6062221.121730078
0.8976338505744934	6595275.794246013
0.9010337591171265	7653681.134376333
0.9044519662857056	9069330.550798902
0.9078882932662964	10261933.653932152
0.9113426208496094	10955360.921133524
0.914814829826355	11544299.894680606
0.9183048605918884	12469026.248840574
0.9218124747276306	13577575.212023983
0.925337553024292	13284251.426411655
0.9288799166679382	11308364.524199868
0.9324395060539246	10169954.45558881
0.9360161423683167	10729265.70912743
0.9396095871925354	11976300.510937322
0.943219780921936	13393269.770310037
0.9468464851379395	14447752.337309318
0.9504896402359009	15149562.263697576
0.9541489481925964	15725262.53992041
0.9578243494033813	16012602.413981102
0.9615156054496765	16503832.910195176
0.9652225375175476	17556188.067576207
0.9689450263977051	18459010.53989801
0.9726828336715698	18991966.617834892
0.9764357805252075	19851554.65724387
0.9802037477493286	21131063.35129017
0.983986496925354	22888821.13463784
0.9877838492393494	25443418.32849522
0.9915955662727356	27931531.782092057
0.9954215884208679	30097828.045026872
0.9992615580558777	32675845.207396623
1.0031154155731201	35406057.92765811
1.0069829225540161	38463225.501297325
1.0108637809753418	42439309.07515018
1.0147579908370972	46641765.556741476
1.018665075302124	50817145.19472549
1.022585153579712	55070159.22906839
1.0265177488327026	59127348.87118424
1.0304628610610962	63405977.319057725
1.0344202518463135	68121281.2553365
1.0383895635604858	72438836.05824731
1.0423706769943237	74332612.70643365
1.0463634729385376	71955440.4307185
1.0503677129745483	67931086.66417474
1.0543830394744873	65881640.79585443
1.058409333229065	66067638.38944215
1.0624464750289917	68702024.0600889
1.0664942264556885	72162818.56801388
1.0705522298812866	74490379.94041623
1.0746204853057861	76846973.21230376
1.0786986351013184	80219306.939898
1.0827864408493042	82144829.67707026
1.086883783340454	77776958.46097927
1.0909905433654785	65697368.44632187
1.0951062440872192	52141274.013069294
1.0992310047149658	44155558.06117335
1.10336434841156	40296645.42748775
1.1075061559677124	36040716.81551385
1.1116561889648438	30472436.9123322
1.115814208984375	25000987.00943724
1.1199802160263062	21882262.909084756
1.124153733253479	22050088.858166754
1.1283347606658936	22653273.767539818
1.1325229406356812	20242035.19295574
1.1367181539535522	17489308.778947778
1.1409201622009277	17333235.465547584
1.145128846168518	17580111.658520963
1.1493438482284546	16082234.65654452
1.1535650491714478	12787297.796662726
1.1577922105789185	10912299.259534659
1.1620250940322876	12326849.978982732
1.1662636995315552	14006707.800754175
1.170507550239563	12634046.224344287
1.174756646156311	10286837.02980812
1.1790107488632202	12451348.71881916
1.1832695007324219	18032296.50548275
1.1875330209732056	22492980.613226246
1.191800832748413	26349921.584725033
1.1960728168487549	31083535.94980408
1.2003488540649414	36613655.75687585
1.2046287059783936	42709177.32688069
1.2089121341705322	48888970.56096834
1.2131990194320679	55645905.019288905
1.2174891233444214	62694301.165936306
1.2217823266983032	69119857.28947513
1.2260783910751343	75878853.85383672
1.230377197265625	82304310.06106427
1.2346785068511963	87396722.01987723
1.238982081413269	90159465.85060465
1.2432878017425537	91672964.74638236
1.2475954294204712	95218572.37583119
1.2519049644470215	97633851.26619135
1.256216049194336	103996472.9583421
1.2605286836624146	113518644.0348588
1.2648425102233887	117285243.87939431
1.2691574096679688	118310724.73447026
1.2734732627868652	118662301.35186052
1.2777899503707886	118226405.42707731
1.2821072340011597	115852208.30534919
1.2864248752593994	110565090.08063355
1.2907428741455078	104763190.02957319
1.2950609922409058	100002580.47490968
1.2993791103363037	94695959.66971688
1.303696870803833	88173722.24246293
1.3080145120620728	81525028.15216097
1.3123314380645752	74588212.56599152
1.3166478872299194	66557807.71784717
1.3209635019302368	57977655.896232925
1.3252781629562378	47487212.745158106
1.3295916318893433	32697539.045864433
1.3339040279388428	18210981.145014673
1.3382149934768677	10543855.388904803
1.3425244092941284	7830361.394809639
1.3468321561813354	6186912.7867055675
1.3511382341384888	4838992.823638897
1.3554422855377197	3653367.984838804
1.3597444295883179	2806611.457281839
1.3640443086624146	2721650.6329168687
1.3683418035507202	2933928.5007281285
1.3726370334625244	2734430.4697532416
1.3769296407699585	2461081.896196993
1.381219506263733	2338923.3143977444
1.3855066299438477	2291140.454095448
1.3897908926010132	2282802.566410695
1.3940720558166504	2164419.8326683724
1.3983501195907593	2061873.3357385793
1.4026249647140503	2164825.2654232043
1.4068963527679443	2355205.9120985507
1.4111642837524414	2605598.5703829434
1.4154287576675415	2831222.955623625
1.419689416885376	2892138.0092143053
1.4239463806152344	3027701.332372366
1.4281994104385376	3414662.549367179
1.4324485063552856	3893549.6463451697
1.436693549156189	4399934.098149967
1.440934419631958	4869397.400093551
1.4451709985733032	5433430.866484756
1.449403166770935	6510261.560973351
1.453631043434143	7812224.84420665
1.4578542709350586	8684474.52715176
1.4620729684829712	9096994.276781285
1.4662868976593018	9293601.265029872
1.4704961776733398	9527046.31218849
1.4747005701065063	10351728.274881192
1.4788999557495117	11461371.100524995
1.4830944538116455	12247948.940109706
1.4872838258743286	13103604.456542356
1.491468071937561	14115015.54045367
1.4956470727920532	15307110.208658691
1.4998208284378052	16390499.434849393
1.5039892196655273	17082223.965908367
1.5081522464752197	18303279.869198542
1.5123097896575928	20167112.06639818
1.5164618492126465	21711644.401987426
1.5206083059310913	22941568.34434965
1.5247491598129272	24207694.712067906
1.5288842916488647	25389718.083108556
1.5330137014389038	26580475.42260507
1.5371372699737549	28238171.563072987
1.541254997253418	30291660.63095867
1.545366883277893	32341226.236795023
1.5494728088378906	34090267.370943315
1.5535727739334106	34760512.590748325
1.5576666593551636	34447765.92010759
1.561754584312439	35034104.81026508
1.5658363103866577	37607131.91059341
1.5699119567871094	40786114.860850826
1.5739814043045044	42665570.26419468
1.5780447721481323	42790829.85805488
1.582101821899414	42947320.62909586
1.5861525535583496	43723815.03813965
1.5901970863342285	43178464.46025149
1.5942351818084717	41212618.37541789
1.5982669591903687	37568729.94397657
1.6022924184799194	31808556.170799244
1.606311559677124	25784599.44154664
1.6103241443634033	20496443.65177644
1.6143304109573364	16017385.644862484
1.6183301210403442	12613883.579147648
1.6223233938217163	10067263.48811288
1.6263102293014526	8069457.093211473
1.6302905082702637	6997168.770426695
1.634264349937439	7209045.864529233
1.638231635093689	8265193.584558564
1.6421923637390137	9294957.29643498
1.646146535873413	9878798.366186477
1.6500942707061768	10388922.567836285
1.6540353298187256	10485344.531400373
1.6579699516296387	9762697.089766406
1.661897897720337	8837338.325648973
1.6658192873001099	6996371.795567014
1.6697341203689575	4314819.45517738
1.6736423969268799	3074255.3664777568
1.677544116973877	3895641.6087851087
1.6814392805099487	5173228.647633128
1.6853278875350952	5568664.849531312
1.6892099380493164	5027553.993224135
1.6930854320526123	4059248.6864081537
1.696954369544983	3245532.3081609756
1.7008168697357178	3132453.1574702393
1.7046726942062378	3971211.7787577673
1.708522081375122	4965338.734332787
1.712364912033081	5066359.882566522
1.7162011861801147	4997838.185893203
1.7200311422348022	5712419.470456925
1.723854422569275	6261545.875780941
1.7276713848114014	5656704.594545097
1.731481909751892	4688609.464126536
1.7352858781814575	4257126.678224967
1.7390835285186768	4390340.001210012
1.7428747415542603	5067697.477277678
1.7466596364974976	5919038.94642303
1.7504380941390991	6544744.914579791
1.7542102336883545	6790401.6062047575
1.7579760551452637	6538418.218683506
1.7617355585098267	6067787.1122649815
1.7654887437820435	5616910.132005888
1.7692357301712036	5078072.873346652
1.7729763984680176	4854892.076987971
1.776710867881775	5395584.274384694
1.7804391384124756	6018483.068006374
1.7841613292694092	5891420.747883108
1.7878772020339966	5165450.7675656965
1.7915871143341064	4491463.934375759
1.7952908277511597	4334463.554495232
1.7989884614944458	4734768.878021353
1.8026801347732544	5327838.07026556
1.806365728378296	5791673.534138472
1.8100452423095703	6403622.34426235
1.8137187957763672	7023940.540143701
1.817386507987976	6964365.508358899
1.8210482597351074	6851950.668622869
1.8247040510177612	7071262.433415801
1.828354001045227	7090018.831221125
1.8319982290267944	6915200.171098975
1.8356364965438843	6625256.011422512
1.8392690420150757	6497983.285096627
1.8428958654403687	6497696.036346724
1.8465168476104736	6576187.379602508
1.8501322269439697	6845862.243028736
1.8537418842315674	6878801.052221394
1.8573459386825562	6574944.904676322
1.860944390296936	6268138.577703369
1.864537239074707	6382107.054358442
1.8681244850158691	6958687.305876249
1.871706247329712	7504396.408572864
1.8752825260162354	7968301.175164292
1.8788533210754395	8897469.909718722
1.8824186325073242	10032670.775194755
1.8859784603118896	10580485.36622217
1.8895330429077148	10616630.274875827
1.8930821418762207	10717919.958145801
1.8966259956359863	10984727.248445176
1.9001644849777222	11150195.655399691
1.9036977291107178	11400359.669429714
1.9072256088256836	11722968.496054117
1.9107483625411987	12158507.86790302
1.9142658710479736	12798369.651988681
1.9177782535552979	12708953.872648735
1.9212853908538818	11899178.887132818
1.9247875213623047	11684493.391142454
1.9282845258712769	11780197.436769454
1.9317764043807983	11418514.497193532
1.9352631568908691	10874974.629885957
1.9387450218200684	10251660.461402882
1.942221760749817	10483929.950100936
1.9456936120986938	11548097.46050624
1.9491604566574097	12121641.560062008
1.952622413635254	11848961.154471613
1.956079363822937	11508525.55511972
1.959531545639038	12013240.370456822
1.962978720664978	12529334.89707543
1.966421127319336	12728526.769612292
1.9698586463928223	13146816.706541462
1.9732913970947266	13400062.340458225
1.9767193794250488	13744620.885713812
1.9801424741744995	14120049.217369733
1.9835609197616577	14219157.86577856
1.9869745969772339	14238302.094376415
1.990383505821228	14339269.530839311
1.9937876462936401	15128092.952259874
1.9971871376037598	15869060.572668428
2.000581979751587	16008990.522958059
2.003972291946411	16150752.945230115
2.007357597351074	16531844.42618729
2.0107386112213135	17231894.795334134
2.0141148567199707	17694935.876786757
2.017486572265625	17733078.396844372
2.0208535194396973	18375123.13016762
2.0242159366607666	19344493.401970245
2.027573823928833	19720844.4361609
2.0309269428253174	19940360.85386163
2.034275770187378	20351611.749175653
2.0376198291778564	20955656.28616741
2.040959596633911	21685951.735761568
2.044294595718384	22400424.234041028
2.0476250648498535	22835216.912063602
2.0509510040283203	22805609.11487806
2.054272413253784	22866548.139469847
2.057589530944824	23498049.828932423
2.0609018802642822	23945783.228867438
2.0642096996307373	23902659.13609918
2.0675129890441895	24242123.24204417
2.0708119869232178	24709112.590138298
2.074106216430664	24683511.57466299
2.0773961544036865	24510913.968656342
2.080681324005127	24354947.59595477
2.0839622020721436	24074904.384934112
2.087238311767578	23862392.327936012
2.090510129928589	23719514.70370093
2.0937774181365967	23255175.376239467
2.0970399379730225	22589984.47362847
2.1002981662750244	22094054.091057368
2.1035518646240234	21683290.700591378
2.1068007946014404	21083949.235669155
2.1100454330444336	20337535.731534515
2.1132853031158447	19643439.89514128
2.116520881652832	19069540.223186973
2.1197516918182373	18535511.290670224
2.1229779720306396	17827057.23068067
2.12619948387146	16830051.250532143
2.1294167041778564	15775847.378676327
2.132629156112671	14997698.328506554
2.1358368396759033	14359811.054754477
2.139039993286133	13614564.21844619
2.1422386169433594	12877271.724762868
2.145432472229004	12162560.179921092
2.1486217975616455	11421551.018034479
2.151806354522705	10708532.20458097
2.1549863815307617	9936126.90097825
2.1581614017486572	9037929.108287247
2.16133189201355	8122354.593466534
2.1644976139068604	7326758.8955695545
2.167658567428589	6744929.846667377
2.1708147525787354	6365551.772942434
2.173966407775879	6055223.844893248
2.1771130561828613	5700242.0816143695
2.1802549362182617	5259141.215915205
2.183391809463501	4699469.793647269
2.1865241527557373	4021646.015701016
2.1896514892578125	3289923.2643629853
2.1927738189697266	2598692.5281551233
2.1958916187286377	1967884.187277045
2.1990041732788086	1390370.019443976
2.2021119594573975	966202.5618128248
2.2052149772644043	775991.2894140775
2.208312749862671	787833.087343888
2.2114057540893555	934102.6127727798
2.214493751525879	1140061.5616209037
2.217576742172241	1324716.5566519985
2.2206547260284424	1413280.3024436613
2.2237277030944824	1385268.5609644814
2.2267956733703613	1296331.0708648479
2.2298583984375	1201896.956835682
2.2329163551330566	1114418.485223933
2.235969066619873	1029495.0700564568
2.2390167713165283	941170.6040042576
2.2420592308044434	850355.4323538883
2.2450966835021973	766550.258182008
2.248128890991211	699274.5359505359
2.2511560916900635	647113.9131395523
2.254178285598755	611894.8154020063
2.257194995880127	604674.4981946365
2.260206699371338	620006.2654146607
2.2632133960723877	635297.6261541371
2.266214609146118	630248.3416726051
2.2692108154296875	606841.1357245478
2.2722020149230957	591256.4125432179
2.2751877307891846	581457.7474256058
2.278168201446533	548381.7889060159
2.2811436653137207	497815.015465149
2.284113883972168	451955.13902195875
2.287078857421875	408971.62829191034
2.290038824081421	368786.2855559743
2.2929933071136475	349524.2177973419
2.295942783355713	361788.5008450986
2.298887014389038	404573.23958263476
2.301826238632202	482062.71403487615
2.304760217666626	602393.7779853175
2.3076889514923096	767616.1216378892
2.310612440109253	924919.750395595
2.3135311603546143	927801.3692476124
2.3164443969726562	742060.7488362386
2.319352865219116	540387.9037721242
2.322256088256836	430509.29814220493
2.3251543045043945	389700.5005581233
2.328047275543213	378074.22049271397
2.330935478210449	364010.3594443002
2.3338186740875244	349410.4597474436
2.3366971015930176	352741.96748032566
2.3395702838897705	371868.06882073544
2.3424389362335205	395089.47637992376
2.3453025817871094	416474.6974628848
2.348161458969116	434709.4470699692
2.351015567779541	454751.1885152525
2.353865146636963	482126.4839741043
2.3567099571228027	518978.8158775771
2.3595502376556396	567918.814420455
2.3623859882354736	633330.68573821
2.3652172088623047	694552.5343123929
2.368043899536133	679917.8399158934
2.370866537094116	566533.5368659741
2.3736846446990967	443699.65236093727
2.3764986991882324	381111.5458047246
2.3793084621429443	379482.5857684427
2.3821144104003906	425983.57770706865
2.384916305541992	501862.4785575322
2.387714147567749	591818.4787626141
2.3905084133148193	686993.6603165019
2.393299102783203	777498.5924768479
2.3960859775543213	846729.6973795232
2.398869514465332	889214.1720589997
2.4016497135162354	933312.561203351
2.4044265747070312	1000305.2219869348
2.407200336456299	1068162.873637877
2.409970998764038	1110143.5025870053
2.4127390384674072	1121532.5893007529
2.415503978729248	1104500.7759154188
2.418266534805298	1072522.6498121938
2.4210267066955566	1044376.427462693
2.4237842559814453	1033503.9528980373
2.426539897918701	1051833.0445110875
2.429293394088745	1081285.6007496032
2.4320452213287354	1079717.2815058301
2.4347951412200928	1059239.463189916
2.4375438690185547	1093134.2482484793
2.440291166305542	1198964.7849106926
2.443037271499634	1308977.8523029475
2.445782423019409	1380830.54158553
2.4485268592834473	1429772.655052712
2.451270818710327	1474623.2501333498
2.454014539718628	1529634.8111145806
2.4567582607269287	1607109.7837774379
2.4595019817352295	1693782.8514590901
2.4622461795806885	1764422.234808501
2.4649908542633057	1818820.5280450925
2.4677364826202393	1873581.273878911
2.4704833030700684	1933384.2043256266
2.473231554031372	1990278.1865302564
2.4759814739227295	2045529.5959708148
2.4787333011627197	2128595.5400337
