#wavelength	surface_flux
0.6450077295303345	981.2333875008426
0.6472567915916443	1537.876874313296
0.6494921445846558	1993.8025106870248
0.6517150402069092	2283.2130614186135
0.6539263725280762	2601.1345701692617
0.6561272740364075	2970.011718003163
0.6583186388015747	3386.926096742176
0.6605015397071838	3847.069627542684
0.6626768708229065	4384.228881837917
0.6648455858230591	5030.329412418417
0.6670085787773132	5710.552334221107
0.6691668033599854	6198.096807728305
0.6713210344314575	6782.495094877424
0.6734722256660461	8047.327869181861
0.6756211519241333	9591.753621079042
0.6777685880661011	10935.130880878729
0.6799154281616211	12182.132117097508
0.6820623278617859	13430.974000468026
0.6842101216316223	14720.077463845035
0.6863595843315125	15947.190959356923
0.688511312007904	16868.426957994958
0.6906660795211792	17337.459028920173
0.6928245425224304	17661.189039169785
0.6949873566627502	18247.4154733869
0.6971551775932312	19211.3879308215
0.6993286609649658	20601.952922856795
0.7015084028244019	22392.91532531377
0.7036949396133423	24314.80063537434
0.7058889269828796	26109.192578302358
0.7080909013748169	27842.19179150333
0.710301399230957	29759.995635751664
0.712520956993103	31787.751171856973
0.7147500514984131	33459.6794050065
0.7169892191886902	34694.69847259178
0.7192389369010925	36008.94594395724
0.7214996814727783	37520.71539522691
0.723771870136261	38939.170028373315
0.7260559797286987	40157.0135473539
0.7283523678779602	41337.46573684021
0.7306615710258484	42728.00954915482
0.7329838871955872	44385.60216881248
0.7353196740150452	46550.955262002564
0.7376693487167358	49504.397518268976
0.7400332689285278	53096.84232540514
0.7424117922782898	57146.58726399175
0.7448052167892456	60626.896089386806
0.7472138404846191	61156.14133241951
0.7496379613876343	56395.883778528005
0.7520779371261597	46808.02187379683
0.7545340061187744	35677.27908398413
0.7570064663887024	25765.88005978174
0.7594954967498779	18096.950336653317
0.7620013952255249	12538.514112728304
0.7645244002342224	8562.839033482687
0.7670646905899048	6424.027476677106
0.7696225643157959	6855.962820493529
0.7721980810165405	10301.485765658137
0.7747915983200073	16722.331646931663
0.7774031162261963	24089.616923683934
0.7800329327583313	33128.401782514884
0.7826811671257019	49369.90817015634
0.7853479981422424	67790.15238500806
0.7880334854125977	79841.41201108365
0.7907378077507019	84678.63613164543
0.7934610247612	81938.52096503813
0.7962033748626709	88607.83039973651
0.7989648580551147	114419.10070610566
0.801745593547821	140377.90067020667
0.8045456409454346	159814.2822281345
0.8073651194572449	179144.65521467922
0.8102040886878967	199663.0609725536
0.8130625486373901	222237.71310303634
0.8159406185150146	249318.3099592074
0.8188382983207703	281500.1560593657
0.8217556476593018	317596.571363053
0.8246926665306091	358869.0622326518
0.8276493549346924	404508.7347983964
0.8306257724761963	451984.43543256255
0.8336219191551208	503820.5604576035
0.8366377949714661	562730.858777108
0.8396733403205872	628852.472388948
0.8427285552024841	701055.0038668386
0.8458034992218018	778905.1726464361
0.8488980531692505	857721.2972804852
0.8520121574401855	957468.4380796271
0.8551458716392517	1122297.1776378732
0.8582990765571594	1303078.596668211
0.8614717125892639	1447729.8786763614
0.8646637797355652	1587337.0143305599
0.8678751587867737	1739091.1124371428
0.8711057901382446	1903548.712803431
0.8743556141853333	2079278.004906199
0.87762451171875	2302493.128426538
0.8809124231338501	2631485.860461667
0.8842192888259888	2974429.2931293254
0.8875449895858765	3177993.6854026774
0.8908893465995789	3227095.482084162
0.894252359867096	3288311.819759693
0.8976338505744934	3619475.032605366
0.9010337591171265	4182166.915299385
0.9044519662857056	4766415.724379251
0.9078882932662964	5252708.921389665
0.9113426208496094	5674397.635774071
0.914814829826355	6151412.161478529
0.9183048605918884	6732794.497205585
0.9218124747276306	7315619.687254729
0.925337553024292	7240616.3098092945
0.9288799166679382	6326907.303036881
0.9324395060539246	5993539.699209895
0.9360161423683167	7067618.845597945
0.9396095871925354	8656556.537051484
0.943219780921936	9529713.953584224
0.9468464851379395	9689931.40240786
0.9504896402359009	10065448.749336652
0.9541489481925964	10658831.93326332
0.9578243494033813	11233165.710288744
0.9615156054496765	12052070.935917653
0.9652225375175476	13410195.54089081
0.9689450263977051	15080972.645498393
0.9726828336715698	16578048.485627221
0.9764357805252075	18035580.416044533
0.9802037477493286	19681603.81733366
0.983986496925354	21548907.108039524
0.9877838492393494	23614796.052847452
0.9915955662727356	25669402.64019058
0.9954215884208679	27649043.523394763
0.9992615580558777	29501545.89890094
1.0031154155731201	31169072.646574322
1.0069829225540161	32894467.708742995
1.0108637809753418	34761288.54423155
1.0147579908370972	36648171.16823416
1.018665075302124	38701982.31007146
1.022585153579712	41030342.67813491
1.0265177488327026	43420551.704056785
1.0304628610610962	45657270.06858853
1.0344202518463135	47749995.13195002
1.0383895635604858	49872895.147264645
1.0423706769943237	51982914.4443672
1.0463634729385376	53960205.415821575
1.0503677129745483	55936305.653789856
1.0543830394744873	58045590.950079
1.058409333229065	60270372.681424506
1.0624464750289917	62553766.048338555
1.0664942264556885	64717842.42291214
1.0705522298812866	66541851.41041685
1.0746204853057861	67980377.34497368
1.0786986351013184	69111416.87888339
1.0827864408493042	69642412.5710073
1.086883783340454	68165614.25765519
1.0909905433654785	63012526.155760504
1.0951062440872192	54970415.8925439
1.0992310047149658	46614305.66997787
1.10336434841156	38781171.084883474
1.1075061559677124	31260491.814784095
1.1116561889648438	24606462.6512652
1.115814208984375	20367350.099977713
1.1199802160263062	19756077.281609666
1.124153733253479	22317487.49260694
1.1283347606658936	24251909.16085175
1.1325229406356812	21933884.497617263
1.1367181539535522	21238131.743226863
1.1409201622009277	24211088.955014385
1.145128846168518	24852126.57750402
1.1493438482284546	23206891.601757586
1.1535650491714478	20381285.241235167
1.1577922105789185	18331819.38844499
1.1620250940322876	19294209.39242265
1.1662636995315552	21084245.937593706
1.170507550239563	20748550.699520253
1.174756646156311	19878898.031361356
1.1790107488632202	23916614.78550698
1.1832695007324219	32433831.191296723
1.1875330209732056	40872224.489324346
1.191800832748413	48549399.939520314
1.1960728168487549	56172874.12776269
1.2003488540649414	63983680.43615282
1.2046287059783936	72108786.02488251
1.2089121341705322	79928196.46280502
1.2131990194320679	87711234.56349675
1.2174891233444214	95633604.1449597
1.2217823266983032	103002476.98090406
1.2260783910751343	110278671.57364373
1.230377197265625	116723223.9177506
1.2346785068511963	120977138.84815335
1.238982081413269	123798039.20084296
1.2432878017425537	126166671.11014253
1.2475954294204712	128293001.23232533
1.2519049644470215	130857019.84682722
1.256216049194336	136548349.758846
1.2605286836624146	144358477.44551837
1.2648425102233887	149496418.39891478
1.2691574096679688	150607117.20311117
1.2734732627868652	148824828.6589019
1.2777899503707886	144816225.6242706
1.2821072340011597	138504159.93841186
1.2864248752593994	131295172.62517922
1.2907428741455078	125108391.88378878
1.2950609922409058	119729641.92320955
1.2993791103363037	114045859.52080436
1.303696870803833	108400514.19360033
1.3080145120620728	103084405.52521683
1.3123314380645752	95758521.06276116
1.3166478872299194	86708979.02502674
1.3209635019302368	76440873.98136471
1.3252781629562378	61273937.99722007
1.3295916318893433	40770960.987337895
1.3339040279388428	20904206.056522414
1.3382149934768677	8851713.638908658
1.3425244092941284	4469551.76279659
1.3468321561813354	2857640.3467576774
1.3511382341384888	1883924.022578438
1.3554422855377197	1330777.5776694457
1.3597444295883179	1186823.38187524
1.3640443086624146	1432241.5599353868
1.3683418035507202	1722693.7539784005
1.3726370334625244	2006595.36693127
1.3769296407699585	2419834.3299392127
1.381219506263733	2432157.983025006
1.3855066299438477	2089289.6241924632
1.3897908926010132	1923918.7273806802
1.3940720558166504	1831253.0532257138
1.3983501195907593	1816717.806924474
1.4026249647140503	1999856.1768975728
1.4068963527679443	2081375.551302861
1.4111642837524414	2086128.2406245822
1.4154287576675415	2173459.625617258
1.419689416885376	2157108.509229604
1.4239463806152344	2281654.6741054095
1.4281994104385376	2828931.065758011
1.4324485063552856	3378489.8234057846
1.436693549156189	3708343.2455803747
1.440934419631958	4067758.9030975276
1.4451709985733032	4790585.412485862
1.449403166770935	6103597.254587479
1.453631043434143	7556352.695249644
1.4578542709350586	8607225.20551755
1.4620729684829712	8972881.571026212
1.4662868976593018	8779194.785659244
1.4704961776733398	8628133.650396455
1.4747005701065063	9260470.372481577
1.4788999557495117	10235328.488910332
1.4830944538116455	10709369.709680868
1.4872838258743286	11286957.078430716
1.491468071937561	12510854.998753238
1.4956470727920532	14130185.588208482
1.4998208284378052	15726077.286297241
1.5039892196655273	17080788.906508617
1.5081522464752197	18206741.685406595
1.5123097896575928	19289733.934173636
1.5164618492126465	20842682.810671117
1.5206083059310913	23265348.380608052
1.5247491598129272	25840644.842188384
1.5288842916488647	28060999.081579406
1.5330137014389038	30569879.343732115
1.5371372699737549	33387486.183028482
1.541254997253418	36002902.02359879
1.545366883277893	38565258.29169752
1.5494728088378906	41056509.714030236
1.5535727739334106	43017147.64378055
1.5576666593551636	44786388.36380498
1.561754584312439	46687677.19316191
1.5658363103866577	48615367.48175021
1.5699119567871094	50502943.184756935
1.5739814043045044	51823010.86362343
1.5780447721481323	52438898.95182314
1.582101821899414	52682427.93406556
1.5861525535583496	52364561.0909701
1.5901970863342285	50965758.751049496
1.5942351818084717	48502211.76020068
1.5982669591903687	44905786.54082535
1.6022924184799194	39843081.43137939
1.606311559677124	34000231.287436105
1.6103241443634033	28425711.508784514
1.6143304109573364	23509433.621009618
1.6183301210403442	19522820.22963789
1.6223233938217163	16477828.36308992
1.6263102293014526	14129076.509840347
1.6302905082702637	13120911.974805525
1.634264349937439	13760977.091682317
1.638231635093689	15158566.593982328
1.6421923637390137	16416914.53898816
1.646146535873413	17252506.75241812
1.6500942707061768	18136616.447436515
1.6540353298187256	18606908.19719095
1.6579699516296387	18264429.775809202
1.661897897720337	16755112.66735465
1.6658192873001099	12612614.553693393
1.6697341203689575	8807378.015687544
1.6736423969268799	9070419.064928504
1.677544116973877	11733941.158108866
1.6814392805099487	13724967.151031855
1.6853278875350952	13841285.329769872
1.6892099380493164	12834854.310379667
1.6930854320526123	11644611.619490521
1.696954369544983	10822533.534618367
1.7008168697357178	10750587.114425287
1.7046726942062378	11701098.456297316
1.708522081375122	12978736.04825932
1.712364912033081	13307921.653835503
1.7162011861801147	13350337.315197386
1.7200311422348022	13972144.292730922
1.723854422569275	14079482.281880867
1.7276713848114014	13154107.610438898
1.731481909751892	12026328.106815385
1.7352858781814575	11298346.720208248
1.7390835285186768	11086528.73607959
1.7428747415542603	11255023.94504574
1.7466596364974976	11303319.376627045
1.7504380941390991	11032494.299694372
1.7542102336883545	10528186.520850204
1.7579760551452637	9827965.71133015
1.7617355585098267	9190083.76235803
1.7654887437820435	8514611.172892984
1.7692357301712036	7577153.033980181
1.7729763984680176	6902750.436549161
1.776710867881775	6731845.4475739775
1.7804391384124756	6568014.2833891185
1.7841613292694092	5999373.703208928
1.7878772020339966	5295850.710918595
1.7915871143341064	4891629.334554336
1.7952908277511597	4614074.52414674
1.7989884614944458	4343968.830748018
1.8026801347732544	4042997.6477996223
1.806365728378296	3842221.9464257965
1.8100452423095703	4099634.026852336
1.8137187957763672	4338798.65162363
1.817386507987976	3973759.513746662
1.8210482597351074	3971917.6753053716
1.8247040510177612	4247790.731252506
1.828354001045227	3817109.5446612043
1.8319982290267944	3304190.0835743393
1.8356364965438843	3019767.217836042
1.8392690420150757	2949868.2809402253
1.8428958654403687	3129364.1947779693
1.8465168476104736	3282831.9748141803
1.8501322269439697	3335015.6869179728
1.8537418842315674	3145228.7470448636
1.8573459386825562	2788984.4427842326
1.860944390296936	2433331.4081545053
1.864537239074707	2200991.4410229465
1.8681244850158691	2180218.4964835155
1.871706247329712	2437486.54257063
1.8752825260162354	3137159.033744073
1.8788533210754395	4193146.3770225868
1.8824186325073242	4946418.686139742
1.8859784603118896	5031032.255986694
1.8895330429077148	5075616.472095186
1.8930821418762207	5581774.4116956405
1.8966259956359863	5772053.667423349
1.9001644849777222	5172266.009492021
1.9036977291107178	4735617.401666997
1.9072256088256836	4649842.955978932
1.9107483625411987	4627704.046823913
1.9142658710479736	4784213.692833105
1.9177782535552979	4719409.228957788
1.9212853908538818	4140869.1663794834
1.9247875213623047	3642728.145111822
1.9282845258712769	3427623.705020613
1.9317764043807983	3206663.005918825
1.9352631568908691	2987078.384869541
1.9387450218200684	2733676.322593063
1.942221760749817	2838451.622931846
1.9456936120986938	3317108.259752953
1.9491604566574097	3698303.9039295106
1.952622413635254	3728100.054911179
1.956079363822937	3627291.926108137
1.959531545639038	3868325.5748113077
1.962978720664978	4220929.409462283
1.966421127319336	4504695.338346395
1.9698586463928223	4682464.525854707
1.9732913970947266	4785408.623947911
1.9767193794250488	5152581.272490757
1.9801424741744995	5572680.984490491
1.9835609197616577	5944993.638290044
1.9869745969772339	6182902.528534639
1.990383505821228	6177082.351307744
1.9937876462936401	6609045.127503691
1.9971871376037598	7291791.23706416
2.000581979751587	7665752.325802593
2.003972291946411	7883677.783714003
2.007357597351074	8052123.1505130585
2.0107386112213135	8344211.3521871995
2.0141148567199707	8609593.2473087
2.017486572265625	8641090.047322037
2.0208535194396973	9011790.676447676
2.0242159366607666	9554728.891812254
2.027573823928833	9697095.764608089
2.0309269428253174	9879515.448510809
2.034275770187378	10314262.839879103
2.0376198291778564	10749543.879392028
2.040959596633911	11138338.557490753
2.044294595718384	11571397.615020461
2.0476250648498535	11924605.853887392
2.0509510040283203	12093616.385938903
2.054272413253784	12346811.078623798
2.057589530944824	12791118.608158134
2.0609018802642822	13125485.909321733
2.0642096996307373	13271281.072695818
2.0675129890441895	13456385.615128854
2.0708119869232178	13663818.967685772
2.074106216430664	13726801.423949055
2.0773961544036865	13728364.629338691
2.080681324005127	13802009.407589357
2.0839622020721436	13898400.473383684
2.087238311767578	13981112.983604059
2.090510129928589	14018375.500645941
2.0937774181365967	13931250.02392382
2.0970399379730225	13785089.69174608
2.1002981662750244	13646585.161779357
2.1035518646240234	13516184.08817499
2.1068007946014404	13401536.732547408
2.1100454330444336	13255887.45445529
2.1132853031158447	13057786.093806084
2.116520881652832	12871163.397901261
2.1197516918182373	12731205.706679558
2.1229779720306396	12565358.618454253
2.12619948387146	12309719.040695991
2.1294167041778564	12018765.041601187
2.132629156112671	11765802.213080993
2.1358368396759033	11498987.101169871
2.139039993286133	11170228.132567318
2.1422386169433594	10849281.508599734
2.145432472229004	10551440.288070634
2.1486217975616455	10253034.28107218
2.151806354522705	9965106.84478346
2.1549863815307617	9654871.457526103
2.1581614017486572	9262265.550000735
2.16133189201355	8794891.279521216
2.1644976139068604	8351847.600461378
2.167658567428589	8012990.553706099
2.1708147525787354	7745518.34031418
2.173966407775879	7460195.967313426
2.1771130561828613	7159539.608706905
2.1802549362182617	6861540.496307403
2.183391809463501	6455800.509349446
2.1865241527557373	5888856.537829915
2.1896514892578125	5212214.54533196
2.1927738189697266	4434653.032599407
2.1958916187286377	3537858.8812623722
2.1990041732788086	2635229.6643337966
2.2021119594573975	2049237.4540965303
2.2052149772644043	1970706.56887727
2.208312749862671	2249809.1655781115
2.2114057540893555	2582314.187072645
2.214493751525879	2793623.0806858432
2.217576742172241	2925019.103738729
2.2206547260284424	2996839.5306723397
2.2237277030944824	2947621.028499576
2.2267956733703613	2741038.409251413
2.2298583984375	2474921.606180333
2.2329163551330566	2288792.5930376654
2.235969066619873	2140462.3732608506
2.2390167713165283	1963117.3391088238
2.2420592308044434	1821061.4687188612
2.2450966835021973	1738205.3010800255
2.248128890991211	1663340.4262369238
2.2511560916900635	1563265.4282166732
2.254178285598755	1457815.8676866672
2.257194995880127	1406360.5829964746
2.260206699371338	1429409.301797908
2.2632133960723877	1487989.9529148836
2.266214609146118	1514354.5895185368
2.2692108154296875	1477699.4983486072
2.2722020149230957	1422050.44898229
2.2751877307891846	1394897.0586691927
2.278168201446533	1403745.328306204
2.2811436653137207	1402832.886234223
2.284113883972168	1343121.2325155854
2.287078857421875	1239163.1367867321
2.290038824081421	1136115.4047711683
2.2929933071136475	1078051.8709652713
2.295942783355713	1092687.9496971827
2.298887014389038	1193687.7299029161
2.301826238632202	1404832.580634555
2.304760217666626	1744135.571246985
2.3076889514923096	2181177.834836931
2.310612440109253	2531443.467592526
2.3135311603546143	2383790.8259903993
2.3164443969726562	1714874.0761979055
2.319352865219116	1153400.1314934145
2.322256088256836	1000498.4580613291
2.3251543045043945	1024588.9699325497
2.328047275543213	1046747.5280002119
2.330935478210449	1015732.4137511451
2.3338186740875244	954408.0645341498
2.3366971015930176	916449.6066473514
2.3395702838897705	912155.188364418
2.3424389362335205	928265.9433925635
2.3453025817871094	951045.859172965
2.348161458969116	979061.1787911108
2.351015567779541	1044712.3019780423
2.353865146636963	1166370.7731394179
2.3567099571228027	1302781.1429113396
2.3595502376556396	1421177.7570033344
2.3623859882354736	1538292.4140405
2.3652172088623047	1617813.6441632612
2.368043899536133	1496754.3851053922
2.370866537094116	1153618.6628615519
2.3736846446990967	885871.2300760373
2.3764986991882324	878637.9206568401
2.3793084621429443	1011050.0785895964
2.3821144104003906	1170021.8193456447
2.384916305541992	1343089.3642746282
2.387714147567749	1519541.9793091805
2.3905084133148193	1656061.8722872622
2.393299102783203	1736778.2248373975
2.3960859775543213	1821603.6918102517
2.398869514465332	1943974.6023739087
2.4016497135162354	2033498.404820483
2.4044265747070312	2045887.4688974195
2.407200336456299	2087090.0293973128
2.409970998764038	2242654.223652454
2.4127390384674072	2364770.814825727
2.415503978729248	2285560.7972729937
2.418266534805298	2136259.0131129296
2.4210267066955566	2139284.6946632364
2.4237842559814453	2270890.5493802493
2.426539897918701	2393186.920202846
2.429293394088745	2446626.4533963525
2.4320452213287354	2406252.6679878742
2.4347951412200928	2328309.3630379387
2.4375438690185547	2377669.929563589
2.440291166305542	2584034.02040903
2.443037271499634	2765874.996780051
2.445782423019409	2813835.4410237037
2.4485268592834473	2787686.6803618637
2.451270818710327	2755964.40132293
2.454014539718628	2770428.867948428
2.4567582607269287	2876153.9710745797
2.4595019817352295	3024015.7548772474
2.4622461795806885	3118949.086069683
2.4649908542633057	3134016.355485914
2.4677364826202393	3073348.134181574
2.4704833030700684	2965114.382458133
2.473231554031372	2897198.295981452
2.4759814739227295	2923133.2340345737
2.4787333011627197	3031149.25756046
