#wavelength	surface_flux
0.6450077295303345	98229.12574634119
0.6472567915916443	155782.29770979972
0.6494921445846558	205454.22337768463
0.6517150402069092	239434.837801979
0.6539263725280762	277262.01174327737
0.6561272740364075	320244.9288333607
0.6583186388015747	367861.3392486247
0.6605015397071838	420492.4655071424
0.6626768708229065	478845.6273865123
0.6648455858230591	538741.9919122169
0.6670085787773132	572280.3923748353
0.6691668033599854	526835.8814400014
0.6713210344314575	504776.12834812823
0.6734722256660461	673750.2189057195
0.6756211519241333	908358.6493008174
0.6777685880661011	1062387.9474695858
0.6799154281616211	1175509.7393253176
0.6820623278617859	1273984.8181527718
0.6842101216316223	1353599.4983438642
0.6863595843315125	1399907.7924180103
0.688511312007904	1400830.3564450007
0.6906660795211792	1367703.128824271
0.6928245425224304	1334680.9375600587
0.6949873566627502	1328717.5171583334
0.6971551775932312	1358117.7316862287
0.6993286609649658	1421627.9318816792
0.7015084028244019	1508553.8141419925
0.7036949396133423	1599257.3432664394
0.7058889269828796	1679080.5031295193
0.7080909013748169	1750095.2973406673
0.710301399230957	1822359.0496172695
0.712520956993103	1891595.8795705745
0.7147500514984131	1935359.112720091
0.7169892191886902	1945836.5900212878
0.7192389369010925	1940370.95851553
0.7214996814727783	1919739.8913015705
0.723771870136261	1876173.8829788212
0.7260559797286987	1819357.9387319228
0.7283523678779602	1754192.2291987394
0.7306615710258484	1669780.4007399145
0.7329838871955872	1568362.0823933003
0.7353196740150452	1470856.29415691
0.7376693487167358	1379007.9010813967
0.7400332689285278	1275628.6295898827
0.7424117922782898	1171762.6328101126
0.7448052167892456	1084195.1211042304
0.7472138404846191	995356.0033336972
0.7496379613876343	887416.2943863726
0.7520779371261597	772978.2873634507
0.7545340061187744	664113.0475499933
0.7570064663887024	555231.4653600672
0.7594954967498779	443216.1694074529
0.7620013952255249	311755.00075208343
0.7645244002342224	159568.9468957542
0.7670646905899048	51309.401406534445
0.7696225643157959	31764.27765744018
0.7721980810165405	101126.13533304252
0.7747915983200073	273593.88599996205
0.7774031162261963	475013.2174579051
0.7800329327583313	646988.1342727703
0.7826811671257019	911117.852891527
0.7853479981422424	1258312.868464711
0.7880334854125977	1585293.167667037
0.7907378077507019	1854477.5371240806
0.7934610247612	1990452.7147744512
0.7962033748626709	2318306.90592498
0.7989648580551147	3047554.247052014
0.801745593547821	3785541.8738005525
0.8045456409454346	4405822.509447015
0.8073651194572449	5038313.692488648
0.8102040886878967	5719174.224749118
0.8130625486373901	6476980.262261436
0.8159406185150146	7294103.6590541275
0.8188382983207703	8149518.850317858
0.8217556476593018	9151797.82001616
0.8246926665306091	10333591.799696418
0.8276493549346924	11562320.043409271
0.8306257724761963	12784640.64223453
0.8336219191551208	14054999.632346705
0.8366377949714661	15418635.612211796
0.8396733403205872	16859112.05330096
0.8427285552024841	18296720.550122753
0.8458034992218018	19669276.424551196
0.8488980531692505	20411366.9091336
0.8520121574401855	20632532.1080565
0.8551458716392517	22421527.068073943
0.8582990765571594	25074290.232153133
0.8614717125892639	26718441.97893134
0.8646637797355652	27933589.80750515
0.8678751587867737	29172651.114166945
0.8711057901382446	30837475.352405086
0.8743556141853333	33149953.746736713
0.87762451171875	36219763.8288228
0.8809124231338501	40111795.533288896
0.8842192888259888	43826160.939246014
0.8875449895858765	46217548.006917514
0.8908893465995789	46646275.18071875
0.894252359867096	46663261.424370386
0.8976338505744934	50861732.95255675
0.9010337591171265	57641408.511447094
0.9044519662857056	62619209.58620473
0.9078882932662964	66553563.18316745
0.9113426208496094	70449480.7868331
0.914814829826355	74187607.8238624
0.9183048605918884	77766009.12059401
0.9218124747276306	80099559.99386008
0.925337553024292	77851405.53429885
0.9288799166679382	71560868.48732209
0.9324395060539246	69320337.07549416
0.9360161423683167	73849281.8122529
0.9396095871925354	80479787.80984282
0.943219780921936	85999567.26791085
0.9468464851379395	89321254.85700229
0.9504896402359009	92055315.87368643
0.9541489481925964	94432740.49726467
0.9578243494033813	94314143.40507267
0.9615156054496765	94372637.82139698
0.9652225375175476	97849512.3757299
0.9689450263977051	101386589.00033373
0.9726828336715698	102837281.01832592
0.9764357805252075	105909129.73915605
0.9802037477493286	111503680.91787326
0.983986496925354	118169202.12292415
0.9877838492393494	122855683.25231645
0.9915955662727356	121097896.47505191
0.9954215884208679	120175882.55525929
0.9992615580558777	125070603.35109375
1.0031154155731201	131004427.82548344
1.0069829225540161	137167639.89791894
1.0108637809753418	143997516.74670368
1.0147579908370972	149977292.8091256
1.018665075302124	155126521.93979892
1.022585153579712	159775146.55937025
1.0265177488327026	161789540.51643676
1.0304628610610962	163987169.52343258
1.0344202518463135	170118576.2389583
1.0383895635604858	177911855.78599975
1.0423706769943237	182517455.50109407
1.0463634729385376	178670934.9318115
1.0503677129745483	169118624.00824112
1.0543830394744873	161941000.86749783
1.058409333229065	160150335.06965134
1.0624464750289917	165387059.42747775
1.0664942264556885	173570601.9060934
1.0705522298812866	181235388.25789437
1.0746204853057861	192706684.77076095
1.0786986351013184	206962943.85436523
1.0827864408493042	218276505.21361476
1.086883783340454	221973429.21379712
1.0909905433654785	216284424.71398187
1.0951062440872192	203244453.96932533
1.0992310047149658	189440346.79228735
1.10336434841156	176849895.6990502
1.1075061559677124	164128920.04767787
1.1116561889648438	154330858.70414913
1.115814208984375	147974830.5580678
1.1199802160263062	147393775.9877062
1.124153733253479	155641035.86845672
1.1283347606658936	160608992.5669531
1.1325229406356812	147846761.7464745
1.1367181539535522	132498080.65957937
1.1409201622009277	133403180.80093758
1.145128846168518	147760147.53648034
1.1493438482284546	161682919.35375735
1.1535650491714478	162555577.00254443
1.1577922105789185	160444478.48662633
1.1620250940322876	160780961.1035973
1.1662636995315552	150520108.8523174
1.170507550239563	135534138.30725217
1.174756646156311	126422016.31365651
1.1790107488632202	133299287.56336878
1.1832695007324219	161555115.18557328
1.1875330209732056	187749502.88019997
1.191800832748413	200341883.0773154
1.1960728168487549	202468374.69632825
1.2003488540649414	203277165.54175565
1.2046287059783936	215332474.6155755
1.2089121341705322	229154076.5760968
1.2131990194320679	243077086.6771052
1.2174891233444214	258187764.4354312
1.2217823266983032	268889666.0271543
1.2260783910751343	285181987.73869413
1.230377197265625	299838089.6137738
1.2346785068511963	300244569.1418779
1.238982081413269	282818100.7396589
1.2432878017425537	260129275.29243055
1.2475954294204712	255484044.29999655
1.2519049644470215	255371233.44988072
1.256216049194336	270061098.2324043
1.2605286836624146	299012007.2942829
1.2648425102233887	316345693.47275776
1.2691574096679688	329037297.39275956
1.2734732627868652	335785572.57029575
1.2777899503707886	339719977.5359731
1.2821072340011597	339953229.8916097
1.2864248752593994	323878151.6488253
1.2907428741455078	305824059.90366715
1.2950609922409058	302806180.52619404
1.2993791103363037	307787407.7911572
1.303696870803833	310636136.339267
1.3080145120620728	307965919.79437435
1.3123314380645752	303436323.8748432
1.3166478872299194	294538965.00231224
1.3209635019302368	273705546.1923978
1.3252781629562378	240442741.22686663
1.3295916318893433	190017403.47621226
1.3339040279388428	127697309.74101438
1.3382149934768677	82547976.53233252
1.3425244092941284	62902111.65067117
1.3468321561813354	52838341.08215109
1.3511382341384888	44947580.87841286
1.3554422855377197	39032818.46257043
1.3597444295883179	36464913.05256888
1.3640443086624146	37341521.08138716
1.3683418035507202	38027640.89310267
1.3726370334625244	37297098.8631511
1.3769296407699585	38506547.61951954
1.381219506263733	40720420.642954886
1.3855066299438477	41825574.958236136
1.3897908926010132	41466995.956512146
1.3940720558166504	39482042.42703692
1.3983501195907593	37633538.01101718
1.4026249647140503	37063922.560184136
1.4068963527679443	35946329.13218501
1.4111642837524414	34831587.11154216
1.4154287576675415	34590648.076058626
1.419689416885376	33724551.94214381
1.4239463806152344	33256425.328281242
1.4281994104385376	34601069.3068407
1.4324485063552856	36893285.700839244
1.436693549156189	39095856.97686038
1.440934419631958	40671311.73757033
1.4451709985733032	42763619.05759041
1.449403166770935	47698396.16337829
1.453631043434143	53854241.0647056
1.4578542709350586	57475895.155582376
1.4620729684829712	58168965.62387535
1.4662868976593018	57722921.25295855
1.4704961776733398	57744647.679197855
1.4747005701065063	60391809.148033775
1.4788999557495117	64313229.8354017
1.4830944538116455	66923624.18291341
1.4872838258743286	69370369.31927937
1.491468071937561	71934048.03050889
1.4956470727920532	75253899.88255799
1.4998208284378052	78607489.97215165
1.5039892196655273	81196940.06759408
1.5081522464752197	85806236.45487145
1.5123097896575928	91938935.31619011
1.5164618492126465	96603088.56890695
1.5206083059310913	100344413.47143812
1.5247491598129272	104199361.02889639
1.5288842916488647	107931975.02442594
1.5330137014389038	112070324.33327922
1.5371372699737549	117597349.57424924
1.541254997253418	124031733.94502684
1.545366883277893	130437352.1028567
1.5494728088378906	136687042.87140557
1.5535727739334106	140091500.82898456
1.5576666593551636	139970522.9018795
1.561754584312439	142223386.02285275
1.5658363103866577	150355106.43179995
1.5699119567871094	160229538.38365433
1.5739814043045044	166550666.27447036
1.5780447721481323	168587084.3230137
1.582101821899414	171687993.23033684
1.5861525535583496	178251076.28307524
1.5901970863342285	183213276.12168768
1.5942351818084717	185751365.4370748
1.5982669591903687	185692419.55052215
1.6022924184799194	182284225.74722657
1.606311559677124	178109832.0921995
1.6103241443634033	172670215.2255354
1.6143304109573364	166382977.50369155
1.6183301210403442	160414001.37955028
1.6223233938217163	154517062.41683963
1.6263102293014526	149757802.33507916
1.6302905082702637	148780745.3813999
1.634264349937439	152891455.50094306
1.638231635093689	159530397.73189408
1.6421923637390137	165374236.63396055
1.646146535873413	170171357.87024787
1.6500942707061768	174339539.608396
1.6540353298187256	175754098.53135788
1.6579699516296387	173607344.0335895
1.661897897720337	167857541.56341267
1.6658192873001099	154517688.39575782
1.6697341203689575	139042646.6529322
1.6736423969268799	135662498.700843
1.677544116973877	145272865.8676475
1.6814392805099487	155115251.0490473
1.6853278875350952	156256148.192654
1.6892099380493164	150636148.88692492
1.6930854320526123	142154237.8152996
1.696954369544983	134705889.99399322
1.7008168697357178	132241172.74671963
1.7046726942062378	133503103.767312
1.708522081375122	133423361.09350708
1.712364912033081	128558347.76488103
1.7162011861801147	121416551.29342045
1.7200311422348022	116988345.44475332
1.723854422569275	114630542.3316491
1.7276713848114014	110044249.40823548
1.731481909751892	103711063.23180868
1.7352858781814575	98533039.17255892
1.7390835285186768	94885647.01000191
1.7428747415542603	92303403.95606029
1.7466596364974976	90086534.79272221
1.7504380941390991	88394978.32160465
1.7542102336883545	86188015.48043352
1.7579760551452637	82581115.27768525
1.7617355585098267	79341118.24576934
1.7654887437820435	75652566.61615436
1.7692357301712036	69438831.0616252
1.7729763984680176	64874015.3803128
1.776710867881775	63906172.45372632
1.7804391384124756	62779373.16492272
1.7841613292694092	59482196.26331432
1.7878772020339966	55401843.01607929
1.7915871143341064	53093576.118367046
1.7952908277511597	52093149.759092
1.7989884614944458	50852623.928826444
1.8026801347732544	49106564.76363154
1.806365728378296	47539052.62203597
1.8100452423095703	48565393.32713429
1.8137187957763672	50843149.5570368
1.817386507987976	49247795.1850383
1.8210482597351074	47400920.74318713
1.8247040510177612	47922194.17443627
1.828354001045227	47399263.82597948
1.8319982290267944	46057185.61250243
1.8356364965438843	44577806.668365866
1.8392690420150757	43353005.35398496
1.8428958654403687	41466198.77531644
1.8465168476104736	39910014.416970834
1.8501322269439697	40131358.936835825
1.8537418842315674	39293082.15043187
1.8573459386825562	36586455.37918822
1.860944390296936	34150543.95422401
1.864537239074707	34375558.77551722
1.8681244850158691	37162513.69809206
1.871706247329712	39482158.60439604
1.8752825260162354	40146863.60494553
1.8788533210754395	42024676.448204935
1.8824186325073242	45655828.241703555
1.8859784603118896	47638280.6908825
1.8895330429077148	47337884.400827035
1.8930821418762207	47367500.89364399
1.8966259956359863	48596031.86702692
1.9001644849777222	49357563.4719238
1.9036977291107178	49690748.77272914
1.9072256088256836	50117623.45678877
1.9107483625411987	51496197.09467953
1.9142658710479736	53670277.653575584
1.9177782535552979	52949566.462973
1.9212853908538818	49954813.461401045
1.9247875213623047	49172765.3699045
1.9282845258712769	49449061.63674061
1.9317764043807983	48203423.53130526
1.9352631568908691	46036767.305078134
1.9387450218200684	42992454.39371526
1.942221760749817	42569792.89013267
1.9456936120986938	45712974.31052197
1.9491604566574097	47880540.921179354
1.952622413635254	46991229.03593616
1.956079363822937	45341513.92830951
1.959531545639038	46003870.57199503
1.962978720664978	46712361.95696284
1.966421127319336	46784616.40243985
1.9698586463928223	47676190.07356884
1.9732913970947266	48108481.218593255
1.9767193794250488	48765265.14248634
1.9801424741744995	49406194.83415476
1.9835609197616577	49528797.18889686
1.9869745969772339	49486968.52823013
1.990383505821228	49164792.60798964
1.9937876462936401	50712201.23389412
1.9971871376037598	52468454.066293985
2.000581979751587	52831221.31356036
2.003972291946411	53306289.05747511
2.007357597351074	53916583.6719148
2.0107386112213135	55112648.44234978
2.0141148567199707	56292163.029042885
2.017486572265625	56718681.32682425
2.0208535194396973	58602912.43089448
2.0242159366607666	60937984.042203225
2.027573823928833	61478916.8451444
2.0309269428253174	61933888.670113966
2.034275770187378	63122983.92317405
2.0376198291778564	64810504.16879
2.040959596633911	66581874.50532905
2.044294595718384	68105322.10014144
2.0476250648498535	69273650.05052824
2.0509510040283203	69711154.29396163
2.054272413253784	70336270.94657685
2.057589530944824	72211183.5064663
2.0609018802642822	73532539.91655533
2.0642096996307373	73690956.88766594
2.0675129890441895	75094880.54748696
2.0708119869232178	76806207.68974307
2.074106216430664	77206010.56642418
2.0773961544036865	77500829.10805242
2.080681324005127	78069649.3340668
2.0839622020721436	78414397.03618646
2.087238311767578	78980537.81498004
2.090510129928589	79955137.6349229
2.0937774181365967	80485327.28224917
2.0970399379730225	80505889.65903194
2.1002981662750244	80625495.68130407
2.1035518646240234	80768776.20939608
2.1068007946014404	80628430.96184357
2.1100454330444336	80527345.41705967
2.1132853031158447	80441112.59499466
2.116520881652832	80164863.81923307
2.1197516918182373	80043715.84079021
2.1229779720306396	79865016.54548128
2.12619948387146	79053030.92976001
2.1294167041778564	77951003.09374204
2.132629156112671	77365711.00673601
2.1358368396759033	76779286.39038005
2.139039993286133	75601521.03432716
2.1422386169433594	74541557.13943474
2.145432472229004	73591304.54108313
2.1486217975616455	72282302.39740662
2.151806354522705	70818322.0713987
2.1549863815307617	69339840.09989204
2.1581614017486572	67711827.6014625
2.16133189201355	65903853.035779804
2.1644976139068604	64121750.49317087
2.167658567428589	62474868.451202035
2.1708147525787354	60826376.24104098
2.173966407775879	59053890.91948683
2.1771130561828613	57237577.7292527
2.1802549362182617	55278906.315744735
2.183391809463501	52680724.19453992
2.1865241527557373	49448321.52895531
2.1896514892578125	45903964.7948631
2.1927738189697266	41730690.66742556
2.1958916187286377	36543872.29385643
2.1990041732788086	30754795.356029928
2.2021119594573975	25688294.442492303
2.2052149772644043	22724394.299180612
2.208312749862671	22345677.15061401
2.2114057540893555	23840984.490702964
2.214493751525879	25941584.253693383
2.217576742172241	27687654.205431454
2.2206547260284424	28697892.305085223
2.2237277030944824	28892194.28510035
2.2267956733703613	28152657.46195475
2.2298583984375	26823128.97458214
2.2329163551330566	25526056.97362392
2.235969066619873	24328842.551114857
2.2390167713165283	23089330.708106123
2.2420592308044434	21936491.63555735
2.2450966835021973	20974902.072539095
2.248128890991211	20148543.578054234
2.2511560916900635	19333723.101404067
2.254178285598755	18593075.2984535
2.257194995880127	18194295.914692342
2.260206699371338	18068527.39299336
2.2632133960723877	17858502.031279154
2.266214609146118	17396461.66401488
2.2692108154296875	16794324.102905985
2.2722020149230957	16332555.108237647
2.2751877307891846	16024439.045984518
2.278168201446533	15599338.326312084
2.2811436653137207	14956133.03436225
2.284113883972168	14169640.730298715
2.287078857421875	13355115.621392004
2.290038824081421	12626201.48449189
2.2929933071136475	12091754.00244527
2.295942783355713	11954453.353527272
2.298887014389038	12468985.344162006
2.301826238632202	13704274.05266492
2.304760217666626	15504471.872543676
2.3076889514923096	17469433.21698071
2.310612440109253	18836968.563474637
2.3135311603546143	18439887.25715084
2.3164443969726562	16183716.110170344
2.319352865219116	13697238.962111903
2.322256088256836	12010735.948896073
2.3251543045043945	10992461.523874022
2.328047275543213	10323924.954235746
2.330935478210449	9737456.633030884
2.3338186740875244	9290254.865195455
2.3366971015930176	9188843.183953583
2.3395702838897705	9388867.270966122
2.3424389362335205	9728143.105430488
2.3453025817871094	10110718.111796718
2.348161458969116	10509660.806597147
2.351015567779541	11015812.801705422
2.353865146636963	11679956.486632261
2.3567099571228027	12369263.576007027
2.3595502376556396	13014310.108650697
2.3623859882354736	13772202.28004789
2.3652172088623047	14475236.177140059
2.368043899536133	14204229.47498597
2.370866537094116	12640400.61320792
2.3736846446990967	10890578.263521781
2.3764986991882324	9839944.059137262
2.3793084621429443	9551208.499138461
2.3821144104003906	9925709.966059204
2.384916305541992	10799682.940268591
2.387714147567749	11979947.349269276
2.3905084133148193	13196669.776571896
2.393299102783203	14252921.390450437
2.3960859775543213	15119717.367178418
2.398869514465332	15799281.797061218
2.4016497135162354	16308400.04290834
2.4044265747070312	16676767.536759911
2.407200336456299	16981042.078676857
2.409970998764038	17264079.542455398
2.4127390384674072	17384693.235988755
2.415503978729248	17203800.198841102
2.418266534805298	16941391.292528853
2.4210267066955566	16929803.86836317
2.4237842559814453	17145608.37006505
2.426539897918701	17392968.616871003
2.429293394088745	17484961.83923665
2.4320452213287354	17190500.388642296
2.4347951412200928	16681816.316662788
2.4375438690185547	16625651.450232048
2.440291166305542	17200523.802247666
2.443037271499634	17857398.179564573
2.445782423019409	18224336.548596114
2.4485268592834473	18305928.489242725
2.451270818710327	18179660.97115823
2.454014539718628	18139777.401441045
2.4567582607269287	18503472.000257317
2.4595019817352295	19104059.31716508
2.4622461795806885	19564408.403242026
2.4649908542633057	19770431.52653534
2.4677364826202393	19722460.939224385
2.4704833030700684	19509233.171032574
2.473231554031372	19424784.166662883
2.4759814739227295	19643936.02053315
2.4787333011627197	20108593.610670194
2.481487512588501	20703996.88092439
