#wavelength	surface_flux
0.6450077295303345	40926.564810934105
0.6472567915916443	64921.255692896026
0.6494921445846558	85719.13930855194
0.6517150402069092	99980.208216461
0.6539263725280762	115633.25087456388
0.6561272740364075	133273.41711185948
0.6583186388015747	152689.9863777031
0.6605015397071838	173917.8718801203
0.6626768708229065	197641.075905099
0.6648455858230591	223388.48445720156
0.6670085787773132	243702.42367805826
0.6691668033599854	240106.9709859972
0.6713210344314575	242552.8659190099
0.6734722256660461	303775.1596546104
0.6756211519241333	380685.8250602216
0.6777685880661011	429898.9572860577
0.6799154281616211	469195.1173026689
0.6820623278617859	506439.5870428156
0.6842101216316223	539856.9916504965
0.6863595843315125	563677.8364935403
0.688511312007904	572507.5885203305
0.6906660795211792	569148.4506886653
0.6928245425224304	565582.0417283406
0.6949873566627502	571619.2800112375
0.6971551775932312	589790.3839711501
0.6993286609649658	619583.5606162858
0.7015084028244019	657112.6694220819
0.7036949396133423	695473.0045167371
0.7058889269828796	729463.894719289
0.7080909013748169	759826.9005874713
0.710301399230957	791163.5801764196
0.712520956993103	821924.8424659439
0.7147500514984131	842302.3573010839
0.7169892191886902	849084.4114905053
0.7192389369010925	850837.4844016595
0.7214996814727783	849057.348956089
0.723771870136261	839067.2123196324
0.7260559797286987	822521.3675287957
0.7283523678779602	801743.4417529189
0.7306615710258484	773781.2037502943
0.7329838871955872	738639.6412659383
0.7353196740150452	703331.5320403642
0.7376693487167358	668647.1445233364
0.7400332689285278	627703.4449912199
0.7424117922782898	584461.9343597867
0.7448052167892456	545897.0987280093
0.7472138404846191	505262.49005812913
0.7496379613876343	454021.7603259836
0.7520779371261597	397046.5082422915
0.7545340061187744	340103.26386738487
0.7570064663887024	282838.8366923911
0.7594954967498779	224822.4722068741
0.7620013952255249	154729.3068202208
0.7645244002342224	74734.9529879771
0.7670646905899048	21317.992193776034
0.7696225643157959	12515.41938106304
0.7721980810165405	47251.979387337444
0.7747915983200073	137755.41240896762
0.7774031162261963	246536.34496335936
0.7800329327583313	341284.10158108996
0.7826811671257019	485427.5238003888
0.7853479981422424	671590.9748758816
0.7880334854125977	842924.0562167524
0.7907378077507019	982175.8743039666
0.7934610247612	1052520.4864944236
0.7962033748626709	1214259.372736681
0.7989648580551147	1568309.930526798
0.801745593547821	1917428.358474411
0.8045456409454346	2201349.2447278393
0.8073651194572449	2483252.626126869
0.8102040886878967	2778395.8926115376
0.8130625486373901	3097597.3716041027
0.8159406185150146	3447001.0090135233
0.8188382983207703	3830330.489782825
0.8217556476593018	4240440.829835606
0.8246926665306091	4691606.623330241
0.8276493549346924	5186688.121164673
0.8306257724761963	5688871.17617304
0.8336219191551208	6195370.294514416
0.8366377949714661	6748253.881486202
0.8396733403205872	7369875.366607263
0.8427285552024841	8036092.018249574
0.8458034992218018	8701775.600207644
0.8488980531692505	9132497.133475536
0.8520121574401855	9449067.590814173
0.8551458716392517	10505353.939377068
0.8582990765571594	11974945.631267287
0.8614717125892639	13103451.551518798
0.8646637797355652	14116941.96795795
0.8678751587867737	15167164.027253233
0.8711057901382446	16294697.038416067
0.8743556141853333	17525862.790167347
0.87762451171875	19003125.011834573
0.8809124231338501	20923198.437558588
0.8842192888259888	22875777.530335594
0.8875449895858765	24181130.12349151
0.8908893465995789	24339308.22035036
0.894252359867096	24252075.589700416
0.8976338505744934	26455015.212718222
0.9010337591171265	30327723.569436874
0.9044519662857056	33710809.222511314
0.9078882932662964	36384635.36513021
0.9113426208496094	38672903.61039914
0.914814829826355	40942148.952315584
0.9183048605918884	43521300.94647222
0.9218124747276306	46650746.49827589
0.925337553024292	47690611.94340461
0.9288799166679382	45076018.10928088
0.9324395060539246	44531894.893551774
0.9360161423683167	49147578.12593235
0.9396095871925354	55513214.345318235
0.943219780921936	60164994.29109946
0.9468464851379395	62339430.04128845
0.9504896402359009	64392537.07143411
0.9541489481925964	66851117.93276871
0.9578243494033813	68391081.328149
0.9615156054496765	70154508.38646734
0.9652225375175476	73731155.2906027
0.9689450263977051	77744533.61740096
0.9726828336715698	81003038.26849307
0.9764357805252075	85138351.95047314
0.9802037477493286	90997325.8001228
0.983986496925354	98128350.80916886
0.9877838492393494	105144197.6182022
0.9915955662727356	109714375.62379311
0.9954215884208679	113869532.75921014
0.9992615580558777	119642326.89007688
1.0031154155731201	125338281.74973364
1.0069829225540161	130861049.00571558
1.0108637809753418	136930623.34099117
1.0147579908370972	143040679.8371817
1.018665075302124	149046065.9029535
1.022585153579712	154991381.87600526
1.0265177488327026	160040046.27707186
1.0304628610610962	164643823.47352457
1.0344202518463135	169804389.782856
1.0383895635604858	174902774.2899195
1.0423706769943237	177493186.07416594
1.0463634729385376	174288806.9826094
1.0503677129745483	167749495.81093717
1.0543830394744873	163069123.49684027
1.058409333229065	162152728.7648103
1.0624464750289917	167175056.01119083
1.0664942264556885	174960567.93035814
1.0705522298812866	181358835.9898274
1.0746204853057861	188529412.8146422
1.0786986351013184	196711531.66090754
1.0827864408493042	202752048.41913855
1.086883783340454	201894140.14483067
1.0909905433654785	191079647.05510288
1.0951062440872192	174212130.82921144
1.0992310047149658	159049882.84141624
1.10336434841156	146856932.9194266
1.1075061559677124	134289402.4657064
1.1116561889648438	121721093.78447448
1.115814208984375	112237876.97376451
1.1199802160263062	110168873.22213885
1.124153733253479	116526815.01271492
1.1283347606658936	119779773.93076678
1.1325229406356812	108033666.06262499
1.1367181539535522	96093279.75891246
1.1409201622009277	97966861.65123263
1.145128846168518	107274821.76067834
1.1493438482284546	114182717.72322416
1.1535650491714478	111011319.08698685
1.1577922105789185	106664061.43981524
1.1620250940322876	107034437.24858287
1.1662636995315552	101353225.10006389
1.170507550239563	90011250.69175981
1.174756646156311	82608908.1459865
1.1790107488632202	91823867.3895713
1.1832695007324219	120247374.97785269
1.1875330209732056	146362333.89347827
1.191800832748413	160903666.1792959
1.1960728168487549	168244566.8499611
1.2003488540649414	174692881.46524838
1.2046287059783936	187279273.65974662
1.2089121341705322	200493138.91638947
1.2131990194320679	213632677.30285028
1.2174891233444214	227371454.56876743
1.2217823266983032	237706388.68788117
1.2260783910751343	250244306.36176667
1.230377197265625	261112663.4633652
1.2346785068511963	262940527.18467715
1.238982081413269	252194112.19265914
1.2432878017425537	235661234.21666852
1.2475954294204712	230391727.47778204
1.2519049644470215	228663545.50217137
1.256216049194336	244831545.99897087
1.2605286836624146	275600423.42761564
1.2648425102233887	290634913.10099685
1.2691574096679688	296965540.1410174
1.2734732627868652	299012859.83965325
1.2777899503707886	298000772.97443366
1.2821072340011597	294062309.7275081
1.2864248752593994	281703043.35655814
1.2907428741455078	268169095.45046926
1.2950609922409058	262341812.38283783
1.2993791103363037	260962442.72517392
1.303696870803833	259404911.44088614
1.3080145120620728	255597759.93261805
1.3123314380645752	248858174.71685514
1.3166478872299194	237550246.16890407
1.3209635019302368	218680993.32936648
1.3252781629562378	188990311.58279034
1.3295916318893433	143020124.54309267
1.3339040279388428	88665349.91431837
1.3382149934768677	51436808.68638371
1.3425244092941284	36407301.214168645
1.3468321561813354	28964148.962189186
1.3511382341384888	23308824.943329588
1.3554422855377197	19412705.59726475
1.3597444295883179	17844146.245879598
1.3640443086624146	18854887.42230301
1.3683418035507202	19960437.010593276
1.3726370334625244	20012930.042720698
1.3769296407699585	20896962.64387219
1.381219506263733	21866278.431918025
1.3855066299438477	22081668.794862695
1.3897908926010132	21756787.90234894
1.3940720558166504	20504174.135660976
1.3983501195907593	19423350.88524
1.4026249647140503	19464112.812972713
1.4068963527679443	19303173.51762872
1.4111642837524414	19083634.921894234
1.4154287576675415	19386399.499244742
1.419689416885376	19092009.956346028
1.4239463806152344	18967054.911238156
1.4281994104385376	20351978.041603357
1.4324485063552856	22458365.051427044
1.436693549156189	24219057.65464537
1.440934419631958	25394375.428072006
1.4451709985733032	27141547.071769956
1.449403166770935	31233768.038944587
1.453631043434143	36310493.104192436
1.4578542709350586	39530043.48935993
1.4620729684829712	40492597.64779508
1.4662868976593018	40506263.17864073
1.4704961776733398	40804700.05782766
1.4747005701065063	43171511.990869105
1.4788999557495117	46647641.78824557
1.4830944538116455	48870084.39817503
1.4872838258743286	50812261.50423105
1.491468071937561	53145329.563223176
1.4956470727920532	56243939.76845772
1.4998208284378052	59374241.69459345
1.5039892196655273	62094202.381599054
1.5081522464752197	66384013.20258884
1.5123097896575928	71593253.11303379
1.5164618492126465	75682378.11574742
1.5206083059310913	79573491.81160161
1.5247491598129272	83788511.2890831
1.5288842916488647	87640453.70944072
1.5330137014389038	92024281.95474695
1.5371372699737549	97658303.93514231
1.541254997253418	103584972.8175003
1.545366883277893	109300607.98806396
1.5494728088378906	115004453.5991678
1.5535727739334106	118467582.6513287
1.5576666593551636	119106355.42854293
1.561754584312439	121166631.69013114
1.5658363103866577	127239905.96262814
1.5699119567871094	134521044.39120787
1.5739814043045044	138964037.77066812
1.5780447721481323	139965092.19947994
1.582101821899414	141176055.55238363
1.5861525535583496	144028331.18248746
1.5901970863342285	144887408.81872383
1.5942351818084717	142916343.97019118
1.5982669591903687	137877224.58675054
1.6022924184799194	128981988.8503933
1.606311559677124	118524272.78786987
1.6103241443634033	107725306.55205503
1.6143304109573364	97110013.91785593
1.6183301210403442	87841704.55459332
1.6223233938217163	80124262.28218426
1.6263102293014526	73837958.07512893
1.6302905082702637	71403202.81416202
1.634264349937439	74129810.72073705
1.638231635093689	79187260.41851047
1.6421923637390137	83621868.68279156
1.646146535873413	86776259.35451567
1.6500942707061768	89459664.18160582
1.6540353298187256	90086697.17264916
1.6579699516296387	87666187.70366445
1.661897897720337	82226024.55703662
1.6658192873001099	69974079.7235505
1.6697341203689575	56193972.8253006
1.6736423969268799	52870348.769655466
1.677544116973877	59857594.45951631
1.6814392805099487	67279421.11673383
1.6853278875350952	68751386.63583054
1.6892099380493164	65610558.09198975
1.6930854320526123	60873675.09663714
1.696954369544983	57138927.54960329
1.7008168697357178	56668761.92469413
1.7046726942062378	59770214.804212935
1.708522081375122	63098243.11230181
1.712364912033081	62707863.16509114
1.7162011861801147	60627528.84283177
1.7200311422348022	60479960.44027788
1.723854422569275	60406770.504037805
1.7276713848114014	57592247.438252665
1.731481909751892	53527134.41495735
1.7352858781814575	50441519.09319631
1.7390835285186768	48767322.41579425
1.7428747415542603	48454798.47389183
1.7466596364974976	48481480.05518654
1.7504380941390991	48325912.05799977
1.7542102336883545	47509931.555591956
1.7579760551452637	45627515.701142885
1.7617355585098267	43786142.53542755
1.7654887437820435	41698731.05432531
1.7692357301712036	38291045.721639924
1.7729763984680176	35894907.91702805
1.776710867881775	35723310.62433699
1.7804391384124756	35457984.568974644
1.7841613292694092	33600728.84538516
1.7878772020339966	31111177.038954943
1.7915871143341064	29573162.8651065
1.7952908277511597	28840087.70245282
1.7989884614944458	28365739.12617708
1.8026801347732544	27858594.370270852
1.806365728378296	27339815.57263614
1.8100452423095703	28340763.091521174
1.8137187957763672	29892073.689416114
1.817386507987976	28775347.059692983
1.8210482597351074	27840767.433552183
1.8247040510177612	28489523.79719666
1.828354001045227	28034959.87294785
1.8319982290267944	27073844.21745712
1.8356364965438843	26097486.276390955
1.8392690420150757	25337486.770581722
1.8428958654403687	24463136.191475727
1.8465168476104736	23854434.717232764
1.8501322269439697	24176915.147635415
1.8537418842315674	23633916.139154423
1.8573459386825562	21840976.51366273
1.860944390296936	20121396.311204243
1.864537239074707	19981888.84678081
1.8681244850158691	21560260.938077487
1.871706247329712	23235904.96529208
1.8752825260162354	24404502.861234568
1.8788533210754395	26583540.122403003
1.8824186325073242	29482315.809703697
1.8859784603118896	30827971.00254708
1.8895330429077148	30956554.97508025
1.8930821418762207	31839189.105104066
1.8966259956359863	33068735.559326813
1.9001644849777222	33156207.903417703
1.9036977291107178	33015004.396905605
1.9072256088256836	33292008.516614955
1.9107483625411987	34372814.58258766
1.9142658710479736	36117645.56344738
1.9177782535552979	35722223.79569325
1.9212853908538818	33213431.321833566
1.9247875213623047	32125468.13963522
1.9282845258712769	31997658.503368627
1.9317764043807983	30903286.617598377
1.9352631568908691	29216813.776419822
1.9387450218200684	26899741.926027175
1.942221760749817	26732184.88864965
1.9456936120986938	29293180.496822983
1.9491604566574097	31175541.259790815
1.952622413635254	30772776.262597714
1.956079363822937	29614648.26218829
1.959531545639038	30185867.62951355
1.962978720664978	30951185.108906202
1.966421127319336	31348424.94465176
1.9698586463928223	32211174.556637682
1.9732913970947266	32673896.92894406
1.9767193794250488	33488902.667281855
1.9801424741744995	34370420.2694135
1.9835609197616577	34951322.66785591
1.9869745969772339	35239384.73010647
1.990383505821228	34947979.96998694
1.9937876462936401	36180373.4352329
1.9971871376037598	37879756.031930186
2.000581979751587	38601406.32662075
2.003972291946411	39241984.91865468
2.007357597351074	39706662.65175601
2.0107386112213135	40625297.778117195
2.0141148567199707	41678518.26489828
2.017486572265625	42178796.1668924
2.0208535194396973	43937233.861171566
2.0242159366607666	45970007.92299758
2.027573823928833	46251118.79532748
2.0309269428253174	46520814.20461963
2.034275770187378	47682120.86805442
2.0376198291778564	49177812.383214265
2.040959596633911	50548249.78000224
2.044294595718384	51719859.751348086
2.0476250648498535	52601640.57379884
2.0509510040283203	52921610.413436934
2.054272413253784	53476197.609380275
2.057589530944824	54979656.45827767
2.0609018802642822	55995564.831992716
2.0642096996307373	56019786.16877469
2.0675129890441895	56777439.350678705
2.0708119869232178	57771955.58951947
2.074106216430664	57841715.4931265
2.0773961544036865	57780198.11518368
2.080681324005127	57996820.11038915
2.0839622020721436	58116937.65684313
2.087238311767578	58334145.685627565
2.090510129928589	58678278.752787285
2.0937774181365967	58523432.78233686
2.0970399379730225	58008598.61035823
2.1002981662750244	57632258.02224086
2.1035518646240234	57301418.568798475
2.1068007946014404	56784809.63444303
2.1100454330444336	56183239.71612353
2.1132853031158447	55531107.745184176
2.116520881652832	54843342.732262105
2.1197516918182373	54302219.169513
2.1229779720306396	53690020.03093808
2.12619948387146	52648149.67021194
2.1294167041778564	51409359.570100605
2.132629156112671	50461604.67288638
2.1358368396759033	49521627.006142415
2.139039993286133	48249364.54590004
2.1422386169433594	47037513.88926206
2.145432472229004	45909937.51065617
2.1486217975616455	44656818.40258824
2.151806354522705	43370295.34043644
2.1549863815307617	41983462.61828039
2.1581614017486572	40362893.48440624
2.16133189201355	38605579.39288771
2.1644976139068604	36959216.32712768
2.167658567428589	35587145.168884516
2.1708147525787354	34397712.597301036
2.173966407775879	33152351.514164157
2.1771130561828613	31797800.027795404
2.1802549362182617	30289391.34136434
2.183391809463501	28315906.470866535
2.1865241527557373	25867167.63989554
2.1896514892578125	23207901.219589353
2.1927738189697266	20291038.2338201
2.1958916187286377	16927988.467186593
2.1990041732788086	13372336.040321672
2.2021119594573975	10561814.434548425
2.2052149772644043	9235907.14511909
2.208312749862671	9324986.268448351
2.2114057540893555	10277765.043827714
2.214493751525879	11470659.246634355
2.217576742172241	12469472.751307845
2.2206547260284424	13021979.072824178
2.2237277030944824	13020173.904123243
2.2267956733703613	12488488.11297171
2.2298583984375	11711845.323295334
2.2329163551330566	11022164.695803594
2.235969066619873	10375645.919037197
2.2390167713165283	9676139.720866263
2.2420592308044434	9085890.55443027
2.2450966835021973	8669814.2626771
2.248128890991211	8318701.166238714
2.2511560916900635	7943360.000772502
2.254178285598755	7592170.97343427
2.257194995880127	7421593.8885690225
2.260206699371338	7414228.1460470185
2.2632133960723877	7386859.74012479
2.266214609146118	7217470.980275911
2.2692108154296875	6949144.866899585
2.2722020149230957	6768824.999495951
2.2751877307891846	6697452.398889116
2.278168201446533	6565543.089245403
2.2811436653137207	6309114.987219623
2.284113883972168	5968527.460375542
2.287078857421875	5598272.549704871
2.290038824081421	5284176.475621732
2.2929933071136475	5144658.459688896
2.295942783355713	5246944.2333051935
2.298887014389038	5606682.82893399
2.301826238632202	6277962.416813119
2.304760217666626	7288981.721013506
2.3076889514923096	8487872.137697648
2.310612440109253	9403909.681418573
2.3135311603546143	9173644.227965161
2.3164443969726562	7708963.855564001
2.319352865219116	6210726.793786167
2.322256088256836	5372994.330031727
2.3251543045043945	4969886.958426131
2.328047275543213	4726725.715169456
2.330935478210449	4482625.989766308
2.3338186740875244	4274875.347778541
2.3366971015930176	4227414.385926743
2.3395702838897705	4313920.875979086
2.3424389362335205	4444529.067396656
2.3453025817871094	4589134.252455398
2.348161458969116	4758402.160730918
2.351015567779541	5008023.692805593
2.353865146636963	5364444.875346158
2.3567099571228027	5751177.043032138
2.3595502376556396	6124623.505388713
2.3623859882354736	6562024.318741816
2.3652172088623047	6953327.567250516
2.368043899536133	6760523.39823149
2.370866537094116	5820472.700066259
2.3736846446990967	4845986.221092506
2.3764986991882324	4372168.106724652
2.3793084621429443	4347767.950603882
2.3821144104003906	4646552.745160443
2.384916305541992	5168504.213736922
2.387714147567749	5813066.641525017
2.3905084133148193	6450770.83573589
2.393299102783203	6991692.222600714
2.3960859775543213	7435629.520969827
2.398869514465332	7796861.494931609
2.4016497135162354	8093024.570707392
2.4044265747070312	8344489.769621158
2.407200336456299	8584040.942137608
2.409970998764038	8818113.919076687
2.4127390384674072	8931334.764839554
2.415503978729248	8813381.883167772
2.418266534805298	8622988.638607357
2.4210267066955566	8604298.065388987
2.4237842559814453	8752941.171165561
2.426539897918701	8946728.672102084
2.429293394088745	9059109.53713069
2.4320452213287354	8926551.560407769
2.4347951412200928	8654404.736869412
2.4375438690185547	8672694.161177997
2.440291166305542	9092082.940183261
2.443037271499634	9543902.130688027
2.445782423019409	9786781.044204956
2.4485268592834473	9860071.333962584
2.451270818710327	9841459.101594489
2.454014539718628	9891602.577429961
2.4567582607269287	10176392.891352892
2.4595019817352295	10588330.46609835
2.4622461795806885	10897563.273241464
2.4649908542633057	11044192.197773743
2.4677364826202393	11050042.162633855
2.4704833030700684	10973116.112928119
2.473231554031372	10974817.433046333
2.4759814739227295	11156466.631518904
2.4787333011627197	11509873.479721617
2.481487512588501	11983248.547778502
