#wavelength	surface flux
0.6450077295303345	60451.03061217342
0.6472567915916443	93606.60051559056
0.6494921445846558	118770.96315038725
0.6517150402069092	131421.70338018282
0.6539263725280762	143035.2800364835
0.6561272740364075	154771.20470409677
0.6583186388015747	168012.15254426608
0.6605015397071838	182804.3174016811
0.6626768708229065	197971.9222993045
0.6648455858230591	213166.30530449547
0.6670085787773132	220800.8259461479
0.6691668033599854	203098.00750976978
0.6713210344314575	190928.04845191812
0.6734722256660461	234962.75366127305
0.6756211519241333	294005.6281680014
0.6777685880661011	327229.3210991202
0.6799154281616211	351280.96139015106
0.6820623278617859	374415.40492371115
0.6842101216316223	397401.3927922697
0.6863595843315125	415932.2113775255
0.688511312007904	421913.2657110104
0.6906660795211792	416533.30294040276
0.6928245425224304	418427.5922604004
0.6949873566627502	454899.56377551745
0.6971551775932312	506360.09396818443
0.6993286609649658	534233.5619583569
0.7015084028244019	548931.953480631
0.7036949396133423	566534.2172277692
0.7058889269828796	586040.7425881537
0.7080909013748169	600252.7788769291
0.710301399230957	610229.0468006851
0.712520956993103	615311.3565389806
0.7147500514984131	581091.7582767882
0.7169892191886902	515290.9207736126
0.7192389369010925	505147.2002073585
0.7214996814727783	541531.0194019075
0.723771870136261	549557.7917780839
0.7260559797286987	540956.0725444955
0.7283523678779602	538440.5920805371
0.7306615710258484	531715.225969858
0.7329838871955872	538487.535585403
0.7353196740150452	547740.285910696
0.7376693487167358	540343.9482404738
0.7400332689285278	535541.0567643418
0.7424117922782898	528428.0558958309
0.7448052167892456	515645.820491681
0.7472138404846191	498055.69136670575
0.7496379613876343	470790.32611206174
0.7520779371261597	435416.7333112782
0.7545340061187744	395003.98614341737
0.7570064663887024	348597.77116407565
0.7594954967498779	295332.7121423908
0.7620013952255249	229383.87208516613
0.7645244002342224	148252.1429677332
0.7670646905899048	85771.34821882959
0.7696225643157959	83342.97011119932
0.7721980810165405	143247.51280365835
0.7747915983200073	205978.59336743635
0.7774031162261963	181673.98238976946
0.7800329327583313	127522.21626367458
0.7826811671257019	229156.5857973288
0.7853479981422424	468730.53081549314
0.7880334854125977	651733.1762496232
0.7907378077507019	638825.714839925
0.7934610247612	437297.4385042544
0.7962033748626709	423304.20287234575
0.7989648580551147	829212.0477981621
0.801745593547821	1303602.3636427084
0.8045456409454346	1575593.6721642234
0.8073651194572449	1634052.846444228
0.8102040886878967	1517068.9145165416
0.8130625486373901	1400776.9362045492
0.8159406185150146	1523938.2018570248
0.8188382983207703	1814197.6389418454
0.8217556476593018	1998691.3876729575
0.8246926665306091	2224593.446187361
0.8276493549346924	2521272.0517456974
0.8306257724761963	2668810.3370983587
0.8336219191551208	2820944.2047474915
0.8366377949714661	3057844.319784331
0.8396733403205872	3357817.122509247
0.8427285552024841	3787078.038338723
0.8458034992218018	4131664.1939790025
0.8488980531692505	3920501.5632152455
0.8520121574401855	3541314.5339911804
0.8551458716392517	4373216.2292594565
0.8582990765571594	5436123.308496351
0.8614717125892639	4729921.339092941
0.8646637797355652	3572191.373562572
0.8678751587867737	3496740.1457172013
0.8711057901382446	3874706.644825473
0.8743556141853333	4206140.568564963
0.87762451171875	4575480.798901968
0.8809124231338501	5001832.257632402
0.8842192888259888	5448390.381171971
0.8875449895858765	5563905.189257109
0.8908893465995789	4585431.938058615
0.894252359867096	3169315.9480728675
0.8976338505744934	3157119.188975373
0.9010337591171265	4556863.893225571
0.9044519662857056	5992561.591489552
0.9078882932662964	6399890.736877839
0.9113426208496094	6157034.100409799
0.914814829826355	5835399.729594292
0.9183048605918884	5705969.397533779
0.9218124747276306	5691221.693459685
0.925337553024292	4106875.5738686826
0.9288799166679382	1568706.7790777248
0.9324395060539246	403700.8051937312
0.9360161423683167	470072.3946273545
0.9396095871925354	848130.9550342426
0.943219780921936	1086518.0667801157
0.9468464851379395	949347.2459990025
0.9504896402359009	709400.9089358897
0.9541489481925964	620921.326986436
0.9578243494033813	609695.2017997245
0.9615156054496765	704259.2564541221
0.9652225375175476	1109964.3171760158
0.9689450263977051	1657061.3838244027
0.9726828336715698	1923001.5353823334
0.9764357805252075	2063679.8476533534
0.9802037477493286	2498040.257750645
0.983986496925354	3205817.1616189633
0.9877838492393494	4064270.825877721
0.9915955662727356	5036856.886557202
0.9954215884208679	6366298.352349532
0.9992615580558777	8204306.8865094995
1.0031154155731201	10134004.19940088
1.0069829225540161	12003166.17686726
1.0108637809753418	14246420.997607274
1.0147579908370972	16837733.463653408
1.018665075302124	19273091.80372519
1.022585153579712	21569741.76033813
1.0265177488327026	23739181.23371783
1.0304628610610962	25792405.572679583
1.0344202518463135	28850621.673022605
1.0383895635604858	31953244.945574176
1.0423706769943237	32913184.163097166
1.0463634729385376	32760115.994156476
1.0503677129745483	33051272.81745119
1.0543830394744873	33746801.45458616
1.058409333229065	34229386.16443023
1.0624464750289917	34703155.29598884
1.0664942264556885	35065212.61829766
1.0705522298812866	34982017.32635737
1.0746204853057861	34971337.04138781
1.0786986351013184	34832182.31479664
1.0827864408493042	32918620.68071281
1.086883783340454	26188503.249107238
1.0909905433654785	16115946.35156222
1.0951062440872192	8160359.1785495635
1.0992310047149658	3938212.5532242265
1.10336434841156	1942109.3062836875
1.1075061559677124	1026404.7397798756
1.1116561889648438	611810.978901093
1.115814208984375	409285.2694724119
1.1199802160263062	421257.382973979
1.124153733253479	528152.4480001084
1.1283347606658936	553319.0836695923
1.1325229406356812	472262.8483226141
1.1367181539535522	568160.964839491
1.1409201622009277	766126.1359732047
1.145128846168518	805412.1260830087
1.1493438482284546	846294.4357846201
1.1535650491714478	832378.0289770508
1.1577922105789185	738723.6382301144
1.1620250940322876	742096.7511602403
1.1662636995315552	784626.6378733963
1.170507550239563	1020444.3582806075
1.174756646156311	1446946.5124174452
1.1790107488632202	2024886.4294193867
1.1832695007324219	3014635.2484484827
1.1875330209732056	4239419.397185145
1.191800832748413	6015417.867230527
1.1960728168487549	8846110.886901705
1.2003488540649414	12202358.556440031
1.2046287059783936	15218147.419453098
1.2089121341705322	17819857.157392897
1.2131990194320679	20949342.05114975
1.2174891233444214	24376590.37257468
1.2217823266983032	26933791.553279888
1.2260783910751343	29775652.309797805
1.230377197265625	33844011.00264364
1.2346785068511963	37802505.37651104
1.238982081413269	40790659.023422584
1.2432878017425537	43142763.68233753
1.2475954294204712	43906656.73267424
1.2519049644470215	43118112.63643016
1.256216049194336	45942600.58457252
1.2605286836624146	49981389.30797544
1.2648425102233887	49578828.26623659
1.2691574096679688	46168501.609317906
1.2734732627868652	41768753.284495115
1.2777899503707886	37895178.5360679
1.2821072340011597	32988193.40489654
1.2864248752593994	26590809.112217195
1.2907428741455078	21208065.332485896
1.2950609922409058	17958228.46444355
1.2993791103363037	16369052.103588115
1.303696870803833	15687339.906042032
1.3080145120620728	15570818.309570288
1.3123314380645752	14562776.400894087
1.3166478872299194	12323280.862886205
1.3209635019302368	9570543.996687334
1.3252781629562378	6258462.294273452
1.3295916318893433	3121543.418850291
1.3339040279388428	1059749.5319704372
1.3382149934768677	231705.6749947556
1.3425244092941284	61734.46106954058
1.3468321561813354	28768.336521008776
1.3511382341384888	17000.75087088442
1.3554422855377197	8110.800480002359
1.3597444295883179	3804.230106833454
1.3640443086624146	3343.4193853174393
1.3683418035507202	5309.954038851795
1.3726370334625244	13857.939399128974
1.3769296407699585	27141.36231817888
1.381219506263733	30990.19523846957
1.3855066299438477	24351.832141316514
1.3897908926010132	20163.533208948676
1.3940720558166504	19732.383432100203
1.3983501195907593	19884.856138226125
1.4026249647140503	23902.144922507017
1.4068963527679443	26958.66053591884
1.4111642837524414	25205.866849942642
1.4154287576675415	22066.968566736494
1.419689416885376	18805.574801817787
1.4239463806152344	25880.221013411316
1.4281994104385376	51476.16132279931
1.4324485063552856	64795.17123940071
1.436693549156189	55678.146824553274
1.440934419631958	65428.640084397564
1.4451709985733032	99261.84957312283
1.449403166770935	143570.52828756088
1.453631043434143	199276.39738487513
1.4578542709350586	272064.5205744691
1.4620729684829712	303795.7567088745
1.4662868976593018	271681.46778646234
1.4704961776733398	246745.62391785314
1.4747005701065063	279959.25319032045
1.4788999557495117	340579.7665276245
1.4830944538116455	378042.35628299677
1.4872838258743286	441027.2246494548
1.491468071937561	553583.4387319331
1.4956470727920532	692430.8526919421
1.4998208284378052	848612.1444184188
1.5039892196655273	1017014.047037137
1.5081522464752197	1296206.1801245448
1.5123097896575928	1662243.7279299872
1.5164618492126465	1934582.7299698123
1.5206083059310913	2329944.4420690835
1.5247491598129272	3039377.450444271
1.5288842916488647	3934757.6925986144
1.5330137014389038	5151002.681167083
1.5371372699737549	6365153.659727681
1.541254997253418	7326078.736020202
1.545366883277893	8364711.407042777
1.5494728088378906	9383804.0360623
1.5535727739334106	10651666.451378886
1.5576666593551636	12037132.328900827
1.561754584312439	13327018.663458373
1.5658363103866577	15250032.113948695
1.5699119567871094	18044358.779452875
1.5739814043045044	20880105.969213907
1.5780447721481323	22878190.59763758
1.582101821899414	24380074.669020254
1.5861525535583496	25636507.14767513
1.5901970863342285	26666820.166789595
1.5942351818084717	28464303.626000326
1.5982669591903687	31393514.755808968
1.6022924184799194	33765553.40978209
1.606311559677124	34250554.07674409
1.6103241443634033	33395309.37683617
1.6143304109573364	30226516.54840304
1.6183301210403442	21771589.544617806
1.6223233938217163	11491254.091429053
1.6263102293014526	6560679.310676346
1.6302905082702637	5262626.075068982
1.634264349937439	4284299.41049055
1.638231635093689	6217057.325168925
1.6421923637390137	10716971.715365523
1.646146535873413	11769400.058925925
1.6500942707061768	10620633.827587603
1.6540353298187256	11471210.117552003
1.6579699516296387	12843089.086103592
1.661897897720337	12624483.664126806
1.6658192873001099	8160474.543104016
1.6697341203689575	4179928.7830333724
1.6736423969268799	6873818.452754519
1.677544116973877	10747588.837238895
1.6814392805099487	9003188.58834298
1.6853278875350952	4652688.5980915
1.6892099380493164	2711712.474567557
1.6930854320526123	2754533.130211501
1.696954369544983	2195946.1480708336
1.7008168697357178	849685.8693676176
1.7046726942062378	303010.2769589348
1.708522081375122	815912.7308897849
1.712364912033081	2343385.020488419
1.7162011861801147	3852412.1621407643
1.7200311422348022	3069215.045140379
1.723854422569275	1146539.211359957
1.7276713848114014	339149.67705517384
1.731481909751892	272212.8787760369
1.7352858781814575	386422.1640325842
1.7390835285186768	536467.7395315166
1.7428747415542603	657935.7777211994
1.7466596364974976	791506.1453562508
1.7504380941390991	977253.3035088185
1.7542102336883545	1095186.885693896
1.7579760551452637	1111676.0469068983
1.7617355585098267	927100.4233461812
1.7654887437820435	538769.2593877985
1.7692357301712036	253841.71814614994
1.7729763984680176	134576.77181815845
1.776710867881775	166139.84910040628
1.7804391384124756	265469.93759402575
1.7841613292694092	225143.72445001168
1.7878772020339966	142470.02392338976
1.7915871143341064	125089.25822129445
1.7952908277511597	205827.88950284832
1.7989884614944458	324680.89856575325
1.8026801347732544	236465.37409466732
1.806365728378296	111271.99153634776
1.8100452423095703	112402.16865103821
1.8137187957763672	128283.8213426808
1.817386507987976	165605.07792699555
1.8210482597351074	373449.96712671855
1.8247040510177612	581592.5172759002
1.828354001045227	423844.8595795708
1.8319982290267944	176499.40400208425
1.8356364965438843	91819.48194159927
1.8392690420150757	92846.71339027099
1.8428958654403687	167295.3579659654
1.8465168476104736	198487.64402876148
1.8501322269439697	184845.31963558926
1.8537418842315674	186167.433193733
1.8573459386825562	142382.68570825263
1.860944390296936	84013.05268305437
1.864537239074707	57664.81144086015
1.8681244850158691	45708.3570798665
1.871706247329712	60071.949516652036
1.8752825260162354	130926.87226295973
1.8788533210754395	261661.9696505464
1.8824186325073242	327207.18477878027
1.8859784603118896	277704.1559927171
1.8895330429077148	268648.39405978995
1.8930821418762207	469658.04108205624
1.8966259956359863	689962.4092358995
1.9001644849777222	743094.0477410958
1.9036977291107178	771084.2406600115
1.9072256088256836	715743.1202152261
1.9107483625411987	502008.48341986374
1.9142658710479736	519765.1527030691
1.9177782535552979	909078.3682509909
1.9212853908538818	899450.3623961126
1.9247875213623047	496740.5692151756
1.9282845258712769	278629.8412821591
1.9317764043807983	217589.60490916632
1.9352631568908691	272715.57240819937
1.9387450218200684	291723.96332925785
1.942221760749817	230611.53412396094
1.9456936120986938	204727.60168153816
1.9491604566574097	217723.0118568062
1.952622413635254	224943.80140945603
1.956079363822937	215408.59804136728
1.959531545639038	225971.07487673097
1.962978720664978	254455.19989864036
1.966421127319336	368515.86275095155
1.9698586463928223	506478.3002712037
1.9732913970947266	530243.6903048664
1.9767193794250488	585889.7984146153
1.9801424741744995	679964.1651929893
1.9835609197616577	722121.0172244804
1.9869745969772339	721850.1769695971
1.990383505821228	774052.8851360321
1.9937876462936401	1014708.3149163239
1.9971871376037598	1243861.030331427
2.000581979751587	1527580.4408968762
2.003972291946411	1836732.6613598336
2.007357597351074	2132536.1522588446
2.0107386112213135	2917006.7520673946
2.0141148567199707	3128138.2744883467
2.017486572265625	2604314.2731441623
2.0208535194396973	3210764.670245148
2.0242159366607666	4218572.792323866
2.027573823928833	3963867.630404838
2.0309269428253174	3810650.8908600337
2.034275770187378	4985433.994025903
2.0376198291778564	5641570.031047363
2.040959596633911	5240352.761367389
2.044294595718384	5683775.743749969
2.0476250648498535	6503431.706626107
2.0509510040283203	6075796.955140347
2.054272413253784	5907856.883608192
2.057589530944824	7055075.9003423825
2.0609018802642822	7692960.534165654
2.0642096996307373	7524027.312737083
2.0675129890441895	7524749.41712492
2.0708119869232178	7772146.430581627
2.074106216430664	8177825.631194513
2.0773961544036865	8278839.702735866
2.080681324005127	8083684.525183269
2.0839622020721436	8263314.062700341
2.087238311767578	8617818.711146334
2.090510129928589	8676912.218536003
2.0937774181365967	8907886.393413957
2.0970399379730225	9390271.396025049
2.1002981662750244	9219765.51130115
2.1035518646240234	8959142.082961544
2.1068007946014404	9571199.330017058
2.1100454330444336	10109567.525907703
2.1132853031158447	10064053.242222277
2.116520881652832	9552580.888624016
2.1197516918182373	9204660.557082688
2.1229779720306396	9710184.044960056
2.12619948387146	10196132.352882644
2.1294167041778564	10128477.19799606
2.132629156112671	10116877.38819791
2.1358368396759033	10280800.548342276
2.139039993286133	9922194.690152854
2.1422386169433594	8891621.408461135
2.145432472229004	7945962.963610388
2.1486217975616455	7005482.055713327
2.151806354522705	6245154.961884053
2.1549863815307617	6305651.439512482
2.1581614017486572	6839003.642121428
2.16133189201355	6894300.3100928925
2.1644976139068604	6504639.086088725
2.167658567428589	6729554.076274474
2.1708147525787354	7447346.799492968
2.173966407775879	7838482.444158401
2.1771130561828613	7686588.281912128
2.1802549362182617	7580285.224849682
2.183391809463501	7578205.499527943
2.1865241527557373	7936029.3764798455
2.1896514892578125	8644803.50606452
2.1927738189697266	8601806.895851785
2.1958916187286377	6448128.318118489
2.1990041732788086	2790182.8137813453
2.2021119594573975	700689.1780483512
2.2052149772644043	1372453.1967927737
2.208312749862671	3829452.390712678
2.2114057540893555	5756582.331099602
2.214493751525879	4944621.8264859505
2.217576742172241	2569413.4756598305
2.2206547260284424	1028483.7176873393
2.2237277030944824	488460.26710315497
2.2267956733703613	272671.8135767266
2.2298583984375	197536.68271318736
2.2329163551330566	176827.80135882102
2.235969066619873	202971.53275835593
2.2390167713165283	221204.11729150897
2.2420592308044434	201986.33530321132
2.2450966835021973	174256.32719566533
2.248128890991211	135989.65845740182
2.2511560916900635	93010.31932986356
2.254178285598755	113250.81441719293
2.257194995880127	301702.0373560146
2.260206699371338	481214.91353454615
2.2632133960723877	466318.86890138994
2.266214609146118	405232.1437790877
2.2692108154296875	554023.816205269
2.2722020149230957	870508.1695750915
2.2751877307891846	918126.1469880451
2.278168201446533	802420.3883031824
2.2811436653137207	689811.0611877613
2.284113883972168	427880.559923361
2.287078857421875	195022.30895126142
2.290038824081421	97771.51349231135
2.2929933071136475	61116.67954433979
2.295942783355713	45414.05595019181
2.298887014389038	52533.15996079408
2.301826238632202	77761.31050917457
2.304760217666626	161682.0734904635
2.3076889514923096	686250.6830459259
2.310612440109253	2242218.6692880993
2.3135311603546143	3344689.0918949647
2.3164443969726562	2075034.9281495404
2.319352865219116	433443.69776021293
2.322256088256836	126560.4918073445
2.3251543045043945	341272.4251614207
2.328047275543213	497525.4420072134
2.330935478210449	366298.68413694
2.3338186740875244	165147.0179151005
2.3366971015930176	69386.68131998752
2.3395702838897705	39929.08834106456
2.3424389362335205	47929.340578801886
2.3453025817871094	46639.827440686735
2.348161458969116	48690.88671004856
2.351015567779541	67318.18754535804
2.353865146636963	96057.18886275556
2.3567099571228027	221392.18432217723
2.3595502376556396	450388.892335349
2.3623859882354736	555401.0829982222
2.3652172088623047	453187.37845622236
2.368043899536133	254705.3251952307
2.370866537094116	80931.27000737103
2.3736846446990967	30834.02290394111
2.3764986991882324	107568.40797943696
2.3793084621429443	289346.7080731852
2.3821144104003906	450327.5857837642
2.384916305541992	481871.5534662623
2.387714147567749	516039.8725326669
2.3905084133148193	650031.926382374
2.393299102783203	586185.3766811813
2.3960859775543213	262850.4611422429
2.398869514465332	55897.85174058955
2.4016497135162354	22914.364132584884
2.4044265747070312	42170.33657014854
2.407200336456299	73842.27251937457
2.409970998764038	90396.65834532789
2.4127390384674072	104990.65049840216
2.415503978729248	102272.01208218295
2.418266534805298	69427.06476430305
2.4210267066955566	50569.47692315526
2.4237842559814453	37376.95291729688
2.426539897918701	28725.151734817795
2.429293394088745	117602.61825184214
2.4320452213287354	243409.13956298266
2.4347951412200928	198873.0067854876
2.4375438690185547	128569.14682966126
2.440291166305542	144199.89976758684
2.443037271499634	117800.58760444753
2.445782423019409	93759.7459547842
2.4485268592834473	112172.40892622834
2.451270818710327	111632.61796513513
2.454014539718628	84005.4700017725
2.4567582607269287	88204.95051898
2.4595019817352295	133270.69082024627
2.4622461795806885	215363.00698975186
2.4649908542633057	291004.2177422246
2.4677364826202393	231919.51878191868
2.4704833030700684	125793.06084348155
2.473231554031372	155136.2755629925
2.4759814739227295	251536.00273325117
2.4787333011627197	245955.94039526366
2.481487512588501	265225.02352904045
