#wavelength	surface flux
0.6450077295303345	485.52264036702655
0.6472567915916443	743.3573474401593
0.6494921445846558	921.6118331053552
0.6517150402069092	991.8644256798246
0.6539263725280762	1052.2269889825886
0.6561272740364075	1123.0499206138627
0.6583186388015747	1226.5201638834267
0.6605015397071838	1364.8131148749053
0.6626768708229065	1532.97371877553
0.6648455858230591	1710.9098068536184
0.6670085787773132	1861.3678893386596
0.6691668033599854	1982.1241512461763
0.6713210344314575	2094.348890025697
0.6734722256660461	2207.144173589458
0.6756211519241333	2317.475237948299
0.6777685880661011	2421.581887996984
0.6799154281616211	2523.610655152915
0.6820623278617859	2636.9228000767625
0.6842101216316223	2753.6342169150585
0.6863595843315125	2849.190310101323
0.688511312007904	2908.335913604856
0.6906660795211792	2887.484025428865
0.6928245425224304	2854.913763051431
0.6949873566627502	2960.2375447026693
0.6971551775932312	3091.253747160299
0.6993286609649658	3127.3851866026607
0.7015084028244019	3113.72775736737
0.7036949396133423	3087.102598446214
0.7058889269828796	3058.3767649532565
0.7080909013748169	2976.658711239889
0.710301399230957	2883.3369677251812
0.712520956993103	2935.661009586084
0.7147500514984131	3086.6351801836377
0.7169892191886902	3113.0583448157577
0.7192389369010925	3021.185887397043
0.7214996814727783	2807.8344424863462
0.723771870136261	2517.842581335646
0.7260559797286987	2260.889772730717
0.7283523678779602	1968.3982588498934
0.7306615710258484	1645.5650188948557
0.7329838871955872	1374.808681928257
0.7353196740150452	1134.820056433202
0.7376693487167358	891.210986944935
0.7400332689285278	692.3572411542498
0.7424117922782898	535.2424683731095
0.7448052167892456	390.2250967160633
0.7472138404846191	256.3968509809472
0.7496379613876343	150.5001157003167
0.7520779371261597	79.332450694554
0.7545340061187744	38.30622872272335
0.7570064663887024	16.64453482692885
0.7594954967498779	6.465900703629935
0.7620013952255249	2.3436573034618315
0.7645244002342224	0.8099785550295121
0.7670646905899048	0.25669527211375565
0.7696225643157959	0.0666899805051156
0.7721980810165405	0.011931148076509045
0.7747915983200073	0.001128119301353922
0.7774031162261963	3.458334511705626e-05
0.7800329327583313	1.0383450793417658e-07
0.7826811671257019	1.8717587532702238e-07
0.7853479981422424	1.6983523541820599e-06
0.7880334854125977	4.030850530231966e-06
0.7907378077507019	3.402895157402614e-06
0.7934610247612	9.63535987774612e-07
0.7962033748626709	6.893650972857885e-05
0.7989648580551147	0.003381023531900289
0.801745593547821	0.04554763593329289
0.8045456409454346	0.3079863594629433
0.8073651194572449	1.3926293604231224
0.8102040886878967	4.923466652721673
0.8130625486373901	15.901730593650731
0.8159406185150146	47.47259838251216
0.8188382983207703	122.15217308440418
0.8217556476593018	276.31624111709124
0.8246926665306091	577.7220922073942
0.8276493549346924	1065.5641239525703
0.8306257724761963	1725.7840248688947
0.8336219191551208	2550.909394579997
0.8366377949714661	3438.2864867906583
0.8396733403205872	4254.557996938042
0.8427285552024841	4700.195854874455
0.8458034992218018	3931.774836120317
0.8488980531692505	2007.055492883275
0.8520121574401855	754.9365078472529
0.8551458716392517	2352.1422062221045
0.8582990765571594	8240.776510869999
0.8614717125892639	17313.07365529495
0.8646637797355652	26972.018186330293
0.8678751587867737	36163.00612893382
0.8711057901382446	45152.58158778411
0.8743556141853333	54239.16844311414
0.87762451171875	62801.94276986484
0.8809124231338501	69198.33010342746
0.8842192888259888	69917.08313958165
0.8875449895858765	58451.65238829247
0.8908893465995789	33595.40263361621
0.894252359867096	13789.641843290303
0.8976338505744934	23093.916956818077
0.9010337591171265	60663.34708959284
0.9044519662857056	100993.95786970142
0.9078882932662964	127647.15289554429
0.9113426208496094	143357.72057160272
0.914814829826355	149623.80300289244
0.9183048605918884	152668.08343949888
0.9218124747276306	156989.2672992998
0.925337553024292	146473.68874526277
0.9288799166679382	126305.19603573324
0.9324395060539246	121109.53271961106
0.9360161423683167	123707.2019695592
0.9396095871925354	128249.69141884122
0.943219780921936	138524.87618964634
0.9468464851379395	141016.06367377157
0.9504896402359009	133942.31648271607
0.9541489481925964	130884.57206383649
0.9578243494033813	128474.91534751939
0.9615156054496765	126257.76564897725
0.9652225375175476	132920.9515636117
0.9689450263977051	142366.46838786732
0.9726828336715698	145797.63369164494
0.9764357805252075	144384.6117917665
0.9802037477493286	147470.6655239383
0.983986496925354	153025.49906201474
0.9877838492393494	153174.87581116785
0.9915955662727356	153329.45330551863
0.9954215884208679	161291.93954857936
0.9992615580558777	173117.32761669572
1.0031154155731201	180389.57509415242
1.0069829225540161	182896.90381124412
1.0108637809753418	186258.44071701504
1.0147579908370972	194072.6050579809
1.018665075302124	202152.0925223354
1.022585153579712	205643.08726210427
1.0265177488327026	207241.70512036205
1.0304628610610962	208980.13936702025
1.0344202518463135	210516.48524453322
1.0383895635604858	211457.3378555671
1.0423706769943237	210124.06142553213
1.0463634729385376	206568.4220113826
1.0503677129745483	201213.13317686348
1.0543830394744873	193877.8866421743
1.058409333229065	184229.6158164044
1.0624464750289917	172391.13386163412
1.0664942264556885	159498.41689222932
1.0705522298812866	146331.14182746646
1.0746204853057861	133922.52805199736
1.0786986351013184	122817.97278361628
1.0827864408493042	111754.56646190886
1.086883783340454	98254.71447489098
1.0909905433654785	82528.56296866642
1.0951062440872192	67991.25820324472
1.0992310047149658	56494.04652172856
1.10336434841156	46191.66245940643
1.1075061559677124	36656.32822976401
1.1116561889648438	29274.309877784064
1.115814208984375	22991.81977511259
1.1199802160263062	17451.56431818893
1.124153733253479	14241.181818516749
1.1283347606658936	13523.671357699619
1.1325229406356812	13150.816832691542
1.1367181539535522	12750.802948308323
1.1409201622009277	12524.865149849304
1.145128846168518	12050.746458498223
1.1493438482284546	11626.585456268032
1.1535650491714478	10349.779555265523
1.1577922105789185	9064.002116944444
1.1620250940322876	9368.043832083567
1.1662636995315552	10136.006245563281
1.170507550239563	10897.151434201256
1.174756646156311	11444.504661472465
1.1790107488632202	11187.86390032574
1.1832695007324219	10436.935366375628
1.1875330209732056	9562.711694704647
1.191800832748413	8790.848663258614
1.1960728168487549	8184.8034901405645
1.2003488540649414	7727.511510281328
1.2046287059783936	7631.135729893432
1.2089121341705322	7991.087639390597
1.2131990194320679	8774.349785078168
1.2174891233444214	9849.189784287233
1.2217823266983032	10891.426408008389
1.2260783910751343	11733.334378155016
1.230377197265625	12416.757341441731
1.2346785068511963	13190.895242130699
1.238982081413269	14588.47732750085
1.2432878017425537	16920.948796368975
1.2475954294204712	20323.939864087108
1.2519049644470215	24954.920016342356
1.256216049194336	30897.479137794224
1.2605286836624146	37816.244722342126
1.2648425102233887	45151.41983046392
1.2691574096679688	52713.20942159326
1.2734732627868652	60275.38929210121
1.2777899503707886	67991.85611578825
1.2821072340011597	76797.1790166648
1.2864248752593994	86159.69307495985
1.2907428741455078	94261.39870810245
1.2950609922409058	104442.86502608053
1.2993791103363037	120290.55305149418
1.303696870803833	138665.17341701078
1.3080145120620728	154395.839484388
1.3123314380645752	164741.96072752884
1.3166478872299194	177933.1672986963
1.3209635019302368	197289.38926024165
1.3252781629562378	209867.2651137998
1.3295916318893433	207946.84186085887
1.3339040279388428	186217.3563247083
1.3382149934768677	156717.10584694467
1.3425244092941284	136162.0964500844
1.3468321561813354	103862.6167465339
1.3511382341384888	63948.75707007068
1.3554422855377197	42272.039632762055
1.3597444295883179	36041.233675766154
1.3640443086624146	38643.67430088032
1.3683418035507202	48695.896211437524
1.3726370334625244	69417.04449110548
1.3769296407699585	80809.64812025556
1.381219506263733	69015.75016528234
1.3855066299438477	66094.31382615062
1.3897908926010132	77515.54871722737
1.3940720558166504	74563.89362958238
1.3983501195907593	63481.683773629135
1.4026249647140503	61088.33366045167
1.4068963527679443	67587.54243429226
1.4111642837524414	78283.44741288287
1.4154287576675415	77821.04718464622
1.419689416885376	70530.32780666892
1.4239463806152344	71840.094015926
1.4281994104385376	76235.1977871364
1.4324485063552856	77635.31273656081
1.436693549156189	75364.04647430497
1.440934419631958	74312.78873377075
1.4451709985733032	76858.75072145046
1.449403166770935	77999.46273608948
1.453631043434143	77290.50879335804
1.4578542709350586	75335.23882635975
1.4620729684829712	70284.8241304526
1.4662868976593018	63376.283084793016
1.4704961776733398	58286.721391505474
1.4747005701065063	56505.52105746345
1.4788999557495117	54597.058341733085
1.4830944538116455	50435.491336965235
1.4872838258743286	47184.94730099534
1.491468071937561	43779.639614554275
1.4956470727920532	41485.70795715206
1.4998208284378052	40851.9047880732
1.5039892196655273	38229.69143815639
1.5081522464752197	35197.141296606314
1.5123097896575928	32650.679743534558
1.5164618492126465	30710.716566221017
1.5206083059310913	29251.706946606617
1.5247491598129272	27230.057228234455
1.5288842916488647	25090.110601867807
1.5330137014389038	23108.177116091232
1.5371372699737549	21369.330338709704
1.541254997253418	19571.464917513265
1.545366883277893	17776.267966624204
1.5494728088378906	16283.797604364561
1.5535727739334106	14924.704161153932
1.5576666593551636	13582.834831852522
1.561754584312439	12329.373094724388
1.5658363103866577	11179.456510539136
1.5699119567871094	10111.607837336967
1.5739814043045044	9122.034730325771
1.5780447721481323	8227.311532661191
1.582101821899414	7419.134628081017
1.5861525535583496	6695.8436740049
1.5901970863342285	6049.336907230713
1.5942351818084717	5460.922559735531
1.5982669591903687	4923.973061350222
1.6022924184799194	4434.480123527209
1.606311559677124	3980.070687733238
1.6103241443634033	3468.6894319705066
1.6143304109573364	2546.9840495866365
1.6183301210403442	1214.538422175785
1.6223233938217163	293.1934119218143
1.6263102293014526	45.37628127463552
1.6302905082702637	10.216675187022112
1.634264349937439	5.665612786463019
1.638231635093689	44.65210979770033
1.6421923637390137	118.03311802960732
1.646146535873413	124.7094833462313
1.6500942707061768	96.46785367051078
1.6540353298187256	108.51209025106913
1.6579699516296387	113.6675857442883
1.661897897720337	85.81801353693167
1.6658192873001099	41.028950448711974
1.6697341203689575	14.831368015372794
1.6736423969268799	24.01718762614167
1.677544116973877	35.65673407685228
1.6814392805099487	19.672242210157254
1.6853278875350952	3.4736503890211634
1.6892099380493164	0.609305586497228
1.6930854320526123	0.6860019875768771
1.696954369544983	0.9910923056957617
1.7008168697357178	0.5095753119842726
1.7046726942062378	0.04582153655587271
1.708522081375122	0.0996383188373243
1.712364912033081	1.0156742502323741
1.7162011861801147	2.221781349763697
1.7200311422348022	1.5589513892187064
1.723854422569275	0.25509712619938285
1.7276713848114014	0.0010287116311062253
1.731481909751892	0.024554004934407507
1.7352858781814575	0.14582642933388082
1.7390835285186768	0.3157903612278576
1.7428747415542603	0.5507427105502752
1.7466596364974976	1.5990998623414263
1.7504380941390991	5.9678131612591905
1.7542102336883545	16.76126266900847
1.7579760551452637	21.204332712520532
1.7617355585098267	10.439541836348193
1.7654887437820435	1.958510612527155
1.7692357301712036	1.391807656799881
1.7729763984680176	1.140732059226442
1.776710867881775	2.1727811525456437
1.7804391384124756	3.940625425529243
1.7841613292694092	2.798339575309195
1.7878772020339966	0.6930508509921164
1.7915871143341064	0.9657835892513987
1.7952908277511597	5.038977566298509
1.7989884614944458	12.428216943416707
1.8026801347732544	16.934934974951727
1.806365728378296	14.480918467294956
1.8100452423095703	9.719098405355549
1.8137187957763672	8.811635176256024
1.817386507987976	16.12457590441062
1.8210482597351074	28.32194298073298
1.8247040510177612	34.565692461141026
1.828354001045227	33.12431353395739
1.8319982290267944	29.652452565993975
1.8356364965438843	26.28614709502267
1.8392690420150757	24.008023171719113
1.8428958654403687	22.927479534577113
1.8465168476104736	21.979848224295463
1.8501322269439697	21.23846988077573
1.8537418842315674	19.762962672352778
1.8573459386825562	17.854910565954015
1.860944390296936	16.807095272313845
1.864537239074707	15.908425346705245
1.8681244850158691	14.358880216494954
1.871706247329712	12.901599100245043
1.8752825260162354	12.391317589231074
1.8788533210754395	12.19919408456873
1.8824186325073242	11.569601956731033
1.8859784603118896	10.706572036538404
1.8895330429077148	9.946570353908983
1.8930821418762207	9.24194534086125
1.8966259956359863	8.387824673823141
1.9001644849777222	7.448375777214651
1.9036977291107178	6.81604050667021
1.9072256088256836	6.439299479603658
1.9107483625411987	5.928275835446991
1.9142658710479736	5.416255464969197
1.9177782535552979	5.205972216843832
1.9212853908538818	5.018204941408969
1.9247875213623047	4.75949339037609
1.9282845258712769	4.581877443653192
1.9317764043807983	4.3818348671183385
1.9352631568908691	4.1140224524095474
1.9387450218200684	3.8774747340582203
1.942221760749817	3.7399718245570974
1.9456936120986938	3.634970050683241
1.9491604566574097	3.5059258613850264
1.952622413635254	3.384954312317273
1.956079363822937	3.2556172503798204
1.959531545639038	3.1015448043435834
1.962978720664978	2.9646975075526245
1.966421127319336	2.8476183868000606
1.9698586463928223	2.7185947267935457
1.9732913970947266	2.580176152710275
1.9767193794250488	2.4385241095178256
1.9801424741744995	2.294404762684445
1.9835609197616577	2.1598587647852323
1.9869745969772339	2.033462975603873
1.990383505821228	1.908323909172494
1.9937876462936401	1.787679489529222
1.9971871376037598	1.670322277342348
2.000581979751587	1.553351728766027
2.003972291946411	1.4420709832468699
2.007357597351074	1.3409331131576592
2.0107386112213135	1.2479378275296353
2.0141148567199707	1.1610674344951226
2.017486572265625	1.0805696538316647
2.0208535194396973	1.0068315338983793
2.0242159366607666	0.9388590055851604
2.027573823928833	0.8752991246111431
2.0309269428253174	0.8151705000734293
2.034275770187378	0.7576456764504524
2.0376198291778564	0.7022605577122999
2.040959596633911	0.6487944535051827
2.044294595718384	0.5970980721101237
2.0476250648498535	0.5472091409905755
2.0509510040283203	0.499350444309678
2.054272413253784	0.45370675125397947
2.057589530944824	0.41054982874927004
2.0609018802642822	0.3702005418810416
2.0642096996307373	0.3327262429667724
2.0675129890441895	0.29823370009208505
2.0708119869232178	0.2669818956868123
2.074106216430664	0.23903048551161704
2.0773961544036865	0.21427219962845337
2.080681324005127	0.1926428965473093
2.0839622020721436	0.17408000664572676
2.087238311767578	0.15838125689227328
2.090510129928589	0.1453178699117447
2.0937774181365967	0.1348052020347007
2.0970399379730225	0.12679640699761482
2.1002981662750244	0.12117706298030642
2.1035518646240234	0.11782774765975947
2.1068007946014404	0.11667826901983985
2.1100454330444336	0.11772203666167715
2.1132853031158447	0.12103859032536801
2.116520881652832	0.12670574351546027
2.1197516918182373	0.1347073484984424
2.1229779720306396	0.1450040626812937
2.12619948387146	0.15767254967921107
2.1294167041778564	0.17287018300940135
2.132629156112671	0.19062902162322584
2.1358368396759033	0.2095389463924079
2.139039993286133	0.2179606494397132
2.1422386169433594	0.2085428171211787
2.145432472229004	0.1946105905663548
2.1486217975616455	0.18055594807943912
2.151806354522705	0.17396588645242153
2.1549863815307617	0.17957418683434573
2.1581614017486572	0.19452569571667797
2.16133189201355	0.2090255486472639
2.1644976139068604	0.2118655768440926
2.167658567428589	0.21188073737875363
2.1708147525787354	0.22511258133582004
2.173966407775879	0.2614335736613751
2.1771130561828613	0.2890325720010096
2.1802549362182617	0.30221061997568865
2.183391809463501	0.3219210798763954
2.1865241527557373	0.34795685722904535
2.1896514892578125	0.38321641700873715
2.1927738189697266	0.40391281206927176
2.1958916187286377	0.30131860281079126
2.1990041732788086	0.1162370050654216
2.2021119594573975	0.026926131106522967
2.2052149772644043	0.06509849741527071
2.208312749862671	0.15363610006128695
2.2114057540893555	0.18200935010304012
2.214493751525879	0.12903759493274755
2.217576742172241	0.06387983157176808
2.2206547260284424	0.028981973235948498
2.2237277030944824	0.01182025517717241
2.2267956733703613	0.004259643908282389
2.2298583984375	0.006056437724141275
2.2329163551330566	0.0043376350448226225
2.235969066619873	0.0016194735881909228
2.2390167713165283	0.0014303527781979533
2.2420592308044434	0.000982605948388926
2.2450966835021973	0.00047997493561363755
2.248128890991211	0.00044200710473336164
2.2511560916900635	0.00030801303325199273
2.254178285598755	0.0008207365715535342
2.257194995880127	0.0035731417404310105
2.260206699371338	0.005201534778630286
2.2632133960723877	0.0032804613356951745
2.266214609146118	0.0033806177623540573
2.2692108154296875	0.0111325702972046
2.2722020149230957	0.020553820033441344
2.2751877307891846	0.018731347684396563
2.278168201446533	0.008893325400873566
2.2811436653137207	0.002954361263834398
2.284113883972168	0.0010698486689589488
2.287078857421875	0.00029501850815788434
2.290038824081421	0.0002034672531040921
2.2929933071136475	0.00010295713948138038
2.295942783355713	6.515549496339356e-05
2.298887014389038	5.4528514659870314e-05
2.301826238632202	3.901058126575308e-05
2.304760217666626	0.0002752641172620537
2.3076889514923096	0.006726821151804519
2.310612440109253	0.04907486835339045
2.3135311603546143	0.1103469825723894
2.3164443969726562	0.09007734141916426
2.319352865219116	0.022727989196176298
2.322256088256836	0.0008163072181398622
2.3251543045043945	0.001755827594883595
2.328047275543213	0.0026234820222253647
2.330935478210449	0.0015860883500272717
2.3338186740875244	0.0003662739873422119
2.3366971015930176	0.00013589421925708665
2.3395702838897705	0.00013190540029526314
2.3424389362335205	0.0001642666922854184
2.3453025817871094	0.00012320397778802108
2.348161458969116	7.088407047218819e-05
2.351015567779541	8.294525643759688e-05
2.353865146636963	0.0002552079066247537
2.3567099571228027	0.0022718881268295917
2.3595502376556396	0.006338761493140955
2.3623859882354736	0.006756462240149067
2.3652172088623047	0.0032681186908276334
2.368043899536133	0.0009389039209816063
2.370866537094116	0.0001870663873187332
2.3736846446990967	0.000814253577936076
2.3764986991882324	0.00442890200848838
2.3793084621429443	0.008494391005242335
2.3821144104003906	0.009377414584317505
2.384916305541992	0.007765005137639912
2.387714147567749	0.0047186567434151635
2.3905084133148193	0.0032994160462758433
2.393299102783203	0.003337319184231861
2.3960859775543213	0.0022827083054670987
2.398869514465332	0.0012692492122076857
2.4016497135162354	0.0007980172554838234
2.4044265747070312	0.00086998687234039
2.407200336456299	0.003281372177805161
2.409970998764038	0.0104917458887374
2.4127390384674072	0.014435111408925177
2.415503978729248	0.009021673006026482
2.418266534805298	0.0038803561346698657
2.4210267066955566	0.002128272618051642
2.4237842559814453	0.0009496944295532784
2.426539897918701	0.0012668487773270782
2.429293394088745	0.004349663486374359
2.4320452213287354	0.007705879744425583
2.4347951412200928	0.007130229560999982
2.4375438690185547	0.008817687930495309
2.440291166305542	0.012177560485703382
2.443037271499634	0.010405098174889563
2.445782423019409	0.009714791272338857
2.4485268592834473	0.021813110557751748
2.451270818710327	0.08510861882558769
