#wavelength	surface flux
0.6450077295303345	38896.70625572126
0.6472567915916443	59815.83363253674
0.6494921445846558	74961.8167419085
0.6517150402069092	81996.73562630333
0.6539263725280762	88608.97958381014
0.6561272740364075	95394.62424575198
0.6583186388015747	102643.30178772667
0.6605015397071838	110601.74825448336
0.6626768708229065	118799.04120520155
0.6648455858230591	126387.46464614623
0.6670085787773132	128605.48984741462
0.6691668033599854	115681.8409766527
0.6713210344314575	106625.39120220477
0.6734722256660461	131065.37807319331
0.6756211519241333	164480.21133766597
0.6777685880661011	182416.149854695
0.6799154281616211	194507.47339714065
0.6820623278617859	205905.52758293317
0.6842101216316223	217151.88013166463
0.6863595843315125	228072.51356577483
0.688511312007904	237534.64894642794
0.6906660795211792	241606.26161800887
0.6928245425224304	242879.24461176613
0.6949873566627502	253902.89222771538
0.6971551775932312	272505.2463195512
0.6993286609649658	285545.3903657743
0.7015084028244019	293657.27685369115
0.7036949396133423	302746.79029784363
0.7058889269828796	313247.9256202338
0.7080909013748169	323787.0542121686
0.710301399230957	333585.967844061
0.712520956993103	340567.1494476043
0.7147500514984131	333157.5179041911
0.7169892191886902	309091.81979438255
0.7192389369010925	301976.43098859803
0.7214996814727783	318045.81905527733
0.723771870136261	323859.93847855803
0.7260559797286987	319574.1697040111
0.7283523678779602	316506.25581340666
0.7306615710258484	312635.7225474785
0.7329838871955872	315583.50902524916
0.7353196740150452	319664.20128830883
0.7376693487167358	314991.5517410042
0.7400332689285278	307840.78228954115
0.7424117922782898	299690.2838989475
0.7448052167892456	287116.7881050815
0.7472138404846191	268813.6034539194
0.7496379613876343	245595.32742451446
0.7520779371261597	218559.28511490588
0.7545340061187744	188435.65959868257
0.7570064663887024	155950.066440454
0.7594954967498779	121628.80674560911
0.7620013952255249	86077.4013110315
0.7645244002342224	51963.85908058049
0.7670646905899048	27386.753357773712
0.7696225643157959	16256.702539954702
0.7721980810165405	10578.978775824879
0.7747915983200073	4983.144250289025
0.7774031162261963	1275.2821108398214
0.7800329327583313	145.73970192603133
0.7826811671257019	369.2111385638725
0.7853479981422424	1658.10106062515
0.7880334854125977	3135.7433295718624
0.7907378077507019	2674.803941146339
0.7934610247612	1000.105137791412
0.7962033748626709	1268.601212150309
0.7989648580551147	10176.263943803391
0.801745593547821	43803.067601211784
0.8045456409454346	116055.13023164381
0.8073651194572449	216312.65741717225
0.8102040886878967	315211.98475478624
0.8130625486373901	403402.02566635475
0.8159406185150146	515262.84246559156
0.8188382983207703	658454.6498051814
0.8217556476593018	777688.7707576369
0.8246926665306091	901466.7887618726
0.8276493549346924	1041724.3247873291
0.8306257724761963	1137662.7961520304
0.8336219191551208	1229660.678760327
0.8366377949714661	1346411.8465914377
0.8396733403205872	1458495.327507681
0.8427285552024841	1490591.6276809347
0.8458034992218018	1284610.649035837
0.8488980531692505	777823.427716911
0.8520121574401855	355676.6886328819
0.8551458716392517	587503.1363611874
0.8582990765571594	1377844.3136652107
0.8614717125892639	2133917.91713053
0.8646637797355652	2641364.9149639583
0.8678751587867737	3013265.9709011284
0.8711057901382446	3305176.1175889242
0.8743556141853333	3541752.3095408375
0.87762451171875	3732698.2899659355
0.8809124231338501	3870536.3411634555
0.8842192888259888	3855112.7385375905
0.8875449895858765	3381452.8099595457
0.8908893465995789	2180913.484621793
0.894252359867096	1011080.2804408143
0.8976338505744934	1179382.5615614217
0.9010337591171265	2518127.5217677164
0.9044519662857056	3751067.31820671
0.9078882932662964	4172134.7089307583
0.9113426208496094	4117526.767861123
0.914814829826355	4067773.350308825
0.9183048605918884	4193900.288903901
0.9218124747276306	4310615.486612686
0.925337553024292	3470976.3993851948
0.9288799166679382	1688860.66761777
0.9324395060539246	558784.139689404
0.9360161423683167	730807.6137598591
0.9396095871925354	1402390.0674116951
0.943219780921936	1517681.8082675997
0.9468464851379395	1141838.395126119
0.9504896402359009	1027515.2047028327
0.9541489481925964	1035454.2732518178
0.9578243494033813	994954.6974074513
0.9615156054496765	1144617.2961562404
0.9652225375175476	1684057.4505605455
0.9689450263977051	2460091.8692050288
0.9726828336715698	2957894.565996008
0.9764357805252075	3123041.800876927
0.9802037477493286	3338615.2781151063
0.983986496925354	3794311.870759625
0.9877838492393494	4384087.518511552
0.9915955662727356	4890755.406848321
0.9954215884208679	5296340.082487694
0.9992615580558777	5554730.977405455
1.0031154155731201	5592366.995291534
1.0069829225540161	5520106.889174417
1.0108637809753418	5420461.757232488
1.0147579908370972	5307097.791365924
1.018665075302124	5185198.510561839
1.022585153579712	5062995.81040094
1.0265177488327026	4935362.499012949
1.0304628610610962	4801937.2923632935
1.0344202518463135	4726965.273667464
1.0383895635604858	4649848.528163517
1.0423706769943237	4479899.67197387
1.0463634729385376	4290428.598268001
1.0503677129745483	4138730.0792977316
1.0543830394744873	4011911.938290296
1.058409333229065	3861383.95601726
1.0624464750289917	3679659.1872395747
1.0664942264556885	3512193.8599989275
1.0705522298812866	3364062.125073881
1.0746204853057861	3232701.5547874477
1.0786986351013184	3121087.0460871216
1.0827864408493042	2997287.178946355
1.086883783340454	2809022.9810727616
1.0909905433654785	2517083.4381242464
1.0951062440872192	2128520.6462212605
1.0992310047149658	1654241.9399161923
1.10336434841156	1120577.3554763065
1.1075061559677124	638225.3262447008
1.1116561889648438	297697.4134746119
1.115814208984375	121955.09780316317
1.1199802160263062	92655.60855040821
1.124153733253479	166668.58584324128
1.1283347606658936	248871.17545406622
1.1325229406356812	270594.6144820143
1.1367181539535522	365597.7175886636
1.1409201622009277	472601.51387725933
1.145128846168518	400268.76971475396
1.1493438482284546	296664.8341812129
1.1535650491714478	262494.1466387173
1.1577922105789185	266663.5672648559
1.1620250940322876	357294.3755230028
1.1662636995315552	527633.8405107651
1.170507550239563	766434.6005536639
1.174756646156311	1072349.1703564895
1.1790107488632202	1416459.2976099811
1.1832695007324219	1749281.1873470263
1.1875330209732056	2068063.27768083
1.191800832748413	2434926.8676682306
1.1960728168487549	2843103.5644882466
1.2003488540649414	3157079.5079803546
1.2046287059783936	3203008.707223643
1.2089121341705322	3165922.375413444
1.2131990194320679	3311082.3114952045
1.2174891233444214	3571104.335561299
1.2217823266983032	3833898.795755103
1.2260783910751343	4094560.7517396566
1.230377197265625	4365768.109156261
1.2346785068511963	4608155.014205638
1.238982081413269	4815216.500754739
1.2432878017425537	5018374.2150460975
1.2475954294204712	5249333.830234032
1.2519049644470215	5549001.78037314
1.256216049194336	5933249.207945819
1.2605286836624146	6376822.328076862
1.2648425102233887	6778048.254415552
1.2691574096679688	7074783.284998845
1.2734732627868652	7325366.735735849
1.2777899503707886	7525804.39749449
1.2821072340011597	7533894.958267718
1.2864248752593994	7416606.370415839
1.2907428741455078	7193632.799786291
1.2950609922409058	6715825.078175317
1.2993791103363037	6252774.744722907
1.303696870803833	6225613.927188374
1.3080145120620728	6499313.005552977
1.3123314380645752	6470032.772096046
1.3166478872299194	6028107.720076212
1.3209635019302368	5351486.242195428
1.3252781629562378	4480188.057486119
1.3295916318893433	3120660.08619465
1.3339040279388428	1475960.1829649936
1.3382149934768677	430401.58312107367
1.3425244092941284	73104.59301408328
1.3468321561813354	7520.676845684441
1.3511382341384888	2636.469757847434
1.3554422855377197	739.5800465939891
1.3597444295883179	306.41153149746054
1.3640443086624146	365.3418479782791
1.3683418035507202	506.5297388052564
1.3726370334625244	2564.186962633078
1.3769296407699585	8113.957323276922
1.381219506263733	9064.002692076861
1.3855066299438477	3598.5145172076805
1.3897908926010132	855.3518542817828
1.3940720558166504	1493.827645335554
1.3983501195907593	3424.1363390718193
1.4026249647140503	5821.746304876193
1.4068963527679443	5979.504617779546
1.4111642837524414	5443.882809528353
1.4154287576675415	6187.994579793117
1.419689416885376	4982.21274963607
1.4239463806152344	12154.28512445278
1.4281994104385376	43819.480836483046
1.4324485063552856	58302.27542711428
1.436693549156189	35380.93321943306
1.440934419631958	29988.63607236006
1.4451709985733032	66186.4116150946
1.449403166770935	131743.77287366794
1.453631043434143	232835.08949590957
1.4578542709350586	390825.5016293593
1.4620729684829712	468120.9095841182
1.4662868976593018	373654.49542660103
1.4704961776733398	276658.5442933976
1.4747005701065063	314021.89120778075
1.4788999557495117	387920.7934433111
1.4830944538116455	426526.82798402436
1.4872838258743286	554727.8692861946
1.491468071937561	812873.3773691542
1.4956470727920532	1051066.9008275312
1.4998208284378052	1286885.6410155192
1.5039892196655273	1548414.25793264
1.5081522464752197	1778889.9213287956
1.5123097896575928	2057940.043489705
1.5164618492126465	2387874.5032206695
1.5206083059310913	2760415.5474621733
1.5247491598129272	3081330.479399114
1.5288842916488647	3322658.4925181153
1.5330137014389038	3677333.7058020704
1.5371372699737549	3981959.6563659846
1.541254997253418	4090508.034295407
1.545366883277893	4210992.214774092
1.5494728088378906	4329069.81059505
1.5535727739334106	4424983.9106629165
1.5576666593551636	4507754.654517992
1.561754584312439	4579891.972105551
1.5658363103866577	4590104.842403549
1.5699119567871094	4483316.187724753
1.5739814043045044	4465214.080427657
1.5780447721481323	4536676.489477522
1.582101821899414	4495107.368903741
1.5861525535583496	4356293.242176898
1.5901970863342285	4227553.330497602
1.5942351818084717	4138021.957601988
1.5982669591903687	4092457.8531093746
1.6022924184799194	4017307.0765794017
1.606311559677124	3858551.280978638
1.6103241443634033	3605375.4052639003
1.6143304109573364	2881585.882209019
1.6183301210403442	1515754.2063374477
1.6223233938217163	432607.9256047345
1.6263102293014526	106835.45518006005
1.6302905082702637	46299.7025378941
1.634264349937439	38148.41829256501
1.638231635093689	185222.41488211567
1.6421923637390137	445907.4634424939
1.646146535873413	448182.371103047
1.6500942707061768	343700.55689534615
1.6540353298187256	401889.4093896125
1.6579699516296387	448085.8737195445
1.661897897720337	393085.22474703926
1.6658192873001099	224405.7807803553
1.6697341203689575	87448.64430923315
1.6736423969268799	145058.28488672193
1.677544116973877	255378.35788437552
1.6814392805099487	191215.51283895233
1.6853278875350952	58024.83007453572
1.6892099380493164	11259.640103837779
1.6930854320526123	10851.393138191595
1.696954369544983	9669.369294207472
1.7008168697357178	3966.723155855204
1.7046726942062378	726.7669867991991
1.708522081375122	4868.939678054986
1.712364912033081	31715.98838544141
1.7162011861801147	61889.01003905787
1.7200311422348022	43372.457367278636
1.723854422569275	9311.931500674396
1.7276713848114014	1091.9203145933088
1.731481909751892	1262.8357727386922
1.7352858781814575	2859.2951981881642
1.7390835285186768	6087.99486097091
1.7428747415542603	11097.341397547074
1.7466596364974976	19909.268719991112
1.7504380941390991	38779.97607474802
1.7542102336883545	73747.80939857407
1.7579760551452637	85249.26681623301
1.7617355585098267	47767.11434371524
1.7654887437820435	17169.778631708014
1.7692357301712036	12279.3539852337
1.7729763984680176	8954.743513759366
1.776710867881775	13878.746472755087
1.7804391384124756	26602.452427169846
1.7841613292694092	23340.406315735694
1.7878772020339966	8975.521547090544
1.7915871143341064	3695.1817437463205
1.7952908277511597	10498.656560733418
1.7989884614944458	19397.13814349653
1.8026801347732544	13506.232576166383
1.806365728378296	4096.116939816177
1.8100452423095703	2551.466727831195
1.8137187957763672	2708.591090090579
1.817386507987976	9285.24959329079
1.8210482597351074	37291.05225780437
1.8247040510177612	61692.09609182156
1.828354001045227	41130.43809747316
1.8319982290267944	14067.81618840675
1.8356364965438843	8349.487357697157
1.8392690420150757	7902.296861448449
1.8428958654403687	15830.378915333145
1.8465168476104736	22538.922020715923
1.8501322269439697	21548.5713211105
1.8537418842315674	18774.09114945246
1.8573459386825562	15149.41088768942
1.860944390296936	10884.923388647076
1.864537239074707	6373.132370128966
1.8681244850158691	3293.1036206789845
1.871706247329712	4328.15181220067
1.8752825260162354	12140.801075484142
1.8788533210754395	29276.771860094865
1.8824186325073242	46464.06920113691
1.8859784603118896	46046.608770925195
1.8895330429077148	38551.71322417096
1.8930821418762207	42306.039784135
1.8966259956359863	43916.38580594514
1.9001644849777222	28329.507467289055
1.9036977291107178	21214.550203778304
1.9072256088256836	33121.07260239886
1.9107483625411987	28589.438811141874
1.9142658710479736	21861.38015001562
1.9177782535552979	39568.617599601064
1.9212853908538818	43907.276162488364
1.9247875213623047	28136.920024548544
1.9282845258712769	18413.240257896196
1.9317764043807983	13903.282623243262
1.9352631568908691	10865.689537238817
1.9387450218200684	11168.36842626921
1.942221760749817	18187.500387593613
1.9456936120986938	22871.78656179327
1.9491604566574097	30251.214738674553
1.952622413635254	37399.64087249168
1.956079363822937	30234.089003456385
1.959531545639038	27349.117927272182
1.962978720664978	36529.93007247628
1.966421127319336	57210.10002007161
1.9698586463928223	74322.27607295036
1.9732913970947266	81333.55034936262
1.9767193794250488	103525.11684565178
1.9801424741744995	130145.65388089765
1.9835609197616577	149117.7865265993
1.9869745969772339	145191.1029568901
1.990383505821228	136357.11595218006
1.9937876462936401	156719.7263138967
1.9971871376037598	166604.79063570302
2.000581979751587	164738.26129027217
2.003972291946411	172113.71269718412
2.007357597351074	186513.71672262184
2.0107386112213135	204410.19237682933
2.0141148567199707	199174.86990565312
2.017486572265625	186425.35081581023
2.0208535194396973	196196.20973629795
2.0242159366607666	209175.81606789576
2.027573823928833	207157.99447441436
2.0309269428253174	200195.611669687
2.034275770187378	205920.3739660066
2.0376198291778564	216537.50863010643
2.040959596633911	218359.6941520074
2.044294595718384	219348.98747502352
2.0476250648498535	218478.74384655964
2.0509510040283203	210731.98260861146
2.054272413253784	207738.92401744056
2.057589530944824	214088.2795954485
2.0609018802642822	218388.15439974132
2.0642096996307373	216275.5920896628
2.0675129890441895	213291.4535398338
2.0708119869232178	211623.82055583125
2.074106216430664	210956.57467311682
2.0773961544036865	209392.66085324832
2.080681324005127	204731.19803003533
2.0839622020721436	202172.1611888044
2.087238311767578	203729.7424447168
2.090510129928589	203730.50332620143
2.0937774181365967	202427.67135860663
2.0970399379730225	201136.03488151458
2.1002981662750244	199483.58058262765
2.1035518646240234	198526.31366962707
2.1068007946014404	199196.4360199082
2.1100454330444336	200326.41710600362
2.1132853031158447	200206.76725594004
2.116520881652832	199103.2142988243
2.1197516918182373	198573.92306316114
2.1229779720306396	200075.45422491868
2.12619948387146	201731.13893221132
2.1294167041778564	201862.11475040286
2.132629156112671	202146.56894356268
2.1358368396759033	202719.43039613773
2.139039993286133	194297.84878619036
2.1422386169433594	169699.09334425398
2.145432472229004	143640.71560967792
2.1486217975616455	120356.56347859153
2.151806354522705	105774.58572962893
2.1549863815307617	106793.26712019167
2.1581614017486572	116046.35042903457
2.16133189201355	120867.94066093679
2.1644976139068604	115894.72332372218
2.167658567428589	117203.7623970647
2.1708147525787354	129814.38927650604
2.173966407775879	143195.9491770664
2.1771130561828613	147854.56360658797
2.1802549362182617	149253.61738175023
2.183391809463501	154259.66412384537
2.1865241527557373	167751.2452061002
2.1896514892578125	181172.83204177007
2.1927738189697266	178397.54894701933
2.1958916187286377	132680.44098304393
2.1990041732788086	55415.70327239392
2.2021119594573975	13299.163434286545
2.2052149772644043	27157.927134924776
2.208312749862671	71771.94530633277
2.2114057540893555	102808.06317286141
2.214493751525879	85926.9852484028
2.217576742172241	44272.31253934887
2.2206547260284424	18223.029181878504
2.2237277030944824	8284.172258292747
2.2267956733703613	4176.34510225376
2.2298583984375	3788.8351572509796
2.2329163551330566	3239.0079819302596
2.235969066619873	3059.662062043976
2.2390167713165283	3220.6377873293345
2.2420592308044434	2642.237306074083
2.2450966835021973	2061.9459313372686
2.248128890991211	1640.9506091511143
2.2511560916900635	1175.6789692982816
2.254178285598755	1441.9043970843124
2.257194995880127	3776.121694527424
2.260206699371338	6145.7377125922585
2.2632133960723877	6244.625596602731
2.266214609146118	5773.758888191984
2.2692108154296875	8477.551848356467
2.2722020149230957	13539.937596707565
2.2751877307891846	13774.665665867533
2.278168201446533	10880.379681796076
2.2811436653137207	8520.29008079981
2.284113883972168	4866.419893114024
2.287078857421875	2136.434549729348
2.290038824081421	1279.81004155891
2.2929933071136475	856.0089705269711
2.295942783355713	588.3919505093863
2.298887014389038	568.2099472232093
2.301826238632202	725.1851156106401
2.304760217666626	1812.193969861365
2.3076889514923096	13712.451404728652
2.310612440109253	53493.6515565988
2.3135311603546143	88221.40060248465
2.3164443969726562	61438.55833928308
2.319352865219116	15028.5761754942
2.322256088256836	2320.018630501868
2.3251543045043945	6995.037617352892
2.328047275543213	11172.424483297295
2.330935478210449	8046.104403775361
2.3338186740875244	2899.4365902557865
2.3366971015930176	1021.466124907954
2.3395702838897705	784.5560521314283
2.3424389362335205	1091.6539887359259
2.3453025817871094	906.0718680956882
2.348161458969116	734.9931641194424
2.351015567779541	1036.7590187537962
2.353865146636963	1488.0727230540015
2.3567099571228027	3469.1321279507115
2.3595502376556396	7458.12458777117
2.3623859882354736	9560.026695368791
2.3652172088623047	7419.421475614233
2.368043899536133	3666.012773372589
2.370866537094116	1087.9644925303678
2.3736846446990967	612.2399885901051
2.3764986991882324	2579.559330332933
2.3793084621429443	6931.043349688325
2.3821144104003906	11103.727529644339
2.384916305541992	12023.960174934346
2.387714147567749	10819.178992231575
2.3905084133148193	11039.167362449289
2.393299102783203	9681.84744468121
2.3960859775543213	4556.049727604109
2.398869514465332	1182.28434247457
2.4016497135162354	768.0977532893347
2.4044265747070312	1168.4548818822216
2.407200336456299	1831.4607060427618
2.409970998764038	2699.197553450124
2.4127390384674072	3619.577996009517
2.415503978729248	3262.731178201903
2.418266534805298	1928.1275433508213
2.4210267066955566	1274.663336573651
2.4237842559814453	966.4202862497762
2.426539897918701	1147.1700472294717
2.429293394088745	3845.730037520943
2.4320452213287354	6521.681534745186
2.4347951412200928	4838.170331603027
2.4375438690185547	3403.783736378316
2.440291166305542	4515.545913016838
2.443037271499634	4459.398406317687
2.445782423019409	3693.8597587103945
2.4485268592834473	3687.562461844079
2.451270818710327	4380.165880116097
2.454014539718628	4750.130356786344
2.4567582607269287	4789.3817182372995
2.4595019817352295	6969.460556773458
2.4622461795806885	10839.914250990654
2.4649908542633057	14390.56116625764
2.4677364826202393	17272.37269595157
2.4704833030700684	21388.238399211845
2.473231554031372	25191.758677396087
2.4759814739227295	25557.132193925736
2.4787333011627197	21875.64146475419
2.481487512588501	22483.20223764113
