#wavelength	surface flux
0.6450077295303345	592780.7619955345
0.6472567915916443	915087.0806068196
0.6494921445846558	1151231.694575448
0.6517150402069092	1266881.938217899
0.6539263725280762	1380279.8189412772
0.6561272740364075	1498426.8485101357
0.6583186388015747	1621107.7449832668
0.6605015397071838	1746984.2775660844
0.6626768708229065	1870877.5384497638
0.6648455858230591	1975108.7579350611
0.6670085787773132	1963750.5192849243
0.6691668033599854	1670372.730730197
0.6713210344314575	1464446.9722563387
0.6734722256660461	1894986.9681892807
0.6756211519241333	2523894.8302955464
0.6777685880661011	2878500.0148500185
0.6799154281616211	3103606.7699285294
0.6820623278617859	3301070.603749006
0.6842101216316223	3489268.3086462105
0.6863595843315125	3646224.672245892
0.688511312007904	3749476.024379287
0.6906660795211792	3896330.3165089153
0.6928245425224304	4123591.283774737
0.6949873566627502	4339139.595590518
0.6971551775932312	4523514.991714888
0.6993286609649658	4687463.697350593
0.7015084028244019	4832985.79591
0.7036949396133423	4962686.314073626
0.7058889269828796	5070583.719669373
0.7080909013748169	5161140.250406765
0.710301399230957	5243133.579947662
0.712520956993103	5304683.02933656
0.7147500514984131	5322937.619847527
0.7169892191886902	5307737.348342401
0.7192389369010925	5302751.925684975
0.7214996814727783	5298080.001654067
0.723771870136261	5253146.478439509
0.7260559797286987	5169660.764879473
0.7283523678779602	5055013.979719346
0.7306615710258484	4908661.655173571
0.7329838871955872	4742569.906235425
0.7353196740150452	4553116.820468768
0.7376693487167358	4331624.081704695
0.7400332689285278	4086305.877474643
0.7424117922782898	3817744.625425363
0.7448052167892456	3525096.3010649597
0.7472138404846191	3210244.465846747
0.7496379613876343	2874783.1747645633
0.7520779371261597	2521398.7299569496
0.7545340061187744	2153162.3245870946
0.7570064663887024	1772873.3199725344
0.7594954967498779	1383568.3399062643
0.7620013952255249	985104.5021067559
0.7645244002342224	600149.8819124332
0.7670646905899048	346407.58949643146
0.7696225643157959	342073.13738755387
0.7721980810165405	618926.1284206429
0.7747915983200073	1061403.6968666036
0.7774031162261963	1299981.2211189433
0.7800329327583313	1397745.6666236469
0.7826811671257019	2127960.67623528
0.7853479981422424	3342431.627175423
0.7880334854125977	4287637.526327868
0.7907378077507019	4579317.258405838
0.7934610247612	3980766.747652935
0.7962033748626709	4241703.231784362
0.7989648580551147	6490626.126576002
0.801745593547821	8797937.106060814
0.8045456409454346	10298879.608590437
0.8073651194572449	11575448.77572934
0.8102040886878967	12801678.529858718
0.8130625486373901	14062950.34860005
0.8159406185150146	15197719.245295884
0.8188382983207703	16222709.424786553
0.8217556476593018	18006063.34893004
0.8246926665306091	20479479.48621327
0.8276493549346924	22746447.787247445
0.8306257724761963	24781912.830377657
0.8336219191551208	26863332.14211013
0.8366377949714661	29065110.66497063
0.8396733403205872	31335894.394472342
0.8427285552024841	33537456.785756662
0.8458034992218018	35119918.23841551
0.8488980531692505	33738163.616296604
0.8520121574401855	31086540.162302688
0.8551458716392517	35745222.980155714
0.8582990765571594	43658963.45096028
0.8614717125892639	44270522.44814204
0.8646637797355652	41409652.116658285
0.8678751587867737	41891061.74952783
0.8711057901382446	44731915.40444516
0.8743556141853333	50618507.906934306
0.87762451171875	57828865.034350395
0.8809124231338501	60665790.14491333
0.8842192888259888	62308634.89972789
0.8875449895858765	65910259.64343565
0.8908893465995789	64321333.44251256
0.894252359867096	58881831.88515582
0.8976338505744934	64831481.55303345
0.9010337591171265	75727652.94699872
0.9044519662857056	80115497.03355406
0.9078882932662964	83514869.24525507
0.9113426208496094	89025433.40638226
0.914814829826355	95023378.20416223
0.9183048605918884	98896885.62061104
0.9218124747276306	98630779.12615374
0.925337553024292	90630723.80577531
0.9288799166679382	77627381.60946395
0.9324395060539246	74529520.10734873
0.9360161423683167	85177913.91938058
0.9396095871925354	98546578.1681808
0.943219780921936	105608169.40599227
0.9468464851379395	107513652.15857162
0.9504896402359009	111095222.32433555
0.9541489481925964	114629206.23393019
0.9578243494033813	114425049.82005338
0.9615156054496765	111775417.17303528
0.9652225375175476	114836794.43118937
0.9689450263977051	125459331.24167442
0.9726828336715698	135788381.42105234
0.9764357805252075	144775888.2484258
0.9802037477493286	152287724.3634473
0.983986496925354	157695619.28286716
0.9877838492393494	159947905.47164488
0.9915955662727356	155431221.90249237
0.9954215884208679	154629867.70122555
0.9992615580558777	162003032.36392158
1.0031154155731201	168921001.60631308
1.0069829225540161	176096548.24983922
1.0108637809753418	184676885.19269076
1.0147579908370972	190661485.4920941
1.018665075302124	195281886.06910783
1.022585153579712	200669596.76950988
1.0265177488327026	206870720.6971106
1.0304628610610962	215587157.13828304
1.0344202518463135	225415841.71280003
1.0383895635604858	233379003.3218676
1.0423706769943237	237057861.00175944
1.0463634729385376	235031519.4858625
1.0503677129745483	226092735.28301734
1.0543830394744873	218730870.4552328
1.058409333229065	224445622.08483365
1.0624464750289917	242733838.0164707
1.0664942264556885	260414178.56879425
1.0705522298812866	269631933.2890149
1.0746204853057861	273714115.9822325
1.0786986351013184	276054432.0752039
1.0827864408493042	281596354.71847254
1.086883783340454	295954191.3523735
1.0909905433654785	315661953.4637583
1.0951062440872192	309262364.139855
1.0992310047149658	267773191.85519898
1.10336434841156	217958556.73711073
1.1075061559677124	173914218.33090538
1.1116561889648438	141657304.14156044
1.115814208984375	127247562.23191941
1.1199802160263062	130206391.60794538
1.124153733253479	147614551.5786532
1.1283347606658936	158260947.84403238
1.1325229406356812	135073410.64439607
1.1367181539535522	110654155.19337752
1.1409201622009277	118203197.5374847
1.145128846168518	144485479.44137198
1.1493438482284546	164565845.56681874
1.1535650491714478	161440943.82591584
1.1577922105789185	149870584.16915852
1.1620250940322876	140289387.2577184
1.1662636995315552	122315599.61238742
1.170507550239563	106618031.077661
1.174756646156311	104186025.01434694
1.1790107488632202	118949129.36408518
1.1832695007324219	161528227.68839777
1.1875330209732056	207402236.76599288
1.191800832748413	230713649.5188689
1.1960728168487549	241564580.94031012
1.2003488540649414	255712889.26289248
1.2046287059783936	273757483.1041101
1.2089121341705322	289897118.5849458
1.2131990194320679	308379727.5237016
1.2174891233444214	324204328.6556261
1.2217823266983032	326234538.7648064
1.2260783910751343	322685421.0151158
1.230377197265625	324966239.58589965
1.2346785068511963	325368727.43380076
1.238982081413269	301877910.91181654
1.2432878017425537	272123641.43123585
1.2475954294204712	263886536.05105582
1.2519049644470215	259429871.02583948
1.256216049194336	286304982.41152126
1.2605286836624146	336286695.3395746
1.2648425102233887	362827121.9012582
1.2691574096679688	382713121.384473
1.2734732627868652	397271320.05374616
1.2777899503707886	405498504.0606437
1.2821072340011597	413279530.5794015
1.2864248752593994	415144705.6354875
1.2907428741455078	413451022.45363
1.2950609922409058	408461891.4295623
1.2993791103363037	404111965.5636098
1.303696870803833	404587103.27986187
1.3080145120620728	401641704.6668468
1.3123314380645752	393633982.9004335
1.3166478872299194	381254228.6911885
1.3209635019302368	356171907.756516
1.3252781629562378	306701265.1566666
1.3295916318893433	222314428.14368737
1.3339040279388428	117269363.10476719
1.3382149934768677	41490418.84263993
1.3425244092941284	15392097.840090396
1.3468321561813354	11182957.325068353
1.3511382341384888	8929994.104813289
1.3554422855377197	7049840.758357517
1.3597444295883179	7569058.366882815
1.3640443086624146	10164664.101656973
1.3683418035507202	12563577.636940284
1.3726370334625244	15719600.457502075
1.3769296407699585	20412206.494685423
1.381219506263733	20856833.027741455
1.3855066299438477	16513642.69400057
1.3897908926010132	12830275.579254467
1.3940720558166504	10900540.099760124
1.3983501195907593	11114293.437649554
1.4026249647140503	13618692.418108921
1.4068963527679443	14839706.250859069
1.4111642837524414	13542268.332821326
1.4154287576675415	12463807.178244429
1.419689416885376	11802490.5042039
1.4239463806152344	12251966.594661143
1.4281994104385376	14901947.6909055
1.4324485063552856	16791040.390499122
1.436693549156189	17234642.39768405
1.440934419631958	18918035.146133296
1.4451709985733032	21742804.914161287
1.449403166770935	25485871.206745148
1.453631043434143	30160415.706517138
1.4578542709350586	35354921.461459525
1.4620729684829712	38256475.91045175
1.4662868976593018	38071462.72050918
1.4704961776733398	39378038.42430641
1.4747005701065063	43000999.350485295
1.4788999557495117	45763944.41215588
1.4830944538116455	47160656.562564515
1.4872838258743286	49384980.83634402
1.491468071937561	53648528.2782969
1.4956470727920532	59446425.61040161
1.4998208284378052	65342277.02546222
1.5039892196655273	70856238.81051551
1.5081522464752197	76380110.95658885
1.5123097896575928	81761323.24118462
1.5164618492126465	88311260.98381574
1.5206083059310913	96722931.02178232
1.5247491598129272	103758925.2377727
1.5288842916488647	109421499.63330188
1.5330137014389038	114686431.67157242
1.5371372699737549	119224166.3256286
1.541254997253418	123551668.6611702
1.545366883277893	127587681.26472074
1.5494728088378906	131548540.00504361
1.5535727739334106	135603925.53295574
1.5576666593551636	136915148.6637874
1.561754584312439	136396500.87028673
1.5658363103866577	138453168.17355374
1.5699119567871094	144047233.19226694
1.5739814043045044	151347961.54952374
1.5780447721481323	156366137.20596355
1.582101821899414	159072648.93344894
1.5861525535583496	162360050.38895747
1.5901970863342285	162150610.92068028
1.5942351818084717	158839362.9145783
1.5982669591903687	159532469.0196347
1.6022924184799194	163231348.4376793
1.606311559677124	166990589.6811163
1.6103241443634033	169336021.91757813
1.6143304109573364	166314459.946352
1.6183301210403442	149400213.15119934
1.6223233938217163	119163555.69409363
1.6263102293014526	94484635.41022791
1.6302905082702637	83854954.42730014
1.634264349937439	84346670.4196737
1.638231635093689	98889272.79454409
1.6421923637390137	116127829.13738938
1.646146535873413	117867737.1769332
1.6500942707061768	111647211.6950116
1.6540353298187256	109352777.90745537
1.6579699516296387	114142533.94474256
1.661897897720337	114787532.16175906
1.6658192873001099	89007710.32611583
1.6697341203689575	77406627.69210975
1.6736423969268799	102665808.85024394
1.677544116973877	116476475.20441948
1.6814392805099487	107906817.62997638
1.6853278875350952	95901591.38644563
1.6892099380493164	88413078.61314242
1.6930854320526123	83718378.29980315
1.696954369544983	72385057.01674896
1.7008168697357178	53883748.766579665
1.7046726942062378	45491702.57989656
1.708522081375122	56943599.69846567
1.712364912033081	75333246.41005628
1.7162011861801147	85620670.68313086
1.7200311422348022	82303758.72804098
1.723854422569275	66454808.47609363
1.7276713848114014	50081980.1859199
1.731481909751892	44520031.83154425
1.7352858781814575	47086063.88269384
1.7390835285186768	49834708.44779693
1.7428747415542603	49682605.37838015
1.7466596364974976	47466748.533029854
1.7504380941390991	45108609.20329078
1.7542102336883545	41898627.14524923
1.7579760551452637	37838764.97756394
1.7617355585098267	34774518.18226638
1.7654887437820435	31215571.4522584
1.7692357301712036	27064634.89892982
1.7729763984680176	23986987.11029042
1.776710867881775	22939302.88584611
1.7804391384124756	22959801.34135363
1.7841613292694092	20737514.351085886
1.7878772020339966	17898961.9936177
1.7915871143341064	16097471.782525845
1.7952908277511597	16018699.390031872
1.7989884614944458	17001490.587039057
1.8026801347732544	15058603.851132542
1.806365728378296	13835210.07586218
1.8100452423095703	15707202.995973494
1.8137187957763672	17074765.12293014
1.817386507987976	16015392.374750484
1.8210482597351074	17409084.68788656
1.8247040510177612	21334740.688600235
1.828354001045227	19372726.59373927
1.8319982290267944	15812638.92328358
1.8356364965438843	14990886.871424025
1.8392690420150757	14373977.68959653
1.8428958654403687	14681850.089436822
1.8465168476104736	14507863.554974705
1.8501322269439697	13917835.65499043
1.8537418842315674	13376363.568799742
1.8573459386825562	11794279.008552233
1.860944390296936	10545551.21621215
1.864537239074707	10367334.654980214
1.8681244850158691	10460900.340974571
1.871706247329712	11652020.24795089
1.8752825260162354	14902057.19813717
1.8788533210754395	19222656.70402001
1.8824186325073242	22266557.046511028
1.8859784603118896	22500890.168796618
1.8895330429077148	22205976.727314133
1.8930821418762207	24497327.460227773
1.8966259956359863	26063255.055832747
1.9001644849777222	24098291.49993726
1.9036977291107178	23135844.102869235
1.9072256088256836	24660160.04355076
1.9107483625411987	24547347.118077632
1.9142658710479736	23883846.306261826
1.9177782535552979	25039702.896486845
1.9212853908538818	23831184.301507648
1.9247875213623047	20797168.876223743
1.9282845258712769	18859848.994919118
1.9317764043807983	17576171.931622025
1.9352631568908691	16988320.477948487
1.9387450218200684	15494366.222531134
1.942221760749817	15159967.090841118
1.9456936120986938	16850406.055707045
1.9491604566574097	17913328.82517151
1.952622413635254	17694445.71135041
1.956079363822937	16520679.359667929
1.959531545639038	16397015.252172489
1.962978720664978	17476405.8737546
1.966421127319336	19702374.83276436
1.9698586463928223	21244255.549689762
1.9732913970947266	20408969.065476537
1.9767193794250488	20689956.564925425
1.9801424741744995	22290851.88697832
1.9835609197616577	24434289.95604215
1.9869745969772339	25476582.580407478
1.990383505821228	23815182.774650894
1.9937876462936401	25025488.644802462
1.9971871376037598	27505422.450646155
2.000581979751587	29147077.57874502
2.003972291946411	32234975.81411622
2.007357597351074	32426456.09670064
2.0107386112213135	32869200.49955028
2.0141148567199707	36324145.92132563
2.017486572265625	37575301.10919136
2.0208535194396973	39571177.76009672
2.0242159366607666	41762131.307011284
2.027573823928833	40765085.7081543
2.0309269428253174	42242396.41551012
2.034275770187378	45942747.78059125
2.0376198291778564	47095501.822196975
2.040959596633911	47102222.56090219
2.044294595718384	48449484.05673033
2.0476250648498535	49932693.9422221
2.0509510040283203	49843047.8401299
2.054272413253784	50555829.43533566
2.057589530944824	53843481.15677608
2.0609018802642822	56017839.602396555
2.0642096996307373	55816230.173654296
2.0675129890441895	56670377.94468613
2.0708119869232178	57670840.25962129
2.074106216430664	57599670.82759739
2.0773961544036865	58262158.70470464
2.080681324005127	58760849.168026485
2.0839622020721436	58626070.793116875
2.087238311767578	58978089.21371598
2.090510129928589	59979573.94759877
2.0937774181365967	60851281.361585625
2.0970399379730225	61106749.440504275
2.1002981662750244	60944831.68190986
2.1035518646240234	60983418.04478815
2.1068007946014404	61559909.99237061
2.1100454330444336	61732023.172937326
2.1132853031158447	61650466.546549216
2.116520881652832	61218648.53136997
2.1197516918182373	60876357.783160955
2.1229779720306396	61638074.4632382
2.12619948387146	62102855.65766472
2.1294167041778564	61487715.05689025
2.132629156112671	61128679.30848347
2.1358368396759033	61156381.002102844
2.139039993286133	60598512.03969197
2.1422386169433594	59436733.375538684
2.145432472229004	58494292.38966209
2.1486217975616455	57213982.18473109
2.151806354522705	55616833.02707927
2.1549863815307617	55804743.95453979
2.1581614017486572	56574719.82025192
2.16133189201355	55935543.66575225
2.1644976139068604	55797830.29857012
2.167658567428589	56685288.38724148
2.1708147525787354	56891314.088974625
2.173966407775879	56636939.26027912
2.1771130561828613	56658463.17860078
2.1802549362182617	57196764.471190594
2.183391809463501	57493089.95162931
2.1865241527557373	57630138.850307874
2.1896514892578125	58011221.536843695
2.1927738189697266	57475275.646806516
2.1958916187286377	50446376.48059933
2.1990041732788086	35238595.02910642
2.2021119594573975	26220134.207083873
2.2052149772644043	32782318.441325817
2.208312749862671	45618624.11318068
2.2114057540893555	52467327.74823519
2.214493751525879	49739551.765849255
2.217576742172241	40676010.66268659
2.2206547260284424	31996254.203876007
2.2237277030944824	27537333.446915366
2.2267956733703613	23639284.636917703
2.2298583984375	20096763.85659831
2.2329163551330566	19693557.740864303
2.235969066619873	21513470.967616998
2.2390167713165283	22381010.417205807
2.2420592308044434	20763332.444850393
2.2450966835021973	18338744.582132503
2.248128890991211	16966499.597996674
2.2511560916900635	16906798.281971596
2.254178285598755	17003282.1724205
2.257194995880127	18448991.297689635
2.260206699371338	20982954.54678656
2.2632133960723877	21621684.261889983
2.266214609146118	21310038.43818485
2.2692108154296875	22284230.426300965
2.2722020149230957	24717118.390210554
2.2751877307891846	25881705.23138915
2.278168201446533	26656370.69626713
2.2811436653137207	26379925.7693775
2.284113883972168	22109873.683825534
2.287078857421875	17464014.01506252
2.290038824081421	14869185.053443957
2.2929933071136475	13428137.292972557
2.295942783355713	12657533.535360482
2.298887014389038	13217552.739571333
2.301826238632202	15258327.767386448
2.304760217666626	19091529.814928267
2.3076889514923096	24717711.657954764
2.310612440109253	31073497.503342357
2.3135311603546143	31727293.231280614
2.3164443969726562	21062948.755904354
2.319352865219116	12215256.82667884
2.322256088256836	15019815.00327958
2.3251543045043945	20872066.873164624
2.328047275543213	23691342.14474826
2.330935478210449	21797678.420680877
2.3338186740875244	16672844.391528586
2.3366971015930176	12530686.843846628
2.3395702838897705	11029845.235172853
2.3424389362335205	11069283.626952935
2.3453025817871094	10600325.751057701
2.348161458969116	10651590.337878635
2.351015567779541	11942901.106909746
2.353865146636963	14019816.038948413
2.3567099571228027	18507178.023141958
2.3595502376556396	24071792.921065297
2.3623859882354736	26826422.893924117
2.3652172088623047	25378656.849645957
2.368043899536133	18586663.116518497
2.370866537094116	10228581.787276233
2.3736846446990967	7918636.280924815
2.3764986991882324	11803246.557586111
2.3793084621429443	17748552.55335931
2.3821144104003906	20592170.764965177
2.384916305541992	19880305.616445772
2.387714147567749	20872002.952127356
2.3905084133148193	23125899.640213866
2.393299102783203	21283739.047668356
2.3960859775543213	15586149.043088173
2.398869514465332	11343940.002577873
2.4016497135162354	10439764.575506948
2.4044265747070312	11391632.346060086
2.407200336456299	12823387.046733301
2.409970998764038	14035916.74020608
2.4127390384674072	14986756.519170215
2.415503978729248	14095561.678665498
2.418266534805298	11838114.77200264
2.4210267066955566	10975960.876914266
2.4237842559814453	10468845.656078385
2.426539897918701	9805001.107921483
2.429293394088745	12005038.924728012
2.4320452213287354	15304491.977899333
2.4347951412200928	14151535.856173621
2.4375438690185547	13415758.002827931
2.440291166305542	15538504.954150043
2.443037271499634	14655002.564418294
2.445782423019409	12759788.466420883
2.4485268592834473	13360309.820409745
2.451270818710327	13489488.605025174
2.454014539718628	12470447.985790106
2.4567582607269287	12824962.66585851
2.4595019817352295	13437124.70568984
2.4622461795806885	14952289.01717554
2.4649908542633057	15885057.10859726
2.4677364826202393	13273717.994475573
2.4704833030700684	11324407.285328446
2.473231554031372	11550887.285864234
2.4759814739227295	12288755.202329371
