#wavelength	surface flux
0.6450077295303345	3.3111702816242805e-12
0.6472567915916443	5.276946053404736e-12
0.6494921445846558	7.045545742981801e-12
0.6517150402069092	8.357811592722049e-12
0.6539263725280762	9.86412565911611e-12
0.6561272740364075	1.1654021371096734e-11
0.6583186388015747	1.3795638697659492e-11
0.6605015397071838	1.637716809631776e-11
0.6626768708229065	1.9513324388464555e-11
0.6648455858230591	2.3354050859877024e-11
0.6670085787773132	2.809226650181024e-11
0.6691668033599854	3.3965384396105296e-11
0.6713210344314575	4.125619746237158e-11
0.6734722256660461	5.030333081860459e-11
0.6756211519241333	6.151944235164373e-11
0.6777685880661011	7.540534754637966e-11
0.6799154281616211	9.255976099537925e-11
0.6820623278617859	1.1369494115490782e-10
0.6842101216316223	1.3964641955163006e-10
0.6863595843315125	1.7137745594473292e-10
0.688511312007904	2.0998858139748574e-10
0.6906660795211792	2.56705683230099e-10
0.6928245425224304	3.1286899224268136e-10
0.6949873566627502	3.7991866296426665e-10
0.6971551775932312	4.592932589166256e-10
0.6993286609649658	5.523982799006502e-10
0.7015084028244019	6.606984366126238e-10
0.7036949396133423	7.857743646652811e-10
0.7058889269828796	9.294357062722397e-10
0.7080909013748169	1.093797481596803e-09
0.710301399230957	1.2812503774828717e-09
0.712520956993103	1.4944143864583633e-09
0.7147500514984131	1.7361526221130254e-09
0.7169892191886902	2.0098340199808057e-09
0.7192389369010925	2.3194258731363936e-09
0.7214996814727783	2.669152587377889e-09
0.723771870136261	3.063848299904154e-09
0.7260559797286987	3.5095779109045954e-09
0.7283523678779602	4.013310919244484e-09
0.7306615710258484	4.58369185283434e-09
0.7329838871955872	5.231410569015006e-09
0.7353196740150452	5.967343860504768e-09
0.7376693487167358	6.805083297443183e-09
0.7400332689285278	7.762731355575025e-09
0.7424117922782898	8.861412466529117e-09
0.7448052167892456	1.012678543863308e-08
0.7472138404846191	1.1590506671578363e-08
0.7496379613876343	1.3291865727476866e-08
0.7520779371261597	1.527991593238793e-08
0.7545340061187744	1.761559409461423e-08
0.7570064663887024	2.0375973112297204e-08
0.7594954967498779	2.365652700110306e-08
0.7620013952255249	2.7568197390418756e-08
0.7645244002342224	3.22333152865234e-08
0.7670646905899048	3.7786071571291586e-08
0.7696225643157959	4.437569695066364e-08
0.7721980810165405	5.216602821671711e-08
0.7747915983200073	6.13292393142645e-08
0.7774031162261963	7.201268594683908e-08
0.7800329327583313	8.441171415611038e-08
0.7826811671257019	9.883367371352281e-08
0.7853479981422424	1.1537722843585843e-07
0.7880334854125977	1.3402854186187793e-07
0.7907378077507019	1.5482471154338367e-07
0.7934610247612	1.7778286340339e-07
0.7962033748626709	2.0355833525026904e-07
0.7989648580551147	2.3269177784734898e-07
0.801745593547821	2.650903460245079e-07
0.8045456409454346	3.012304187991027e-07
0.8073651194572449	3.419914536991135e-07
0.8102040886878967	3.8820216844613095e-07
0.8130625486373901	4.4103822468246313e-07
0.8159406185150146	5.023818418437256e-07
0.8188382983207703	5.740833735628738e-07
0.8217556476593018	6.579038412024341e-07
0.8246926665306091	7.566286576203762e-07
0.8276493549346924	8.730915349384027e-07
0.8306257724761963	1.009773982161752e-06
0.8336219191551208	1.1703193089672157e-06
0.8366377949714661	1.3592703138488727e-06
0.8396733403205872	1.5814653611505322e-06
0.8427285552024841	1.8424564373878536e-06
0.8458034992218018	2.148522850441044e-06
0.8488980531692505	2.5068307055935767e-06
0.8520121574401855	2.9256416037472705e-06
0.8551458716392517	3.41420930292379e-06
0.8582990765571594	3.982644152751865e-06
0.8614717125892639	4.64205868734721e-06
0.8646637797355652	5.404786060677388e-06
0.8678751587867737	6.28424459903787e-06
0.8711057901382446	7.295188179776419e-06
0.8743556141853333	8.45478326155297e-06
0.87762451171875	9.783566117300044e-06
0.8809124231338501	1.130558760854347e-05
0.8842192888259888	1.304821081033816e-05
0.8875449895858765	1.5028713820901127e-05
0.8908893465995789	1.7156298049076366e-05
0.894252359867096	1.9506109728339034e-05
0.8976338505744934	2.2522235403854127e-05
0.9010337591171265	2.61298100126317e-05
0.9044519662857056	3.0046090661538637e-05
0.9078882932662964	3.4387639408501286e-05
0.9113426208496094	3.926066524150156e-05
0.914814829826355	4.475970493400838e-05
0.9183048605918884	5.096751101822727e-05
0.9218124747276306	5.7985172373891997e-05
0.925337553024292	6.586189865169249e-05
0.9288799166679382	7.440033083371881e-05
0.9324395060539246	8.341924056793562e-05
0.9360161423683167	9.409769259589032e-05
0.9396095871925354	0.00010810476956130385
0.943219780921936	0.00012430159860098128
0.9468464851379395	0.00014124325313736295
0.9504896402359009	0.00016030704217482518
0.9541489481925964	0.00018276044382844973
0.9578243494033813	0.00020921603738935712
0.9615156054496765	0.00024002205597856675
0.9652225375175476	0.0002751258743920417
0.9689450263977051	0.00031524150190414933
0.9726828336715698	0.0003614378831235521
0.9764357805252075	0.0004151549076274991
0.9802037477493286	0.00047771952765971056
0.983986496925354	0.0005500917454792216
0.9877838492393494	0.0006333778679100252
0.9915955662727356	0.0007289775198580031
0.9954215884208679	0.0008385384784551831
0.9992615580558777	0.000963466038166959
1.0031154155731201	0.0011050779039828741
1.0069829225540161	0.001264996556952918
1.0108637809753418	0.0014451324043570672
1.0147579908370972	0.001647557828151997
1.018665075302124	0.0018744163959048218
1.022585153579712	0.0021279880751143873
1.0265177488327026	0.0024111503948555523
1.0304628610610962	0.0027268615032928
1.0344202518463135	0.0030780567763398644
1.0383895635604858	0.00346815168628885
1.0423706769943237	0.003900918663865659
1.0463634729385376	0.004380543393596356
1.0503677129745483	0.004911641641020464
1.0543830394744873	0.005499204373128481
1.058409333229065	0.006148845167693799
1.0624464750289917	0.006866820162995306
1.0664942264556885	0.00765994014167141
1.0705522298812866	0.008535848402739571
1.0746204853057861	0.009503469582857249
1.0786986351013184	0.010572528381852443
1.0827864408493042	0.011752998059543832
1.086883783340454	0.013053773395762358
1.0909905433654785	0.014488877790925123
1.0951062440872192	0.01608096362642126
1.0992310047149658	0.017840028765650554
1.10336434841156	0.019758428983662944
1.1075061559677124	0.021816993965224567
1.1116561889648438	0.02402399182960605
1.115814208984375	0.02648014224321851
1.1199802160263062	0.02917097489104037
1.124153733253479	0.03231945110226045
1.1283347606658936	0.036149284526737054
1.1325229406356812	0.04025068945051317
1.1367181539535522	0.0447289360652603
1.1409201622009277	0.049826162487641636
1.145128846168518	0.05535495707088236
1.1493438482284546	0.06133257412307522
1.1535650491714478	0.06762872804327201
1.1577922105789185	0.07452503532806269
1.1620250940322876	0.08280680163655903
1.1662636995315552	0.09225401292068508
1.170507550239563	0.10230861447679793
1.174756646156311	0.11321877106299567
1.1790107488632202	0.12525339568640773
1.1832695007324219	0.13853742604100558
1.1875330209732056	0.15320356207707478
1.191800832748413	0.1693704418607559
1.1960728168487549	0.18716276534074777
1.2003488540649414	0.2067345974869289
1.2046287059783936	0.2283122028868058
1.2089121341705322	0.2520866421507603
1.2131990194320679	0.27824135314541015
1.2174891233444214	0.30703375803896144
1.2217823266983032	0.3386851759552317
1.2260783910751343	0.37345395742036164
1.230377197265625	0.4116444328260413
1.2346785068511963	0.4535899587956849
1.238982081413269	0.4996739774648175
1.2432878017425537	0.5502232546722041
1.2475954294204712	0.6056301172892614
1.2519049644470215	0.6663661523265341
1.256216049194336	0.7329282309387686
1.2605286836624146	0.8058431647615222
1.2648425102233887	0.8856449993775011
1.2691574096679688	0.9729202326615186
1.2734732627868652	1.0683376969455964
1.2777899503707886	1.1726000047471055
1.2821072340011597	1.2865194399561852
1.2864248752593994	1.4109189693581516
1.2907428741455078	1.5464782912223847
1.2950609922409058	1.694388193782818
1.2993791103363037	1.856068822555459
1.303696870803833	2.032243889958861
1.3080145120620728	2.223320875231545
1.3123314380645752	2.430016286423988
1.3166478872299194	2.654914300686646
1.3209635019302368	2.901556644237225
1.3252781629562378	3.169050021101055
1.3295916318893433	3.449904050012648
1.3339040279388428	3.741324879875705
1.3382149934768677	4.0393023015641525
1.3425244092941284	4.301747797171785
1.3468321561813354	4.514329657004742
1.3511382341384888	4.6927230086229805
1.3554422855377197	4.9666802834680945
1.3597444295883179	5.446798793283776
1.3640443086624146	5.958103341813909
1.3683418035507202	6.529814096890717
1.3726370334625244	7.323065572014112
1.3769296407699585	8.19019527665031
1.381219506263733	8.954394892314207
1.3855066299438477	9.594108570921426
1.3897908926010132	10.204927398747426
1.3940720558166504	10.78864966870998
1.3983501195907593	11.580704151966586
1.4026249647140503	12.77960781926868
1.4068963527679443	14.202569620331232
1.4111642837524414	15.378526280719592
1.4154287576675415	16.052780112834984
1.419689416885376	16.846501624273095
1.4239463806152344	18.234617408271852
1.4281994104385376	20.029925765133907
1.4324485063552856	22.246062572905203
1.436693549156189	24.700448932526765
1.440934419631958	27.11580243607882
1.4451709985733032	29.304835863992615
1.449403166770935	31.322146491154722
1.453631043434143	34.00335273215452
1.4578542709350586	37.200189432765946
1.4620729684829712	40.11155641407566
1.4662868976593018	42.88810861240198
1.4704961776733398	45.74664348331915
1.4747005701065063	48.88210677806662
1.4788999557495117	52.69974700998143
1.4830944538116455	56.84197687432896
1.4872838258743286	61.0317243435618
1.491468071937561	65.52699798393266
1.4956470727920532	70.4208575064794
1.4998208284378052	75.54794936386531
1.5039892196655273	80.7672529222398
1.5081522464752197	86.5001239274205
1.5123097896575928	92.6722738255866
1.5164618492126465	99.08157373974949
1.5206083059310913	105.9066251819516
1.5247491598129272	113.06554715513764
1.5288842916488647	120.56788668708109
1.5330137014389038	128.48706773535523
1.5371372699737549	136.86445201081094
1.541254997253418	145.65316449274104
1.545366883277893	154.89232850594746
1.5494728088378906	164.69346389142223
1.5535727739334106	175.03351153077952
1.5576666593551636	185.8933628662701
1.561754584312439	197.32726956005703
1.5658363103866577	209.37624250369618
1.5699119567871094	222.0474145497993
1.5739814043045044	235.35977800947853
1.5780447721481323	249.34848055593014
1.582101821899414	264.04254647290264
1.5861525535583496	279.4881603686197
1.5901970863342285	295.7098174542426
1.5942351818084717	312.72826301856554
1.5982669591903687	330.5818025314592
1.6022924184799194	349.2903991699532
1.606311559677124	368.8855932545653
1.6103241443634033	389.40487016455126
1.6143304109573364	410.13397065637946
1.6183301210403442	424.0486360901203
1.6223233938217163	421.24415540942556
1.6263102293014526	413.18155684480706
1.6302905082702637	414.99775559049004
1.634264349937439	438.96425976228335
1.638231635093689	495.626775900563
1.6421923637390137	547.595823355963
1.646146535873413	558.4832555145459
1.6500942707061768	564.4988155808985
1.6540353298187256	588.2898035027073
1.6579699516296387	618.3711463118136
1.661897897720337	643.9323378837563
1.6658192873001099	628.336515379335
1.6697341203689575	649.213589343534
1.6736423969268799	745.6783189810374
1.677544116973877	806.8751884058221
1.6814392805099487	828.476374017548
1.6853278875350952	854.2656711769281
1.6892099380493164	876.0873482248805
1.6930854320526123	893.87592115949
1.696954369544983	862.3571844937579
1.7008168697357178	758.704537979869
1.7046726942062378	719.3695359591694
1.708522081375122	855.335647732661
1.712364912033081	1066.0126802838752
1.7162011861801147	1217.687711120139
1.7200311422348022	1251.0256106212476
1.723854422569275	1151.2673086069583
1.7276713848114014	1046.4096787432413
1.731481909751892	1098.814698918893
1.7352858781814575	1307.8087866953003
1.7390835285186768	1515.2760478846901
1.7428747415542603	1594.9647825115399
1.7466596364974976	1628.3541788938826
1.7504380941390991	1742.1502915759895
1.7542102336883545	1900.712877227433
1.7579760551452637	1965.1146657900558
1.7617355585098267	1984.6205953724962
1.7654887437820435	2072.6229784396196
1.7692357301712036	2118.5852584396007
1.7729763984680176	2070.581557722885
1.776710867881775	2170.474987107085
1.7804391384124756	2374.8001474022685
1.7841613292694092	2340.0970842991933
1.7878772020339966	2175.9045566497307
1.7915871143341064	2115.6264097104436
1.7952908277511597	2332.1009853886294
1.7989884614944458	2658.1543801449416
1.8026801347732544	2849.4181463370073
1.806365728378296	2957.559968970355
1.8100452423095703	2949.680745933931
1.8137187957763672	2955.8966651207693
1.817386507987976	3049.840577708581
1.8210482597351074	3249.6850438750103
1.8247040510177612	3524.9598526611644
1.828354001045227	3666.359397581401
1.8319982290267944	3764.026183708195
1.8356364965438843	3851.681083376858
1.8392690420150757	3919.996375777424
1.8428958654403687	4098.698635516436
1.8465168476104736	4254.031691154878
1.8501322269439697	4377.443621635536
1.8537418842315674	4508.495367903637
1.8573459386825562	4508.935558755234
1.860944390296936	4438.694566762481
1.864537239074707	4464.988895373001
1.8681244850158691	4541.942373900859
1.871706247329712	4799.3680975925645
1.8752825260162354	5375.85375338873
1.8788533210754395	5919.124456187212
1.8824186325073242	6202.83956282819
1.8859784603118896	6543.969201886927
1.8895330429077148	7004.460500492676
1.8930821418762207	7300.6085547172
1.8966259956359863	7349.328648505265
1.9001644849777222	7265.852187782743
1.9036977291107178	7340.8507066188695
1.9072256088256836	7507.487869385759
1.9107483625411987	7244.102886358496
1.9142658710479736	7052.3782940580195
1.9177782535552979	7650.362389614656
1.9212853908538818	8152.389044350612
1.9247875213623047	8306.940313711028
1.9282845258712769	8587.204611619634
1.9317764043807983	8909.881075621919
1.9352631568908691	9153.622851678687
1.9387450218200684	8966.81638760018
1.942221760749817	9220.247042726376
1.9456936120986938	10156.264684469097
1.9491604566574097	10678.475608078033
1.952622413635254	10828.693705428843
1.956079363822937	10943.693985614613
1.959531545639038	11207.498466577854
1.962978720664978	11794.604180781682
1.966421127319336	12780.463075607558
1.9698586463928223	13758.954174789693
1.9732913970947266	14379.30245690591
1.9767193794250488	14764.147889004893
1.9801424741744995	15123.32577564488
1.9835609197616577	15772.46500251802
1.9869745969772339	16390.353542461817
1.990383505821228	16793.063979305032
1.9937876462936401	17205.710033439387
1.9971871376037598	17417.460438756287
2.000581979751587	17875.610049548683
2.003972291946411	18699.74915974942
2.007357597351074	19241.74714427361
2.0107386112213135	19796.210566097892
2.0141148567199707	20394.25625099092
2.017486572265625	20813.080556788853
2.0208535194396973	21529.984275348477
2.0242159366607666	22325.86263349267
2.027573823928833	22736.2874247489
2.0309269428253174	23078.380975624765
2.034275770187378	23762.811611722438
2.0376198291778564	24654.71960087711
2.040959596633911	25381.51845834992
2.044294595718384	25969.75881441754
2.0476250648498535	26520.217101780006
2.0509510040283203	26997.43087376142
2.054272413253784	27579.74431758214
2.057589530944824	28377.530816559483
2.0609018802642822	29180.026099703722
2.0642096996307373	29866.99874252376
2.0675129890441895	30523.617189025183
2.0708119869232178	31205.915397913344
2.074106216430664	31923.694946785472
2.0773961544036865	32631.276898527554
2.080681324005127	33286.460418050105
2.0839622020721436	34002.4396071781
2.087238311767578	34810.74812229668
2.090510129928589	35597.32125200868
2.0937774181365967	36371.96857040275
2.0970399379730225	37144.83863849861
2.1002981662750244	37902.05787460559
2.1035518646240234	38696.8646516316
2.1068007946014404	39562.14317059735
2.1100454330444336	40436.3628665854
2.1132853031158447	41271.605262760524
2.116520881652832	42092.850422535885
2.1197516918182373	42949.63175841804
2.1229779720306396	43878.0958327043
2.12619948387146	44812.69607512259
2.1294167041778564	45718.6410748878
2.132629156112671	46644.85663093587
2.1358368396759033	47594.56820330244
2.139039993286133	48426.452733112514
2.1422386169433594	49010.65792918845
2.145432472229004	49372.99090741887
2.1486217975616455	49327.74324080272
2.151806354522705	49510.08244731649
2.1549863815307617	50598.48332355518
2.1581614017486572	51968.99180054606
2.16133189201355	52889.25561605083
2.1644976139068604	54182.81269853838
2.167658567428589	55908.62466202641
2.1708147525787354	56929.869931006644
2.173966407775879	57232.135666982664
2.1771130561828613	58095.998911798415
2.1802549362182617	60034.5052566485
2.183391809463501	61606.28367074064
2.1865241527557373	62778.754043793575
2.1896514892578125	64094.15425219606
2.1927738189697266	65398.62691122442
2.1958916187286377	60901.59231709219
2.1990041732788086	46519.345410024696
2.2021119594573975	37501.13266919707
2.2052149772644043	46543.34450796783
2.208312749862671	62870.6860098793
2.2114057540893555	71586.12408946734
2.214493751525879	70547.02040215064
2.217576742172241	63570.498446178586
2.2206547260284424	55051.31375506687
2.2237277030944824	49617.37792004824
2.2267956733703613	46670.41645636493
2.2298583984375	44302.95477789304
2.2329163551330566	44514.24083838619
2.235969066619873	48638.93513355771
2.2390167713165283	51993.01728243846
2.2420592308044434	48346.53000832545
2.2450966835021973	41197.894998883065
2.248128890991211	38857.81198306178
2.2511560916900635	41530.631484943224
2.254178285598755	44077.82956510569
2.257194995880127	46731.355018133945
2.260206699371338	51196.76945324567
2.2632133960723877	54475.65894777435
2.266214609146118	55533.75811705207
2.2692108154296875	57556.86843185845
2.2722020149230957	61470.940988407434
2.2751877307891846	60820.61223300626
2.278168201446533	60627.06414905699
2.2811436653137207	60986.3282976096
2.284113883972168	53359.963413682024
2.287078857421875	44735.463438098624
2.290038824081421	41662.91476724559
2.2929933071136475	41569.49072105434
2.295942783355713	39358.378379827416
2.298887014389038	37291.71182522196
2.301826238632202	42755.6690453482
2.304760217666626	55660.1870681541
2.3076889514923096	72499.91153797293
2.310612440109253	93371.13308679093
2.3135311603546143	98290.28215435213
2.3164443969726562	66830.5347045395
2.319352865219116	41848.916758907115
2.322256088256836	55166.28141624972
2.3251543045043945	74354.04227721614
2.328047275543213	81572.74367131306
2.330935478210449	76557.55592679384
2.3338186740875244	64037.899900115444
2.3366971015930176	52664.19989466223
2.3395702838897705	45586.01460148292
2.3424389362335205	44883.18712184381
2.3453025817871094	42601.259101427284
2.348161458969116	41905.579527118614
2.351015567779541	48432.583130141466
2.353865146636963	59631.893110592486
2.3567099571228027	79557.30967025901
2.3595502376556396	101416.51940498131
2.3623859882354736	112899.46013692374
2.3652172088623047	109741.43759630638
2.368043899536133	84063.65986525349
2.370866537094116	48534.84154747733
2.3736846446990967	36948.62164462693
2.3764986991882324	54227.0514666895
2.3793084621429443	82630.03452896062
2.3821144104003906	95864.88234269989
2.384916305541992	93736.95678095175
2.387714147567749	103291.56959744207
2.3905084133148193	118477.76726830695
2.393299102783203	112543.96840452537
2.3960859775543213	84873.87556738424
2.398869514465332	57455.61919418943
2.4016497135162354	43365.53904362444
2.4044265747070312	47356.744791130375
2.407200336456299	63984.431745729045
2.409970998764038	76083.0046019483
2.4127390384674072	81274.4012268883
2.415503978729248	76457.62624176363
2.418266534805298	59397.364547621655
2.4210267066955566	45638.377715947354
2.4237842559814453	39922.53918956349
2.426539897918701	39358.93533094782
2.429293394088745	60297.67418420023
2.4320452213287354	87696.12654698006
2.4347951412200928	78560.60777788317
2.4375438690185547	72989.72134343228
