#wavelength	surface flux
0.6450077295303345	1704.658916942804
0.6472567915916443	2592.7698004568992
0.6494921445846558	3175.1353412754684
0.6517150402069092	3387.3436862997582
0.6539263725280762	3586.854547784249
0.6561272740364075	3795.154565016398
0.6583186388015747	4012.8450037754333
0.6605015397071838	4240.623762566658
0.6626768708229065	4479.163499356021
0.6648455858230591	4729.126898832309
0.6670085787773132	4991.214915819437
0.6691668033599854	5266.1094429501045
0.6713210344314575	5554.725605984914
0.6734722256660461	5857.99885359572
0.6756211519241333	6176.289863899541
0.6777685880661011	6510.026369611503
0.6799154281616211	6860.022144626699
0.6820623278617859	7227.038901657077
0.6842101216316223	7611.614120942313
0.6863595843315125	8014.4352560087245
0.688511312007904	8436.302470237182
0.6906660795211792	8877.818340059443
0.6928245425224304	9340.021794662578
0.6949873566627502	9824.043320500612
0.6971551775932312	10330.20263979913
0.6993286609649658	10859.015438305723
0.7015084028244019	11411.660111861005
0.7036949396133423	11989.012833453304
0.7058889269828796	12591.776835683824
0.7080909013748169	13220.881637778082
0.710301399230957	13877.135106769269
0.712520956993103	14561.257216543887
0.7147500514984131	15274.07699951603
0.7169892191886902	16016.924485863658
0.7192389369010925	16791.355358953457
0.7214996814727783	17598.43342772445
0.723771870136261	18439.615042368183
0.7260559797286987	19316.209993860983
0.7283523678779602	20229.44192520198
0.7306615710258484	21181.654760774414
0.7329838871955872	22175.203752545392
0.7353196740150452	23211.091800593975
0.7376693487167358	24291.752048316735
0.7400332689285278	25419.625951003625
0.7424117922782898	26595.980552665256
0.7448052167892456	27824.179741276217
0.7472138404846191	29107.091473991324
0.7496379613876343	30446.45798074964
0.7520779371261597	31846.14372055691
0.7545340061187744	33309.72891497978
0.7570064663887024	34839.21488459824
0.7594954967498779	36437.563550850326
0.7620013952255249	38065.967695366475
0.7645244002342224	39527.18538005247
0.7670646905899048	40957.33121966821
0.7696225643157959	42869.291136477914
0.7721980810165405	45244.98906880139
0.7747915983200073	47648.65628172708
0.7774031162261963	49923.91778815795
0.7800329327583313	52209.92928934863
0.7826811671257019	54632.26912388335
0.7853479981422424	57181.88670256088
0.7880334854125977	59827.29538102639
0.7907378077507019	62570.77792631407
0.7934610247612	65400.38379985758
0.7962033748626709	68390.47380464364
0.7989648580551147	71582.15725796328
0.801745593547821	74895.3627750113
0.8045456409454346	78319.88641234528
0.8073651194572449	81887.82328946721
0.8102040886878967	85604.41960886198
0.8130625486373901	89478.37792800437
0.8159406185150146	93528.5079287229
0.8188382983207703	97754.63299778123
0.8217556476593018	102143.65201381441
0.8246926665306091	106717.23039220845
0.8276493549346924	111487.41010381091
0.8306257724761963	116437.40739622686
0.8336219191551208	121572.27183687709
0.8366377949714661	126905.46464500042
0.8396733403205872	132444.08049292307
0.8427285552024841	138200.5818197653
0.8458034992218018	144178.039102524
0.8488980531692505	150377.83070341352
0.8520121574401855	156808.3996040675
0.8551458716392517	163476.4279732256
0.8582990765571594	170389.33489658576
0.8614717125892639	177554.33047159703
0.8646637797355652	184977.8336040549
0.8678751587867737	192672.59276399983
0.8711057901382446	200650.15957634093
0.8743556141853333	208913.7990450701
0.87762451171875	217474.1556169017
0.8809124231338501	226345.0912778682
0.8842192888259888	235534.64701689966
0.8875449895858765	244926.71661239906
0.8908893465995789	253419.24362167684
0.894252359867096	261486.47736200996
0.8976338505744934	272833.9474376355
0.9010337591171265	286009.2839241903
0.9044519662857056	297940.2278899522
0.9078882932662964	309722.3249896815
0.9113426208496094	321875.24963161524
0.914814829826355	334447.9069389786
0.9183048605918884	347472.7765539521
0.9218124747276306	360961.19188425125
0.925337553024292	374746.69504626025
0.9288799166679382	388702.93982456543
0.9324395060539246	403016.0997057848
0.9360161423683167	418214.2597175918
0.9396095871925354	434745.9557656172
0.943219780921936	451875.3000696265
0.9468464851379395	468806.02348752914
0.9504896402359009	486055.203731868
0.9541489481925964	504083.75456505164
0.9578243494033813	522972.7050172878
0.9615156054496765	542593.4871333486
0.9652225375175476	562661.0719292521
0.9689450263977051	583341.8520824309
0.9726828336715698	604652.531253684
0.9764357805252075	626430.9718655949
0.9802037477493286	648948.6441181012
0.983986496925354	672335.3554139576
0.9877838492393494	696302.3781698876
0.9915955662727356	720813.5675034063
0.9954215884208679	746052.641993069
0.9992615580558777	772023.8702189937
1.0031154155731201	798657.784694284
1.0069829225540161	825942.000746632
1.0108637809753418	853944.8944470253
1.0147579908370972	882736.8490214341
1.018665075302124	912301.4233537028
1.022585153579712	942607.6205070476
1.0265177488327026	973684.3414869825
1.0304628610610962	1005565.2842854246
1.0344202518463135	1038252.0740110603
1.0383895635604858	1071748.2376796242
1.0423706769943237	1106098.5650845258
1.0463634729385376	1141314.532661622
1.0503677129745483	1177323.6466220466
1.0543830394744873	1214238.2495321687
1.058409333229065	1252245.190247082
1.0624464750289917	1291237.547377468
1.0664942264556885	1331114.2230536747
1.0705522298812866	1371965.223419358
1.0746204853057861	1413811.081474771
1.0786986351013184	1456589.233149256
1.0827864408493042	1500377.7595832127
1.086883783340454	1545098.3693887368
1.0909905433654785	1590525.9464153005
1.0951062440872192	1636762.3561518525
1.0992310047149658	1683222.203152691
1.10336434841156	1728171.5160728828
1.1075061559677124	1773183.7182705316
1.1116561889648438	1822743.4627032173
1.115814208984375	1877186.0101524978
1.1199802160263062	1931910.453134771
1.124153733253479	1986268.0512419078
1.1283347606658936	2041903.6547109971
1.1325229406356812	2095465.0453764738
1.1367181539535522	2152964.820448191
1.1409201622009277	2217051.374282437
1.145128846168518	2280728.0410766173
1.1493438482284546	2344279.9285500916
1.1535650491714478	2405145.9383465946
1.1577922105789185	2464645.3883541687
1.1620250940322876	2531213.4870264595
1.1662636995315552	2602155.2890080027
1.170507550239563	2671162.213865305
1.174756646156311	2739555.639645036
1.1790107488632202	2809702.187967634
1.1832695007324219	2882223.012037651
1.1875330209732056	2956239.7399867703
1.191800832748413	3031918.0204674276
1.1960728168487549	3109071.083098814
1.2003488540649414	3186739.7207689923
1.2046287059783936	3265099.64373693
1.2089121341705322	3344744.7767189876
1.2131990194320679	3426109.1581573803
1.2174891233444214	3509005.0297054364
1.2217823266983032	3593249.2143144067
1.2260783910751343	3678806.79328301
1.230377197265625	3765792.0001573083
1.2346785068511963	3853982.4846384795
1.238982081413269	3943300.5289778044
1.2432878017425537	4033983.4270403674
1.2475954294204712	4126362.9368153694
1.2519049644470215	4220239.019408973
1.256216049194336	4315405.035471871
1.2605286836624146	4412182.165549428
1.2648425102233887	4510380.593482444
1.2691574096679688	4609449.0464710565
1.2734732627868652	4709192.8988025375
1.2777899503707886	4810603.737261898
1.2821072340011597	4914565.074857372
1.2864248752593994	5020176.84289772
1.2907428741455078	5126430.626811375
1.2950609922409058	5234193.298419887
1.2993791103363037	5344129.766082686
1.303696870803833	5455795.40038688
1.3080145120620728	5568093.977295467
1.3123314380645752	5679782.461623282
1.3166478872299194	5793136.835403554
1.3209635019302368	5909099.871759165
1.3252781629562378	6024103.669916746
1.3295916318893433	6125711.081065235
1.3339040279388428	6181982.007333359
1.3382149934768677	6214168.884613777
1.3425244092941284	6254910.364525524
1.3468321561813354	6275177.46417604
1.3511382341384888	6277937.798398143
1.3554422855377197	6376048.71814092
1.3597444295883179	6614933.559287285
1.3640443086624146	6797879.490143765
1.3683418035507202	6908211.139534475
1.3726370334625244	7095488.072287467
1.3769296407699585	7326323.445471917
1.381219506263733	7508959.579523929
1.3855066299438477	7588403.052344059
1.3897908926010132	7619938.272867364
1.3940720558166504	7667914.72358216
1.3983501195907593	7783181.849302461
1.4026249647140503	7946771.454699761
1.4068963527679443	8150529.1852612635
1.4111642837524414	8336318.690861042
1.4154287576675415	8367744.097362446
1.419689416885376	8386930.00302329
1.4239463806152344	8549096.516530681
1.4281994104385376	8777772.58795827
1.4324485063552856	9011970.528554302
1.436693549156189	9228105.03662833
1.440934419631958	9401686.27187958
1.4451709985733032	9500666.3618149
1.449403166770935	9566850.67177036
1.453631043434143	9756978.604318008
1.4578542709350586	9992977.2648139
1.4620729684829712	10159656.294164656
1.4662868976593018	10344633.724553185
1.4704961776733398	10552528.953440923
1.4747005701065063	10742088.24887376
1.4788999557495117	10923810.985579476
1.4830944538116455	11088766.228219321
1.4872838258743286	11264279.384393359
1.491468071937561	11438655.92353408
1.4956470727920532	11604209.045594027
1.4998208284378052	11790346.00138475
1.5039892196655273	11966115.674034843
1.5081522464752197	12142835.988587245
1.5123097896575928	12339373.931632929
1.5164618492126465	12553231.485174283
1.5206083059310913	12760753.316734266
1.5247491598129272	12949306.480260206
1.5288842916488647	13133488.359569425
1.5330137014389038	13316218.907592032
1.5371372699737549	13502328.006945807
1.541254997253418	13684081.377947109
1.545366883277893	13868547.278007882
1.5494728088378906	14056967.229835393
1.5535727739334106	14239726.463603416
1.5576666593551636	14419804.569982663
1.561754584312439	14607256.658857336
1.5658363103866577	14801797.859516915
1.5699119567871094	14993722.28727313
1.5739814043045044	15182484.153094603
1.5780447721481323	15370518.8205511
1.582101821899414	15561513.53127921
1.5861525535583496	15756508.893024422
1.5901970863342285	15948382.245311687
1.5942351818084717	16138676.526095463
1.5982669591903687	16333349.031326804
1.6022924184799194	16530544.9648136
1.606311559677124	16725525.970265139
1.6103241443634033	16918037.451719917
1.6143304109573364	17113234.399562802
1.6183301210403442	17311812.222119555
1.6223233938217163	17510597.398412734
1.6263102293014526	17707593.29740193
1.6302905082702637	17904506.447628878
1.634264349937439	18107935.248731863
1.638231635093689	18315771.00400748
1.6421923637390137	18521588.443385836
1.646146535873413	18724409.869196407
1.6500942707061768	18921534.191780064
1.6540353298187256	19113494.81469753
1.6579699516296387	19299881.391226918
1.661897897720337	19495325.949653547
1.6658192873001099	19704125.316109743
1.6697341203689575	19911800.913425997
1.6736423969268799	20128523.962192614
1.677544116973877	20352364.851484798
1.6814392805099487	20572855.469928585
1.6853278875350952	20778094.663238008
1.6892099380493164	20967867.120056055
1.6930854320526123	21159899.01028012
1.696954369544983	21346831.050856877
1.7008168697357178	21530446.13521297
1.7046726942062378	21714574.410380658
1.708522081375122	21879398.266567696
1.712364912033081	22018756.673106898
1.7162011861801147	22168986.069407284
1.7200311422348022	22343379.107872806
1.723854422569275	22501927.038377315
1.7276713848114014	22666777.76480486
1.731481909751892	22845133.201161142
1.7352858781814575	22950568.54354867
1.7390835285186768	22971355.125879265
1.7428747415542603	23027141.610791262
1.7466596364974976	23036497.179151908
1.7504380941390991	23106611.434357762
1.7542102336883545	23420495.84950064
1.7579760551452637	23644716.21893309
1.7617355585098267	23762657.367466066
1.7654887437820435	23921224.519433912
1.7692357301712036	24059209.209077623
1.7729763984680176	24044461.53518919
1.776710867881775	23936278.542055406
1.7804391384124756	23978301.150867395
1.7841613292694092	24270382.190289542
1.7878772020339966	24718042.524372824
1.7915871143341064	24975819.502430737
1.7952908277511597	24740021.68596418
1.7989884614944458	24213073.01628866
1.8026801347732544	24342297.99473459
1.806365728378296	24712367.69911258
1.8100452423095703	24674999.516477726
1.8137187957763672	24865195.76266376
1.817386507987976	24988608.42642256
1.8210482597351074	25011448.120384343
1.8247040510177612	25154102.321269616
1.828354001045227	25197229.360609815
1.8319982290267944	25643794.339307066
1.8356364965438843	26234266.673385523
1.8392690420150757	26176085.519832667
1.8428958654403687	25741550.20230195
1.8465168476104736	25397037.327507805
1.8501322269439697	25240921.597432327
1.8537418842315674	25270182.445172973
1.8573459386825562	25096684.27160559
1.860944390296936	24966611.373642437
1.864537239074707	25394281.28834262
1.8681244850158691	26002534.765141197
1.871706247329712	26607546.092884835
1.8752825260162354	27136430.957866848
1.8788533210754395	27378626.836125907
1.8824186325073242	27479058.57225602
1.8859784603118896	27913296.351835757
1.8895330429077148	28575905.71880596
1.8930821418762207	28837348.248622768
1.8966259956359863	28960019.094115496
1.9001644849777222	29271151.787028376
1.9036977291107178	29447014.80495782
1.9072256088256836	29578506.105247576
1.9107483625411987	29532094.337620344
1.9142658710479736	29421106.773203958
1.9177782535552979	29960123.383651488
1.9212853908538818	30376606.705716703
1.9247875213623047	30452063.96309806
1.9282845258712769	30857659.59412739
1.9317764043807983	30932229.039316416
1.9352631568908691	30398872.271843556
1.9387450218200684	29357039.922673505
1.942221760749817	29291499.923257057
1.9456936120986938	30504036.51619914
1.9491604566574097	31053517.82073275
1.952622413635254	30789644.33680442
1.956079363822937	30388382.897214565
1.959531545639038	30498131.427552197
1.962978720664978	31294817.065511182
1.966421127319336	31986592.248729054
1.9698586463928223	32249646.646987557
1.9732913970947266	32357874.863612857
1.9767193794250488	32279181.72789352
1.9801424741744995	32609974.491914887
1.9835609197616577	33566679.5584014
1.9869745969772339	33965052.58032558
1.990383505821228	33679026.201376155
1.9937876462936401	33392289.291221272
1.9971871376037598	32975586.79766886
2.000581979751587	33295240.926267512
2.003972291946411	34195739.04549452
2.007357597351074	34502269.39873338
2.0107386112213135	34972358.730675414
2.0141148567199707	35423932.90700006
2.017486572265625	35474372.929224424
2.0208535194396973	35880750.42524361
2.0242159366607666	36358121.04723298
2.027573823928833	36492663.93769523
2.0309269428253174	36909817.14965897
2.034275770187378	37573863.38648768
2.0376198291778564	37895016.47360564
2.040959596633911	38085990.60016357
2.044294595718384	38221612.9764053
2.0476250648498535	38299911.83172141
2.0509510040283203	38456496.12874854
2.054272413253784	38781272.66220311
2.057589530944824	39326661.60048204
2.0609018802642822	39704080.88629336
2.0642096996307373	39977057.96791278
2.0675129890441895	40489313.89866241
2.0708119869232178	40878095.41775508
2.074106216430664	41048117.445723645
2.0773961544036865	41313584.39050828
2.080681324005127	41467121.79661038
2.0839622020721436	41539193.54588451
2.087238311767578	41832769.41127549
2.090510129928589	42284095.91554337
2.0937774181365967	42639989.28729157
2.0970399379730225	42866237.33301534
2.1002981662750244	43118072.41227099
2.1035518646240234	43406122.81105368
2.1068007946014404	43725710.592167795
2.1100454330444336	43976624.58152713
2.1132853031158447	44235124.90937825
2.116520881652832	44462951.91524761
2.1197516918182373	44726172.45895712
2.1229779720306396	45172312.38832797
2.12619948387146	45479662.619262114
2.1294167041778564	45582727.04044441
2.132629156112671	45802961.24236226
2.1358368396759033	46059929.77242619
2.139039993286133	46233418.6352378
2.1422386169433594	46538541.41606558
2.145432472229004	46945987.973645434
2.1486217975616455	47190540.24047098
2.151806354522705	47353132.16854738
2.1549863815307617	47618414.542000405
2.1581614017486572	47811259.85125055
2.16133189201355	47897312.122885294
2.1644976139068604	48077691.26522024
2.167658567428589	48399252.873479076
2.1708147525787354	48612359.02478396
2.173966407775879	48765608.12127453
2.1771130561828613	49019619.18217467
2.1802549362182617	49363970.65291785
2.183391809463501	49675343.01376749
2.1865241527557373	49821622.44599754
2.1896514892578125	49969763.5634813
2.1927738189697266	50151590.34374917
2.1958916187286377	50276376.71570636
2.1990041732788086	50250785.52938542
2.2021119594573975	50215494.002826974
2.2052149772644043	50482212.33500355
2.208312749862671	50891823.45013752
2.2114057540893555	51210755.340181045
2.214493751525879	51388737.523359105
2.217576742172241	51209765.7228883
2.2206547260284424	51026489.48324996
2.2237277030944824	51483072.265285835
2.2267956733703613	51905608.15203518
2.2298583984375	52072410.23164841
2.2329163551330566	52165734.990475714
2.235969066619873	51993050.20899059
2.2390167713165283	52225212.45794171
2.2420592308044434	52745580.962026335
2.2450966835021973	53051217.539832786
2.248128890991211	53131625.13308774
2.2511560916900635	52995313.29837351
2.254178285598755	52957643.484775685
2.257194995880127	53189045.90368531
2.260206699371338	53555932.52223466
2.2632133960723877	53638550.873739116
2.266214609146118	53428846.134257086
2.2692108154296875	53332622.29597306
2.2722020149230957	53643859.84775516
2.2751877307891846	54342010.25032348
2.278168201446533	54702441.97296213
2.2811436653137207	54671081.18175845
2.284113883972168	54813489.1164921
2.287078857421875	55121286.224085264
2.290038824081421	54646613.617
2.2929933071136475	52185066.26411652
2.295942783355713	50461597.41626557
2.298887014389038	51358487.26419247
2.301826238632202	51765872.050658345
2.304760217666626	50863763.52896333
2.3076889514923096	51202912.441832855
2.310612440109253	52923053.02171486
2.3135311603546143	53590331.718538426
2.3164443969726562	53329890.93076956
2.319352865219116	52737552.51252279
2.322256088256836	50743120.54918496
2.3251543045043945	49253410.87292262
2.328047275543213	50143017.96839528
2.330935478210449	51571083.42418619
2.3338186740875244	52354391.06953652
2.3366971015930176	52744455.98574562
2.3395702838897705	53344044.290580526
2.3424389362335205	53782360.68647976
2.3453025817871094	53635706.28319834
2.348161458969116	53888740.94476589
2.351015567779541	53124861.031388596
2.353865146636963	51855297.61082681
2.3567099571228027	52031207.18833685
2.3595502376556396	51860332.98217408
2.3623859882354736	51573603.327068
2.3652172088623047	52039108.73894938
2.368043899536133	52235255.439168975
2.370866537094116	52484858.905967444
2.3736846446990967	52872338.04220355
2.3764986991882324	52601239.13511192
2.3793084621429443	51644494.99187939
2.3821144104003906	50695844.610222034
2.384916305541992	50917076.06746664
2.387714147567749	52437275.87422624
2.3905084133148193	53286030.65514094
2.393299102783203	52236342.93192733
2.3960859775543213	51568242.848427504
2.398869514465332	51802959.00970602
2.4016497135162354	51583321.10051706
2.4044265747070312	51890556.422877915
2.407200336456299	52137884.949657045
2.409970998764038	51928181.83480217
2.4127390384674072	51722730.09257728
2.415503978729248	51045608.82267767
2.418266534805298	51149623.71866575
2.4210267066955566	51481345.88667383
2.4237842559814453	51134908.4679154
2.426539897918701	51104838.54061173
2.429293394088745	50814013.16684753
2.4320452213287354	49918214.44850499
2.4347951412200928	48177163.697016984
2.4375438690185547	47333240.62840079
2.440291166305542	47922013.006267294
2.443037271499634	47443467.886862
2.445782423019409	47290563.03885155
2.4485268592834473	47582626.52421991
2.451270818710327	45703298.48176104
2.454014539718628	44948499.57899158
2.4567582607269287	48213176.312482096
2.4595019817352295	49187431.31653986
2.4622461795806885	47824000.52164791
2.4649908542633057	47865857.31109582
2.4677364826202393	47260131.76854368
2.4704833030700684	45999358.15222368
2.473231554031372	43492071.03863809
2.4759814739227295	43329080.97065026
2.4787333011627197	45025415.86709383
2.481487512588501	43860939.39758454
