#wavelength	surface flux
0.6450077295303345	1.0287059382936141e-05
0.6472567915916443	1.604782854547498e-05
0.6494921445846558	2.060336162079744e-05
0.6517150402069092	2.3306312333998044e-05
0.6539263725280762	2.621382831483233e-05
0.6561272740364075	2.9508818127641486e-05
0.6583186388015747	3.327070749476618e-05
0.6605015397071838	3.759764110587727e-05
0.6626768708229065	4.261244481589823e-05
0.6648455858230591	4.8469701664311085e-05
0.6670085787773132	5.535654940660499e-05
0.6691668033599854	6.348295618791929e-05
0.6713210344314575	7.307433630329531e-05
0.6734722256660461	8.437788982164491e-05
0.6756211519241333	9.767244996606774e-05
0.6777685880661011	0.00011327154900321697
0.6799154281616211	0.0001315231427785766
0.6820623278617859	0.0001528096169637922
0.6842101216316223	0.00017754353317503047
0.6863595843315125	0.00020616126451573983
0.688511312007904	0.000239111901832065
0.6906660795211792	0.00027683796189389444
0.6928245425224304	0.00031978895433104924
0.6949873566627502	0.0003683974581939635
0.6971551775932312	0.0004229741896624552
0.6993286609649658	0.0004837356924350527
0.7015084028244019	0.0005509043422851825
0.7036949396133423	0.0006247268291070053
0.7058889269828796	0.0007055126600818412
0.7080909013748169	0.0007936557173216859
0.710301399230957	0.0008896367191893743
0.712520956993103	0.0009939624318614593
0.7147500514984131	0.0011070961535006214
0.7169892191886902	0.0012296702866070076
0.7192389369010925	0.0013625117728757652
0.7214996814727783	0.0015063264797049657
0.723771870136261	0.001661998111438811
0.7260559797286987	0.0018307308491207063
0.7283523678779602	0.0020136870823045357
0.7306615710258484	0.002212620666230526
0.7329838871955872	0.0024299269285075254
0.7353196740150452	0.0026673083921414788
0.7376693487167358	0.0029269656299331483
0.7400332689285278	0.0032122883327293256
0.7424117922782898	0.0035270046908639995
0.7448052167892456	0.0038756845870804926
0.7472138404846191	0.004263650765462355
0.7496379613876343	0.004697089827747806
0.7520779371261597	0.00518386522328101
0.7545340061187744	0.005733442242094952
0.7570064663887024	0.006357099458789035
0.7594954967498779	0.007068410955763703
0.7620013952255249	0.007881702475409123
0.7645244002342224	0.008810674652622023
0.7670646905899048	0.009868901276540644
0.7696225643157959	0.01107015488707988
0.7721980810165405	0.012427836281183432
0.7747915983200073	0.013951848218729612
0.7774031162261963	0.015627568401603828
0.7800329327583313	0.017472166356361226
0.7826811671257019	0.01958215285376414
0.7853479981422424	0.021926564692447022
0.7880334854125977	0.024421622521161007
0.7907378077507019	0.027046257429357637
0.7934610247612	0.02975022800589489
0.7962033748626709	0.03274015927124038
0.7989648580551147	0.036134966998516246
0.801745593547821	0.03972249547556406
0.8045456409454346	0.043501860139297334
0.8073651194572449	0.04760066801733803
0.8102040886878967	0.05206892029567083
0.8130625486373901	0.05698562984475422
0.8159406185150146	0.0625001528645406
0.8188382983207703	0.06871723196351379
0.8217556476593018	0.07568975627253897
0.8246926665306091	0.08358869765132997
0.8276493549346924	0.09255831828757476
0.8306257724761963	0.10263957071741495
0.8336219191551208	0.11396880100843523
0.8366377949714661	0.1267368080012399
0.8396733403205872	0.14110833139906323
0.8427285552024841	0.15726200037019475
0.8458034992218018	0.17536386674043383
0.8488980531692505	0.19558860974012104
0.8520121574401855	0.21815568008466282
0.8551458716392517	0.24331260664320328
0.8582990765571594	0.27126069894004673
0.8614717125892639	0.30218677110158626
0.8646637797355652	0.33632291448693397
0.8678751587867737	0.373897453127192
0.8711057901382446	0.4151498346631125
0.8743556141853333	0.46036392565669976
0.87762451171875	0.5098812147937556
0.8809124231338501	0.5641093788120866
0.8842192888259888	0.6235059852322604
0.8875449895858765	0.6879584932855576
0.8908893465995789	0.7526808864106569
0.894252359867096	0.8198917242749355
0.8976338505744934	0.9072468362448739
0.9010337591171265	1.010045257518957
0.9044519662857056	1.1146201476263806
0.9078882932662964	1.2245218163142557
0.9113426208496094	1.3426289591910254
0.914814829826355	1.4706847856756005
0.9183048605918884	1.6096747474394626
0.9218124747276306	1.7608217957139638
0.925337553024292	1.922665908224488
0.9288799166679382	2.0882250767281216
0.9324395060539246	2.2554809419712765
0.9360161423683167	2.452073976546885
0.9396095871925354	2.707321428249323
0.943219780921936	2.989233865083411
0.9468464851379395	3.2655589786529156
0.9504896402359009	3.5626281373230593
0.9541489481925964	3.90100245511613
0.9578243494033813	4.287227930736722
0.9615156054496765	4.722091580773086
0.9652225375175476	5.1974363971964666
0.9689450263977051	5.718808936467248
0.9726828336715698	6.292859131519973
0.9764357805252075	6.928993883894076
0.9802037477493286	7.640724572960392
0.983986496925354	8.432454807331126
0.9877838492393494	9.302637856750778
0.9915955662727356	10.256012815968058
0.9954215884208679	11.302076631820853
0.9992615580558777	12.444192806664937
1.0031154155731201	13.682667676166211
1.0069829225540161	15.020832162811546
1.0108637809753418	16.465277033046835
1.0147579908370972	18.022607563870096
1.018665075302124	19.697435041529303
1.022585153579712	21.49417767962936
1.0265177488327026	23.421604541463854
1.0304628610610962	25.4883042267971
1.0344202518463135	27.70123178629638
1.0383895635604858	30.06847766241348
1.0423706769943237	32.59871920402177
1.0463634729385376	35.30227281541861
1.0503677129745483	38.190148191137105
1.0543830394744873	41.27403094453512
1.058409333229065	44.56641613040613
1.0624464750289917	48.08093761115411
1.0664942264556885	51.83305880417091
1.0705522298812866	55.83918609879053
1.0746204853057861	60.12117385509176
1.0786986351013184	64.70008163353121
1.0827864408493042	69.58982004761059
1.086883783340454	74.7964278190102
1.0909905433654785	80.34484007113764
1.0951062440872192	86.28264475422185
1.0992310047149658	92.53927563859175
1.10336434841156	98.89988861285246
1.1075061559677124	105.36546150835353
1.1116561889648438	112.30614056520704
1.115814208984375	120.09647635085697
1.1199802160263062	128.35134088675292
1.124153733253479	137.82646681170203
1.1283347606658936	149.08412829579757
1.1325229406356812	160.10824744983415
1.1367181539535522	172.2043825311833
1.1409201622009277	186.44099279089951
1.145128846168518	200.8768232948375
1.1493438482284546	215.51791104765692
1.1535650491714478	229.8167889982082
1.1577922105789185	244.790514609028
1.1620250940322876	263.7369292301965
1.1662636995315552	285.25132886420784
1.170507550239563	306.63769786273156
1.174756646156311	328.90092340904204
1.1790107488632202	352.76763215672264
1.1832695007324219	378.1783324527072
1.1875330209732056	405.31208289374433
1.191800832748413	434.2848660368596
1.1960728168487549	465.1544411783113
1.2003488540649414	497.9561730852232
1.2046287059783936	532.8999854215132
1.2089121341705322	570.1558440469595
1.2131990194320679	609.8608090078012
1.2174891233444214	652.2388958130877
1.2217823266983032	697.377924710082
1.2260783910751343	745.3924424076416
1.230377197265625	796.4541130508373
1.2346785068511963	850.7823519267522
1.238982081413269	908.6507645486363
1.2432878017425537	970.1306367953171
1.2475954294204712	1035.4022169608504
1.2519049644470215	1104.7389211050756
1.256216049194336	1178.388617887412
1.2605286836624146	1256.5906194283873
1.2648425102233887	1339.5023360191817
1.2691574096679688	1427.2931036481343
1.2734732627868652	1520.1593278436235
1.2777899503707886	1618.401076041407
1.2821072340011597	1722.583900171936
1.2864248752593994	1832.9815860992821
1.2907428741455078	1949.2158404982442
1.2950609922409058	2072.2029649402793
1.2993791103363037	2203.318629095489
1.303696870803833	2342.170903834767
1.3080145120620728	2487.4184578287973
1.3123314380645752	2637.9199488077006
1.3166478872299194	2797.45359570356
1.3209635019302368	2969.209805374395
1.3252781629562378	3148.465680185812
1.3295916318893433	3323.784618700739
1.3339040279388428	3472.1464527820317
1.3382149934768677	3583.464797560546
1.3425244092941284	3661.5282638111994
1.3468321561813354	3704.297654681346
1.3511382341384888	3710.208913802384
1.3554422855377197	3789.760410962088
1.3597444295883179	4035.304160486599
1.3640443086624146	4307.061437182946
1.3683418035507202	4620.775547072568
1.3726370334625244	5080.546257183455
1.3769296407699585	5561.8838176656
1.381219506263733	5922.659604028777
1.3855066299438477	6155.517759078051
1.3897908926010132	6338.460717567883
1.3940720558166504	6501.145326503292
1.3983501195907593	6792.202288354805
1.4026249647140503	7278.7464958567225
1.4068963527679443	7855.193530614432
1.4111642837524414	8295.63838333883
1.4154287576675415	8416.238995530535
1.419689416885376	8533.063890582507
1.4239463806152344	8975.004394878559
1.4281994104385376	9615.294397666932
1.4324485063552856	10434.975799125494
1.436693549156189	11315.68219610744
1.440934419631958	12105.249443835797
1.4451709985733032	12761.214206452669
1.449403166770935	13308.353568299572
1.453631043434143	14182.811477454507
1.4578542709350586	15249.464209701457
1.4620729684829712	16087.158606446363
1.4662868976593018	16820.330303395356
1.4704961776733398	17559.244215171668
1.4747005701065063	18376.850297424273
1.4788999557495117	19351.130314180187
1.4830944538116455	20327.722867549277
1.4872838258743286	21302.808668514568
1.491468071937561	22320.03400037186
1.4956470727920532	23408.589084172374
1.4998208284378052	24569.278829487008
1.5039892196655273	25698.32511375227
1.5081522464752197	26929.96237283101
1.5123097896575928	28238.976555363166
1.5164618492126465	29564.068968167256
1.5206083059310913	30936.6016807698
1.5247491598129272	32300.87188988018
1.5288842916488647	33664.39513128392
1.5330137014389038	35065.54116333165
1.5371372699737549	36539.254901924935
1.541254997253418	38035.10181952656
1.545366883277893	39554.67296864492
1.5494728088378906	41136.65333734191
1.5535727739334106	42768.341106559456
1.5576666593551636	44438.305684530285
1.561754584312439	46154.659600520645
1.5658363103866577	47922.730861053715
1.5699119567871094	49736.3586174722
1.5739814043045044	51598.26968928504
1.5780447721481323	53514.28396231132
1.582101821899414	55481.92447516503
1.5861525535583496	57503.202113073974
1.5901970863342285	59578.65880327211
1.5942351818084717	61710.86505220867
1.5982669591903687	63903.636601811486
1.6022924184799194	66150.34976018424
1.606311559677124	68447.88297923627
1.6103241443634033	70800.37545182256
1.6143304109573364	73090.87092196615
1.6183301210403442	74242.65898513776
1.6223233938217163	72738.10635396194
1.6263102293014526	70431.71858607307
1.6302905082702637	69702.15173334842
1.634264349937439	72231.9544419718
1.638231635093689	79570.1277479203
1.6421923637390137	86325.13404947903
1.646146535873413	87512.69410030973
1.6500942707061768	87621.86548033914
1.6540353298187256	89227.84957564042
1.6579699516296387	91887.19556917893
1.661897897720337	93825.2389395455
1.6658192873001099	89191.1821719351
1.6697341203689575	90102.5548950946
1.6736423969268799	101938.80576658023
1.677544116973877	108484.72750632833
1.6814392805099487	109487.64062768547
1.6853278875350952	111498.27384382534
1.6892099380493164	113006.10350647802
1.6930854320526123	113465.34772911413
1.696954369544983	109258.59839341509
1.7008168697357178	98764.00639767815
1.7046726942062378	95470.5154261716
1.708522081375122	109057.16819664097
1.712364912033081	128687.67797402017
1.7162011861801147	141536.68486510825
1.7200311422348022	143935.58960165922
1.723854422569275	134755.65039605804
1.7276713848114014	123749.31774336031
1.731481909751892	126182.95296894459
1.7352858781814575	141861.37237073516
1.7390835285186768	157000.5404123812
1.7428747415542603	162117.19622197817
1.7466596364974976	162931.76524503969
1.7504380941390991	169057.16301082986
1.7542102336883545	178183.41331386313
1.7579760551452637	180441.93115286023
1.7617355585098267	180139.50555837512
1.7654887437820435	185040.61322856628
1.7692357301712036	187636.57274963195
1.7729763984680176	183285.50124931615
1.776710867881775	187257.4223590061
1.7804391384124756	198732.91333371075
1.7841613292694092	195655.13251912853
1.7878772020339966	183870.16575833704
1.7915871143341064	177557.31395176527
1.7952908277511597	187145.43598623044
1.7989884614944458	201983.16765636948
1.8026801347732544	209622.4986465567
1.806365728378296	215216.92030410742
1.8100452423095703	214571.3719549516
1.8137187957763672	215005.17240548853
1.817386507987976	217706.88931768108
1.8210482597351074	224201.2581554937
1.8247040510177612	238487.3530025961
1.828354001045227	244656.60689969856
1.8319982290267944	247448.28727816974
1.8356364965438843	251459.90263440466
1.8392690420150757	253642.35543551703
1.8428958654403687	261053.95730376052
1.8465168476104736	265089.8679345103
1.8501322269439697	266233.8835956362
1.8537418842315674	268094.9448794646
1.8573459386825562	261579.29875125788
1.860944390296936	253917.03200464652
1.864537239074707	255433.65793283822
1.8681244850158691	259992.65301951865
1.871706247329712	274345.75657113455
1.8752825260162354	305943.0862742918
1.8788533210754395	334418.2934510799
1.8824186325073242	346464.7186446064
1.8859784603118896	360498.5653596058
1.8895330429077148	382402.1003257697
1.8930821418762207	396904.42694228987
1.8966259956359863	398673.12748488405
1.9001644849777222	393293.6679526001
1.9036977291107178	393776.40927037364
1.9072256088256836	397717.53658565116
1.9107483625411987	382241.04857667495
1.9142658710479736	370892.7163895006
1.9177782535552979	394342.8834374834
1.9212853908538818	409797.83095208846
1.9247875213623047	409275.27627741557
1.9282845258712769	415161.8591541817
1.9317764043807983	420384.3799590286
1.9352631568908691	421361.04568127246
1.9387450218200684	403112.4806466924
1.942221760749817	405694.28014024737
1.9456936120986938	441539.51838032657
1.9491604566574097	460204.94307770504
1.952622413635254	462129.3276903189
1.956079363822937	460137.9936608269
1.959531545639038	467170.698746903
1.962978720664978	491023.31649813196
1.966421127319336	527884.7536415007
1.9698586463928223	558424.3959694856
1.9732913970947266	572599.2595602102
1.9767193794250488	586924.177612426
1.9801424741744995	609222.7283320117
1.9835609197616577	638751.8518700537
1.9869745969772339	653282.6983296787
1.990383505821228	654069.3820779384
1.9937876462936401	667668.0909874288
1.9971871376037598	673766.7707971974
2.000581979751587	686703.8856021925
2.003972291946411	718899.8758098228
2.007357597351074	733770.858633093
2.0107386112213135	751471.2292917385
2.0141148567199707	775101.7774350772
2.017486572265625	786290.1539553187
2.0208535194396973	809745.0737421019
2.0242159366607666	835848.3103137848
2.027573823928833	842390.5817379128
2.0309269428253174	850710.8606371466
2.034275770187378	876043.0887476404
2.0376198291778564	902573.3992950054
2.040959596633911	919176.6327097767
2.044294595718384	932880.0493165706
2.0476250648498535	945570.4611064561
2.0509510040283203	953333.6377720078
2.054272413253784	966522.8813774249
2.057589530944824	989923.3575658308
2.0609018802642822	1010028.7835329698
2.0642096996307373	1024977.8475151828
2.0675129890441895	1041157.9334751357
2.0708119869232178	1057691.3316003198
2.074106216430664	1073554.0501701797
2.0773961544036865	1087581.88942702
2.080681324005127	1099085.4369688604
2.0839622020721436	1112865.3015103687
2.087238311767578	1130041.9924334555
2.090510129928589	1147301.5004645407
2.0937774181365967	1164701.230844091
2.0970399379730225	1181532.7583758002
2.1002981662750244	1196128.373240527
2.1035518646240234	1209813.3645400363
2.1068007946014404	1226390.5291163756
2.1100454330444336	1243931.8907246178
2.1132853031158447	1259940.6141249472
2.116520881652832	1274618.9063966887
2.1197516918182373	1290164.027235812
2.1229779720306396	1308826.3627156466
2.12619948387146	1327049.1007082043
2.1294167041778564	1342950.290474972
2.132629156112671	1358942.8292671747
2.1358368396759033	1375922.5596235797
2.139039993286133	1390232.4830469217
2.1422386169433594	1397929.3433208668
2.145432472229004	1400749.2920000155
2.1486217975616455	1395178.9171285594
2.151806354522705	1392178.7011698312
2.1549863815307617	1408428.9062157837
2.1581614017486572	1434099.4852866589
2.16133189201355	1450654.7563223122
2.1644976139068604	1477008.002074436
2.167658567428589	1513035.6534185242
2.1708147525787354	1530541.764323106
2.173966407775879	1533579.5841166945
2.1771130561828613	1548617.0740407223
2.1802549362182617	1583446.8678502508
2.183391809463501	1610423.7214635636
2.1865241527557373	1628738.7275004315
2.1896514892578125	1648774.4308526095
2.1927738189697266	1665795.8797506639
2.1958916187286377	1553267.0843927786
2.1990041732788086	1228218.0654933723
2.2021119594573975	1030753.2625273576
2.2052149772644043	1227507.6792845062
2.208312749862671	1571223.7351577263
2.2114057540893555	1749016.3041914096
2.214493751525879	1718873.5445923924
2.217576742172241	1550711.8484998022
2.2206547260284424	1341162.6261574882
2.2237277030944824	1212142.6308808972
2.2267956733703613	1139807.1670018279
2.2298583984375	1076693.6784685089
2.2329163551330566	1081898.3393955517
2.235969066619873	1175750.461836071
2.2390167713165283	1248318.0059407193
2.2420592308044434	1165194.0822539846
2.2450966835021973	1000916.0968563036
2.248128890991211	944266.7136923819
2.2511560916900635	995992.8928130666
2.254178285598755	1042360.6094017625
2.257194995880127	1102267.6214087773
2.260206699371338	1206119.615239031
2.2632133960723877	1266402.4040645587
2.266214609146118	1267382.9853235446
2.2692108154296875	1299073.749172161
2.2722020149230957	1376169.2383435634
2.2751877307891846	1364511.436858065
2.278168201446533	1353748.890836654
2.2811436653137207	1351848.870821339
2.284113883972168	1198785.7165806273
2.287078857421875	1018793.4454951514
2.290038824081421	941716.3319085095
2.2929933071136475	929225.6527207354
2.295942783355713	895494.1162327947
2.298887014389038	877573.9528486494
2.301826238632202	996158.4964129564
2.304760217666626	1243722.9018227838
2.3076889514923096	1535798.4233878157
2.310612440109253	1869111.2393791953
2.3135311603546143	1917418.319766511
2.3164443969726562	1331715.7414056198
2.319352865219116	889118.1768282503
2.322256088256836	1141596.2072566268
2.3251543045043945	1475108.122065697
2.328047275543213	1589935.937339421
2.330935478210449	1500726.2685136667
2.3338186740875244	1276843.584492977
2.3366971015930176	1067055.1183952533
2.3395702838897705	934404.3443825081
2.3424389362335205	919853.6134000818
2.3453025817871094	888554.5423887267
2.348161458969116	879080.7610447702
2.351015567779541	976288.4003988449
2.353865146636963	1158406.5237603548
2.3567099571228027	1490618.1586933841
2.3595502376556396	1849240.5964543815
2.3623859882354736	2046681.7528086007
2.3652172088623047	2000101.540888843
2.368043899536133	1548916.3639480292
2.370866537094116	925182.0996006564
2.3736846446990967	729665.0512555356
2.3764986991882324	1019676.1587412205
2.3793084621429443	1474421.981997514
2.3821144104003906	1680113.898713479
2.384916305541992	1640728.3459623072
2.387714147567749	1794341.3521699335
2.3905084133148193	2032952.439105243
2.393299102783203	1923605.331875475
2.3960859775543213	1481039.2579123813
2.398869514465332	1073703.5585305092
2.4016497135162354	889185.79140602
2.4044265747070312	943785.579856452
2.407200336456299	1161318.4326493044
2.409970998764038	1332128.1224668887
2.4127390384674072	1406992.119314356
2.415503978729248	1313402.3615646202
2.418266534805298	1061255.6912916917
2.4210267066955566	896997.3950288588
2.4237842559814453	836885.0906576333
2.426539897918701	818387.4848699768
2.429293394088745	1098233.648191166
2.4320452213287354	1492542.4688760813
2.4347951412200928	1366501.2706399593
2.4375438690185547	1269780.2949255637
2.440291166305542	1538532.286926705
2.443037271499634	1529272.7952149014
2.445782423019409	1396300.1800875505
2.4485268592834473	1461466.2763962063
2.451270818710327	1470133.6550829993
2.454014539718628	1437135.4953902685
2.4567582607269287	1510898.736583241
2.4595019817352295	1572307.5777446236
