#wavelength	surface_flux
0.6450077295303345	418073.1185645671
0.6472567915916443	630412.0016643623
0.6494921445846558	759951.2217177146
0.6517150402069092	797653.3649065555
0.6539263725280762	831483.4587449684
0.6561272740364075	862658.6527756356
0.6583186388015747	893544.2766605956
0.6605015397071838	926370.2469016876
0.6626768708229065	959308.3181017131
0.6648455858230591	991872.6078689486
0.6670085787773132	1025631.4278115483
0.6691668033599854	1060828.032610212
0.6713210344314575	1097776.187850051
0.6734722256660461	1138823.6149288297
0.6756211519241333	1183588.7380129131
0.6777685880661011	1228739.6512035965
0.6799154281616211	1274131.138491973
0.6820623278617859	1321462.2873009879
0.6842101216316223	1368992.8466440807
0.6863595843315125	1415046.389342086
0.688511312007904	1462405.2774556144
0.6906660795211792	1516078.732472308
0.6928245425224304	1577842.5361730014
0.6949873566627502	1645123.7053625688
0.6971551775932312	1712394.5257775849
0.6993286609649658	1778822.2226551098
0.7015084028244019	1852934.7907910254
0.7036949396133423	1927193.5738131157
0.7058889269828796	1974491.598624483
0.7080909013748169	2006129.3164397106
0.710301399230957	2052057.6414408355
0.712520956993103	2109555.780777363
0.7147500514984131	2175225.1040666495
0.7169892191886902	2255226.931364488
0.7192389369010925	2341850.162049681
0.7214996814727783	2429697.276331731
0.723771870136261	2529590.193020106
0.7260559797286987	2639720.671134435
0.7283523678779602	2753767.0808933186
0.7306615710258484	2867960.2456448185
0.7329838871955872	2915511.333154632
0.7353196740150452	2871220.558421014
0.7376693487167358	2838687.081713341
0.7400332689285278	2845201.1247513676
0.7424117922782898	2870350.9102121475
0.7448052167892456	2925295.946562163
0.7472138404846191	3014139.9507761663
0.7496379613876343	3138224.7998152208
0.7520779371261597	3279050.9836469805
0.7545340061187744	3442289.1317789406
0.7570064663887024	3618447.5359254065
0.7594954967498779	3788884.9833386946
0.7620013952255249	3862126.0428589573
0.7645244002342224	3521185.4527504216
0.7670646905899048	2991587.3870164966
0.7696225643157959	3053130.5072186175
0.7721980810165405	3772118.029631868
0.7747915983200073	4527206.947199714
0.7774031162261963	4935349.907865933
0.7800329327583313	5139187.054582829
0.7826811671257019	5374614.723612835
0.7853479981422424	5627948.762674595
0.7880334854125977	5826490.489498185
0.7907378077507019	5927238.463665923
0.7934610247612	5936347.089952582
0.7962033748626709	6008077.883165759
0.7989648580551147	6166718.825440947
0.801745593547821	6346856.751708014
0.8045456409454346	6564926.686414367
0.8073651194572449	6886342.104979245
0.8102040886878967	7342886.75928165
0.8130625486373901	7870113.303793656
0.8159406185150146	8378589.422021485
0.8188382983207703	8755321.996072786
0.8217556476593018	9089870.396827111
0.8246926665306091	9496696.94813258
0.8276493549346924	9820052.830382116
0.8306257724761963	10058587.777627453
0.8336219191551208	10351998.746475317
0.8366377949714661	10671781.926815877
0.8396733403205872	10952204.389447784
0.8427285552024841	11049390.196955252
0.8458034992218018	10989878.827284692
0.8488980531692505	11048695.851874672
0.8520121574401855	11094833.44583593
0.8551458716392517	11071152.927574854
0.8582990765571594	11088856.608964484
0.8614717125892639	11077866.193651406
0.8646637797355652	11128784.619859852
0.8678751587867737	11317235.551506294
0.8711057901382446	11710561.888832906
0.8743556141853333	12300951.066950439
0.87762451171875	13045917.516882744
0.8809124231338501	13933524.564407444
0.8842192888259888	14826325.726058496
0.8875449895858765	15647240.567103643
0.8908893465995789	16462208.073072078
0.894252359867096	17240591.870691847
0.8976338505744934	18096410.95566896
0.9010337591171265	19076401.896084934
0.9044519662857056	20016934.042249642
0.9078882932662964	21043681.82686537
0.9113426208496094	22195731.028407
0.914814829826355	23337058.31133756
0.9183048605918884	24041086.02341409
0.9218124747276306	23722097.514782157
0.925337553024292	23041104.04333039
0.9288799166679382	22897012.674971282
0.9324395060539246	23336980.366109613
0.9360161423683167	24209748.13396421
0.9396095871925354	25236135.927220512
0.943219780921936	26240364.767851267
0.9468464851379395	27282166.065830287
0.9504896402359009	28337046.487691887
0.9541489481925964	29322874.338066813
0.9578243494033813	30311198.445309266
0.9615156054496765	31369822.93724004
0.9652225375175476	32566869.747969225
0.9689450263977051	33589444.48578624
0.9726828336715698	33910451.992416054
0.9764357805252075	34111255.05723992
0.9802037477493286	34739466.98862857
0.983986496925354	35693613.46281202
0.9877838492393494	36550479.2186011
0.9915955662727356	36682712.48441876
0.9954215884208679	37124472.25722667
0.9992615580558777	37999550.42912315
1.0031154155731201	38612242.29175626
1.0069829225540161	39593745.73722491
1.0108637809753418	41060094.803107366
1.0147579908370972	42324752.79646861
1.018665075302124	43332188.15776706
1.022585153579712	44301698.36950163
1.0265177488327026	45019413.228773445
1.0304628610610962	46123546.94721709
1.0344202518463135	47894822.18898547
1.0383895635604858	49755144.0119406
1.0423706769943237	51394447.964531
1.0463634729385376	52567710.21278029
1.0503677129745483	53271611.57393935
1.0543830394744873	53976929.98239728
1.058409333229065	55234717.066106096
1.0624464750289917	57096853.247912005
1.0664942264556885	59201090.83065413
1.0705522298812866	61538903.54606146
1.0746204853057861	64071760.052655704
1.0786986351013184	66486568.80244824
1.0827864408493042	68444592.43881625
1.086883783340454	69408186.66649985
1.0909905433654785	69372681.15120795
1.0951062440872192	68631434.16668415
1.0992310047149658	67353990.07711473
1.10336434841156	65502746.21449728
1.1075061559677124	64313312.91411832
1.1116561889648438	65091352.61429654
1.115814208984375	66573281.57747842
1.1199802160263062	68059652.196863
1.124153733253479	70217023.36932838
1.1283347606658936	71860634.50175531
1.1325229406356812	71492140.80618814
1.1367181539535522	70143458.42611134
1.1409201622009277	70473102.09884389
1.145128846168518	73645968.72236569
1.1493438482284546	77268051.02171658
1.1535650491714478	79284609.99860013
1.1577922105789185	80477485.75646317
1.1620250940322876	81337699.35398775
1.1662636995315552	80947244.40823658
1.170507550239563	80047552.44647336
1.174756646156311	79484140.88164143
1.1790107488632202	79934657.11723211
1.1832695007324219	82850150.25599334
1.1875330209732056	86103217.63507736
1.191800832748413	87908169.57897075
1.1960728168487549	88987553.67173606
1.2003488540649414	90504078.37923579
1.2046287059783936	93245964.2362792
1.2089121341705322	95992011.13547626
1.2131990194320679	98529225.03674388
1.2174891233444214	101077697.27036038
1.2217823266983032	103150613.52425471
1.2260783910751343	105343728.89838542
1.230377197265625	107270700.76534797
1.2346785068511963	108055487.46958552
1.238982081413269	106560431.31071655
1.2432878017425537	103949491.61507411
1.2475954294204712	104022902.51711683
1.2519049644470215	105375784.47576706
1.256216049194336	107470332.10739248
1.2605286836624146	110849391.18656899
1.2648425102233887	113686245.10857974
1.2691574096679688	116114573.8320463
1.2734732627868652	118352030.91799125
1.2777899503707886	120667078.95541902
1.2821072340011597	122344974.88521966
1.2864248752593994	122693770.77514462
1.2907428741455078	123399483.06179793
1.2950609922409058	125458311.65301394
1.2993791103363037	127475255.58596578
1.303696870803833	128505635.7910583
1.3080145120620728	128264262.4212729
1.3123314380645752	127553736.90608709
1.3166478872299194	128018626.49993667
1.3209635019302368	128416986.1309805
1.3252781629562378	126341181.86451447
1.3295916318893433	120001768.9928366
1.3339040279388428	109683319.18323849
1.3382149934768677	101417476.1518765
1.3425244092941284	98182627.03107429
1.3468321561813354	96981351.95338361
1.3511382341384888	95940563.57268067
1.3554422855377197	95078876.16192049
1.3597444295883179	95389712.7993415
1.3640443086624146	96714703.94221884
1.3683418035507202	97618118.88950601
1.3726370334625244	98196924.97206989
1.3769296407699585	99859895.04718046
1.381219506263733	101620856.30777107
1.3855066299438477	102434424.71818613
1.3897908926010132	102361724.09063618
1.3940720558166504	101672518.0218934
1.3983501195907593	101305419.69719471
1.4026249647140503	101619693.65659969
1.4068963527679443	101700490.29060732
1.4111642837524414	100915181.88204987
1.4154287576675415	100258769.53353907
1.419689416885376	100166426.57313018
1.4239463806152344	100165780.7921468
1.4281994104385376	100490962.4186726
1.4324485063552856	101658827.15478936
1.436693549156189	103171982.43498771
1.440934419631958	104531943.48831756
1.4451709985733032	105915320.79048489
1.449403166770935	107798759.48558283
1.453631043434143	110034341.57335766
1.4578542709350586	111905636.86821885
1.4620729684829712	112863811.83183056
1.4662868976593018	113188745.60901512
1.4704961776733398	113719946.65205635
1.4747005701065063	114882251.32551993
1.4788999557495117	116254994.71123295
1.4830944538116455	117514372.72153571
1.4872838258743286	118726603.76032838
1.491468071937561	119745046.38316227
1.4956470727920532	120923007.05554605
1.4998208284378052	122200792.88345526
1.5039892196655273	123466440.8802376
1.5081522464752197	124887810.60945886
1.5123097896575928	126400113.64218035
1.5164618492126465	127725241.04718561
1.5206083059310913	129061831.1862626
1.5247491598129272	130427342.68353786
1.5288842916488647	131628283.16942252
1.5330137014389038	132927071.12947683
1.5371372699737549	134372938.3691115
1.541254997253418	135888245.57294554
1.545366883277893	137538405.40346265
1.5494728088378906	139179967.8739182
1.5535727739334106	140415093.64283463
1.5576666593551636	141299222.58207726
1.561754584312439	142600729.36294267
1.5658363103866577	144480206.01478583
1.5699119567871094	146237689.05989772
1.5739814043045044	147692227.88621
1.5780447721481323	148797273.1842638
1.582101821899414	149962294.95905307
1.5861525535583496	151444387.33583245
1.5901970863342285	152726233.3491149
1.5942351818084717	153824761.97449234
1.5982669591903687	154902893.33418256
1.6022924184799194	155879488.67831758
1.606311559677124	156914178.68693662
1.6103241443634033	157929319.54778656
1.6143304109573364	159092562.63179424
1.6183301210403442	160364553.460276
1.6223233938217163	161655515.95380056
1.6263102293014526	163090024.74267268
1.6302905082702637	164444989.11624613
1.634264349937439	165931119.3756332
1.638231635093689	167522436.89276135
1.6421923637390137	168983618.4908152
1.646146535873413	170450805.4050132
1.6500942707061768	171485989.1666484
1.6540353298187256	172493150.35302952
1.6579699516296387	173570623.60881746
1.661897897720337	174522665.07110322
1.6658192873001099	175855196.4666531
1.6697341203689575	176948695.60819846
1.6736423969268799	177930666.44251633
1.677544116973877	178988677.3923431
1.6814392805099487	179514781.79537502
1.6853278875350952	179220878.4914131
1.6892099380493164	178520051.5615629
1.6930854320526123	177491820.65634844
1.696954369544983	175896297.80522534
1.7008168697357178	174676234.4753116
1.7046726942062378	173349413.29549325
1.708522081375122	171045817.0803459
1.712364912033081	168097464.85803798
1.7162011861801147	164858724.64176327
1.7200311422348022	162852388.93118736
1.723854422569275	162285586.71747985
1.7276713848114014	161336878.40022627
1.731481909751892	159575350.69749102
1.7352858781814575	157914241.92449772
1.7390835285186768	156841385.59120786
1.7428747415542603	155676707.00257605
1.7466596364974976	154110177.05144608
1.7504380941390991	152810198.26364094
1.7542102336883545	151354726.02540407
1.7579760551452637	149705412.7428564
1.7617355585098267	148841640.4399476
1.7654887437820435	147942057.75300694
1.7692357301712036	146029491.71494147
1.7729763984680176	143922909.18482238
1.776710867881775	142357453.9275237
1.7804391384124756	141253273.0635092
1.7841613292694092	139898421.84323564
1.7878772020339966	138753801.3231596
1.7915871143341064	138071233.3767499
1.7952908277511597	137318964.02310264
1.7989884614944458	135901025.2374056
1.8026801347732544	134181479.25046538
1.806365728378296	133273080.79220532
1.8100452423095703	132875936.66791096
1.8137187957763672	133745200.06463966
1.817386507987976	133655992.97168349
1.8210482597351074	132531495.4042975
1.8247040510177612	132868059.5748025
1.828354001045227	132830477.27074088
1.8319982290267944	132222080.66036583
1.8356364965438843	131733598.68116187
1.8392690420150757	130970939.11521237
1.8428958654403687	129290592.23790649
1.8465168476104736	127108733.08457585
1.8501322269439697	126984009.56827271
1.8537418842315674	126717564.14259033
1.8573459386825562	123129891.25463168
1.860944390296936	120876486.40702447
1.864537239074707	122724322.42890131
1.8681244850158691	125634519.33882302
1.871706247329712	127070129.80140461
1.8752825260162354	127095133.16608013
1.8788533210754395	128132095.60317421
1.8824186325073242	130945971.21754062
1.8859784603118896	132874705.54370391
1.8895330429077148	132606947.50272976
1.8930821418762207	132139573.15729558
1.8966259956359863	133425351.01029143
1.9001644849777222	135165620.65114966
1.9036977291107178	135492849.74336472
1.9072256088256836	135335496.50999016
1.9107483625411987	135367302.78951594
1.9142658710479736	135637910.36334822
1.9177782535552979	135602879.71871543
1.9212853908538818	134863229.75761628
1.9247875213623047	134236953.10518104
1.9282845258712769	133919649.70291865
1.9317764043807983	133496565.46369435
1.9352631568908691	132905690.95889051
1.9387450218200684	131283721.27111535
1.942221760749817	130447433.23179796
1.9456936120986938	131383402.94436689
1.9491604566574097	131681484.7274241
1.952622413635254	130683158.06115054
1.956079363822937	129922467.99975127
1.959531545639038	130428723.55466825
1.962978720664978	130650972.00131655
1.966421127319336	130953294.59270237
1.9698586463928223	131383180.14218648
1.9732913970947266	130283912.40944195
1.9767193794250488	129100976.7020338
1.9801424741744995	129086466.19939537
1.9835609197616577	129700355.05458684
1.9869745969772339	129904882.48871617
1.990383505821228	129236942.9198875
1.9937876462936401	129597533.13443361
1.9971871376037598	129621007.53087756
2.000581979751587	129265589.88219516
2.003972291946411	130322896.51376705
2.007357597351074	130676944.5558216
2.0107386112213135	130452818.12608697
2.0141148567199707	130853441.6139892
2.017486572265625	130984714.2755385
2.0208535194396973	132068954.01087567
2.0242159366607666	133330185.28766032
2.027573823928833	132784454.75645459
2.0309269428253174	133185261.13252792
2.034275770187378	134570280.88754392
2.0376198291778564	134894094.09978157
2.040959596633911	134903241.65170792
2.044294595718384	135327693.84782225
2.0476250648498535	136076984.45307454
2.0509510040283203	136418062.6874186
2.054272413253784	136745772.20155165
2.057589530944824	138083134.63184357
2.0609018802642822	138320483.982674
2.0642096996307373	137669944.76240245
2.0675129890441895	138710670.43552208
2.0708119869232178	139596140.7176546
2.074106216430664	139466965.00920537
2.0773961544036865	139953959.7535637
2.080681324005127	140500598.54182205
2.0839622020721436	140702221.8351909
2.087238311767578	141097179.40049914
2.090510129928589	141743205.76759058
2.0937774181365967	142104017.77085343
2.0970399379730225	142217110.2709711
2.1002981662750244	142728857.0114986
2.1035518646240234	143102454.06502244
2.1068007946014404	143147706.18088633
2.1100454330444336	143498614.57977247
2.1132853031158447	144199347.4158356
2.116520881652832	144403068.2673675
2.1197516918182373	144499181.12311673
2.1229779720306396	145147902.58559227
2.12619948387146	145287158.6325644
2.1294167041778564	145073000.03306252
2.132629156112671	145687760.25193077
2.1358368396759033	146314953.89262694
2.139039993286133	146070588.36424854
2.1422386169433594	146324448.21323106
2.145432472229004	147313252.24989438
2.1486217975616455	147239279.51902422
2.151806354522705	146727685.78229287
2.1549863815307617	147085563.69857585
2.1581614017486572	147619145.4673976
2.16133189201355	147788998.20984718
2.1644976139068604	147924458.94050306
2.167658567428589	148313304.58514678
2.1708147525787354	148330302.4851994
2.173966407775879	147896653.33695602
2.1771130561828613	147559332.78503394
2.1802549362182617	147664387.17364547
2.183391809463501	147922192.77454174
2.1865241527557373	148008786.905689
2.1896514892578125	148159055.26042876
2.1927738189697266	148082445.67560005
2.1958916187286377	148037609.32919446
2.1990041732788086	148126576.58679914
2.2021119594573975	147687579.44758737
2.2052149772644043	147106923.73693833
2.208312749862671	147139698.8754993
2.2114057540893555	147688223.20171815
2.214493751525879	147913135.04960483
2.217576742172241	147153057.98308623
2.2206547260284424	146589464.17996773
2.2237277030944824	147239953.2348599
2.2267956733703613	147423436.38428733
2.2298583984375	147062382.55948576
2.2329163551330566	146760546.03759864
2.235969066619873	146281726.40933013
2.2390167713165283	146505522.14226854
2.2420592308044434	146645866.37269738
2.2450966835021973	146487683.7169864
2.248128890991211	146487287.52339742
2.2511560916900635	146150470.67227933
2.254178285598755	145671110.52766284
2.257194995880127	145504711.40766406
2.260206699371338	145362357.68460616
2.2632133960723877	144795755.82728377
2.266214609146118	144495195.39271873
2.2692108154296875	144315043.4056241
2.2722020149230957	144079882.5302159
2.2751877307891846	144324236.34076074
2.278168201446533	143900358.26511693
2.2811436653137207	143058292.5844096
2.284113883972168	143209716.16393515
2.287078857421875	143809643.7147966
2.290038824081421	142078056.73278323
2.2929933071136475	135520557.49060148
2.295942783355713	129899409.28834385
2.298887014389038	130098331.70535864
2.301826238632202	132062706.70694132
2.304760217666626	133101951.3316334
2.3076889514923096	133197904.68000948
2.310612440109253	132643664.02134477
2.3135311603546143	132191169.00015794
2.3164443969726562	132233960.1438599
2.319352865219116	131615839.31938028
2.322256088256836	128268515.4305833
2.3251543045043945	125677548.50885713
2.328047275543213	126295125.75738972
2.330935478210449	127061245.34649932
2.3338186740875244	127510980.1830611
2.3366971015930176	127623890.40560715
2.3395702838897705	126892052.10532802
2.3424389362335205	126570448.20048806
2.3453025817871094	127385244.07456087
2.348161458969116	127774945.44673797
2.351015567779541	125094144.4154436
2.353865146636963	122047760.05657785
2.3567099571228027	121867908.37563823
2.3595502376556396	122236921.32765165
2.3623859882354736	122484847.59623101
2.3652172088623047	122819899.14044628
2.368043899536133	122750205.70751955
2.370866537094116	123166635.32167555
2.3736846446990967	123650425.28551261
2.3764986991882324	122945228.88203146
2.3793084621429443	121614263.06939057
2.3821144104003906	119752841.91924427
2.384916305541992	117823085.66287422
2.387714147567749	117713936.69060135
2.3905084133148193	118954747.53448312
2.393299102783203	119319096.26219688
2.3960859775543213	118894474.18542132
2.398869514465332	118329027.8006288
2.4016497135162354	117489078.96508081
2.4044265747070312	116838461.04391849
2.407200336456299	115533198.67271478
2.409970998764038	114014263.85331151
2.4127390384674072	113365045.44713086
2.415503978729248	112733167.2267352
2.418266534805298	112037350.06190583
2.4210267066955566	111804806.51997007
2.4237842559814453	111467020.28489201
2.426539897918701	110426113.39091091
2.429293394088745	109685987.17026146
2.4320452213287354	109013425.0225484
2.4347951412200928	107720368.5226702
2.4375438690185547	107555155.20165484
2.440291166305542	108091977.4040754
2.443037271499634	106837750.14784634
2.445782423019409	105381264.97258754
2.4485268592834473	104971588.013829
2.451270818710327	103357105.81771255
2.454014539718628	101841180.01119693
2.4567582607269287	103617362.64181285
2.4595019817352295	103436809.22242865
2.4622461795806885	102033611.29684713
2.4649908542633057	103116682.69445536
2.4677364826202393	102042097.26162641
2.4704833030700684	99963656.14567764
