#wavelength	surface_flux
0.6450077295303345	453.5813592813595
0.6472567915916443	690.6863642126857
0.6494921445846558	851.0453837003761
0.6517150402069092	931.4549910935805
0.6539263725280762	1020.9547775548306
0.6561272740364075	1103.5493748954925
0.6583186388015747	1184.9226566451273
0.6605015397071838	1292.7400960651194
0.6626768708229065	1417.3963932074307
0.6648455858230591	1535.5359816761434
0.6670085787773132	1654.507774027942
0.6691668033599854	1788.7594414840148
0.6713210344314575	1939.40563178023
0.6734722256660461	2103.6257128308325
0.6756211519241333	2265.1250779373895
0.6777685880661011	2409.8192001775765
0.6799154281616211	2591.9274562520327
0.6820623278617859	2762.5395720780466
0.6842101216316223	2880.5648446580353
0.6863595843315125	3026.0520853021308
0.688511312007904	3188.2271850608204
0.6906660795211792	3199.688415052466
0.6928245425224304	3106.5956924111697
0.6949873566627502	3235.631116566852
0.6971551775932312	3421.8473123690437
0.6993286609649658	3526.1791286042135
0.7015084028244019	3825.9980915153205
0.7036949396133423	4176.766409946805
0.7058889269828796	4390.163619330479
0.7080909013748169	4493.013207456388
0.710301399230957	4577.425949419309
0.712520956993103	4745.13591263992
0.7147500514984131	4797.388820571529
0.7169892191886902	4646.972132539939
0.7192389369010925	4679.139963632257
0.7214996814727783	5090.016181503039
0.723771870136261	5539.593334495559
0.7260559797286987	5847.567167609246
0.7283523678779602	6125.143108253158
0.7306615710258484	6439.208293282887
0.7329838871955872	6897.299954307721
0.7353196740150452	7536.415029126013
0.7376693487167358	8139.814338663666
0.7400332689285278	8699.281163999583
0.7424117922782898	9485.152609258688
0.7448052167892456	10165.449319087389
0.7472138404846191	10431.79274983928
0.7496379613876343	10475.723433817562
0.7520779371261597	10384.33321003181
0.7545340061187744	10202.962871471229
0.7570064663887024	9968.292539354332
0.7594954967498779	9566.662560164223
0.7620013952255249	8384.340365492988
0.7645244002342224	5851.386358927172
0.7670646905899048	3491.9496736739534
0.7696225643157959	3680.9066993178712
0.7721980810165405	6773.831289576479
0.7747915983200073	10739.101783909879
0.7774031162261963	13428.75027846546
0.7800329327583313	15086.250616406556
0.7826811671257019	16834.088953815237
0.7853479981422424	18609.668052029858
0.7880334854125977	20067.740724277635
0.7907378077507019	21198.88150613386
0.7934610247612	21796.750153135123
0.7962033748626709	22478.58670133361
0.7989648580551147	23883.09135329026
0.801745593547821	25436.034573210425
0.8045456409454346	26740.726762524617
0.8073651194572449	27551.015812591275
0.8102040886878967	27385.160479207956
0.8130625486373901	26992.14644384776
0.8159406185150146	28404.77020691675
0.8188382983207703	31692.812177900196
0.8217556476593018	34355.47991652867
0.8246926665306091	36923.959340228765
0.8276493549346924	40351.369851936084
0.8306257724761963	43282.42430096107
0.8336219191551208	46497.19783230544
0.8366377949714661	50912.004482805976
0.8396733403205872	56459.79666560963
0.8427285552024841	63262.71764661436
0.8458034992218018	70749.642562536
0.8488980531692505	77579.65858703712
0.8520121574401855	84246.96196194252
0.8551458716392517	93904.34747119604
0.8582990765571594	105709.8895369234
0.8614717125892639	117320.23638272141
0.8646637797355652	129753.48633505974
0.8678751587867737	143556.48235248346
0.8711057901382446	158456.42251496715
0.8743556141853333	174475.7014591071
0.87762451171875	192402.8927127917
0.8809124231338501	213246.15993872783
0.8842192888259888	236399.89919435934
0.8875449895858765	253068.24033058112
0.8908893465995789	243651.34172952894
0.894252359867096	219639.63139374842
0.8976338505744934	232801.72108341017
0.9010337591171265	293505.0280239683
0.9044519662857056	359705.6673659358
0.9078882932662964	393058.8541923335
0.9113426208496094	401195.13128755445
0.914814829826355	411632.9583946279
0.9183048605918884	448898.3262055916
0.9218124747276306	483084.79505550326
0.925337553024292	394762.22435357387
0.9288799166679382	207211.75930371418
0.9324395060539246	104897.18788254529
0.9360161423683167	138155.91017681363
0.9396095871925354	225175.89131738304
0.943219780921936	273876.55426048464
0.9468464851379395	266114.1114194313
0.9504896402359009	257921.4318251851
0.9541489481925964	261522.82780221634
0.9578243494033813	267602.7323685933
0.9615156054496765	318019.9341316345
0.9652225375175476	457999.20918581897
0.9689450263977051	638522.3416163704
0.9726828336715698	777115.4193477813
0.9764357805252075	909320.7934649558
0.9802037477493286	1089288.0691552148
0.983986496925354	1318685.8137203625
0.9877838492393494	1642439.0352026953
0.9915955662727356	2045788.9365902687
0.9954215884208679	2493364.356946882
0.9992615580558777	2985140.8168160245
1.0031154155731201	3500071.911766157
1.0069829225540161	4038760.6329887407
1.0108637809753418	4598617.282185201
1.0147579908370972	5160421.449849353
1.018665075302124	5696038.561709903
1.022585153579712	6197791.302568311
1.0265177488327026	6687834.086335643
1.0304628610610962	7167579.751819455
1.0344202518463135	7615691.2861879105
1.0383895635604858	7998868.134556855
1.0423706769943237	8285459.889247396
1.0463634729385376	8491616.7243444
1.0503677129745483	8660698.182201685
1.0543830394744873	8774593.17846218
1.058409333229065	8794721.159790771
1.0624464750289917	8767702.357422259
1.0664942264556885	8697245.962871652
1.0705522298812866	8578836.352100812
1.0746204853057861	8476786.688021792
1.0786986351013184	8370703.762183956
1.0827864408493042	8083676.312473043
1.086883783340454	7144614.96275778
1.0909905433654785	5333475.387544801
1.0951062440872192	3367523.01784364
1.0992310047149658	2000929.2350787083
1.10336434841156	1173459.7974860491
1.1075061559677124	639920.3724499567
1.1116561889648438	306305.45094761305
1.115814208984375	130239.22375179779
1.1199802160263062	65724.98856903614
1.124153733253479	32989.6423205687
1.1283347606658936	20895.32638825343
1.1325229406356812	21988.91226383933
1.1367181539535522	35289.565842859265
1.1409201622009277	56389.67556709115
1.145128846168518	47958.07838649397
1.1493438482284546	19791.924077476982
1.1535650491714478	5914.676721774448
1.1577922105789185	3555.926628106411
1.1620250940322876	3330.826023444645
1.1662636995315552	3786.314024962728
1.170507550239563	9279.443885797082
1.174756646156311	24180.91605896635
1.1790107488632202	60182.30971979077
1.1832695007324219	122764.25408892408
1.1875330209732056	233434.31868380852
1.191800832748413	529532.0209524167
1.1960728168487549	1070368.572904545
1.2003488540649414	1794408.5895029749
1.2046287059783936	2875082.2365598357
1.2089121341705322	4266493.251519435
1.2131990194320679	5737328.571729011
1.2174891233444214	7270509.401451816
1.2217823266983032	8540168.533452922
1.2260783910751343	9434087.676989628
1.230377197265625	10242805.972903628
1.2346785068511963	11333227.373364637
1.238982081413269	12808889.23645931
1.2432878017425537	14242838.900310984
1.2475954294204712	15448427.670798307
1.2519049644470215	16368888.245302496
1.256216049194336	17274926.396863643
1.2605286836624146	18017604.425644416
1.2648425102233887	17941719.432749238
1.2691574096679688	17115394.173583146
1.2734732627868652	15975509.717858184
1.2777899503707886	14799217.38932288
1.2821072340011597	13268201.982217645
1.2864248752593994	11253309.392452959
1.2907428741455078	9497731.252386926
1.2950609922409058	8615880.685814777
1.2993791103363037	7947539.217996595
1.303696870803833	6384207.976711276
1.3080145120620728	4192572.428616026
1.3123314380645752	2615979.179887834
1.3166478872299194	2315943.3565057567
1.3209635019302368	2519978.3870469406
1.3252781629562378	2038996.4927799155
1.3295916318893433	1007684.8345613773
1.3339040279388428	270058.2336248129
1.3382149934768677	41419.49960553553
1.3425244092941284	14693.937435770427
1.3468321561813354	4230.86390977076
1.3511382341384888	1566.46141947238
1.3554422855377197	783.9593782252905
1.3597444295883179	527.5304763230462
1.3640443086624146	677.650250361076
1.3683418035507202	852.542814957374
1.3726370334625244	1025.8091005938513
1.3769296407699585	1299.1494904517253
1.381219506263733	1215.760990462783
1.3855066299438477	978.6491897007023
1.3897908926010132	1125.5940246258572
1.3940720558166504	1382.6160588482971
1.3983501195907593	1411.4792229512238
1.4026249647140503	1322.7529862240258
1.4068963527679443	1372.74891112224
1.4111642837524414	1734.0538552216742
1.4154287576675415	2405.404282941953
1.419689416885376	2994.0428385062614
1.4239463806152344	4373.88797456062
1.4281994104385376	8440.126412915522
1.4324485063552856	12651.524118105353
1.436693549156189	15759.522826516253
1.440934419631958	22132.796132950876
1.4451709985733032	34700.03960498915
1.449403166770935	57459.56700969621
1.453631043434143	87815.45937445613
1.4578542709350586	121028.86128320127
1.4620729684829712	142186.22746963642
1.4662868976593018	135419.67489462267
1.4704961776733398	111806.66089709541
1.4747005701065063	108850.25405515706
1.4788999557495117	126742.46285432462
1.4830944538116455	146451.95927359525
1.4872838258743286	182625.7981095116
1.491468071937561	233898.8535929319
1.4956470727920532	294074.13780195866
1.4998208284378052	379370.51791734213
1.5039892196655273	473108.7524052374
1.5081522464752197	543157.6780589194
1.5123097896575928	615624.2891754471
1.5164618492126465	742480.2464379037
1.5206083059310913	983119.4501970164
1.5247491598129272	1341327.719257461
1.5288842916488647	1740838.6068218416
1.5330137014389038	2173325.3489157166
1.5371372699737549	2600324.538948952
1.541254997253418	3067379.682342686
1.545366883277893	3788168.780405059
1.5494728088378906	4616438.940661029
1.5535727739334106	5373076.685011802
1.5576666593551636	6083458.188530297
1.561754584312439	6699158.534157793
1.5658363103866577	7154883.656477157
1.5699119567871094	7236871.620887362
1.5739814043045044	6834173.900895572
1.5780447721481323	6093896.314720529
1.582101821899414	5267965.641245932
1.5861525535583496	4599862.212496232
1.5901970863342285	4024670.4359847824
1.5942351818084717	3476694.2313434063
1.5982669591903687	3046367.5592168956
1.6022924184799194	2545519.89635967
1.606311559677124	1962482.6312903652
1.6103241443634033	1500101.1370646297
1.6143304109573364	1093084.3099243517
1.6183301210403442	785862.8508074224
1.6223233938217163	879324.400016259
1.6263102293014526	1122122.7842665666
1.6302905082702637	1005952.0586238327
1.634264349937439	723814.7935630394
1.638231635093689	601194.1851862912
1.6421923637390137	561095.3065977681
1.646146535873413	514321.695040167
1.6500942707061768	576479.6245048426
1.6540353298187256	625418.6549858638
1.6579699516296387	524106.7696009215
1.661897897720337	439949.5212389634
1.6658192873001099	316233.46646331646
1.6697341203689575	179798.9072119137
1.6736423969268799	234605.57961789053
1.677544116973877	358691.03854514303
1.6814392805099487	348227.2288510993
1.6853278875350952	223837.98110827958
1.6892099380493164	127735.62548114176
1.6930854320526123	95983.75707009723
1.696954369544983	85926.31666287429
1.7008168697357178	89310.88898635044
1.7046726942062378	105579.24087054915
1.708522081375122	132352.31525369827
1.712364912033081	188062.5305656976
1.7162011861801147	265846.32493754075
1.7200311422348022	269401.3334913691
1.723854422569275	198075.47154364613
1.7276713848114014	184924.7016527746
1.731481909751892	231885.5769950485
1.7352858781814575	259234.13161959592
1.7390835285186768	250617.10066457742
1.7428747415542603	224756.28862730876
1.7466596364974976	208871.3058187659
1.7504380941390991	216881.68835587258
1.7542102336883545	225121.8135496038
1.7579760551452637	233611.662260165
1.7617355585098267	234223.0711975219
1.7654887437820435	201139.00302392786
1.7692357301712036	152553.2108229986
1.7729763984680176	117478.71264390463
1.776710867881775	108894.07684243315
1.7804391384124756	113870.83393329731
1.7841613292694092	105089.27116300483
1.7878772020339966	91725.87780286235
1.7915871143341064	79291.97880647125
1.7952908277511597	72906.39089015158
1.7989884614944458	75217.45639444068
1.8026801347732544	56279.78088937671
1.806365728378296	39781.816152042506
1.8100452423095703	43607.543180122884
1.8137187957763672	47000.32353550815
1.817386507987976	43003.910878651135
1.8210482597351074	49460.827264366104
1.8247040510177612	62170.53468570795
1.828354001045227	47007.63493984321
1.8319982290267944	25946.476950746284
1.8356364965438843	19305.52428732393
1.8392690420150757	20128.952951852916
1.8428958654403687	32877.8643199977
1.8465168476104736	40229.31372013782
1.8501322269439697	40420.41610360256
1.8537418842315674	41197.994961588614
1.8573459386825562	34299.08750855039
1.860944390296936	25422.09989854794
1.864537239074707	18840.312427515655
1.8681244850158691	12903.711839598729
1.871706247329712	12325.448791833
1.8752825260162354	27917.300919782003
1.8788533210754395	62763.62537728302
1.8824186325073242	88686.82437774017
1.8859784603118896	89360.31361034754
1.8895330429077148	85181.78624754009
1.8930821418762207	105369.18812987072
1.8966259956359863	121860.87480610241
1.9001644849777222	88297.09171562536
1.9036977291107178	57383.62502320402
1.9072256088256836	61219.58367799708
1.9107483625411987	58154.42738183894
1.9142658710479736	50439.140580924126
1.9177782535552979	59624.9034272231
1.9212853908538818	61298.40766978106
1.9247875213623047	48877.200204425164
1.9282845258712769	37457.61388365062
1.9317764043807983	31130.198692553215
1.9352631568908691	29844.36267294199
1.9387450218200684	28655.744578889513
1.942221760749817	34334.572083194194
1.9456936120986938	42854.41090417156
1.9491604566574097	47953.66473578566
1.952622413635254	49709.58873616019
1.956079363822937	50805.02869390918
1.959531545639038	60760.41717689935
1.962978720664978	75031.66340538043
1.966421127319336	91841.21949611498
1.9698586463928223	101532.99512538171
1.9732913970947266	106509.333650458
1.9767193794250488	126978.6209977037
1.9801424741744995	142560.2150576894
1.9835609197616577	156120.28155147357
1.9869745969772339	169002.37223926611
1.990383505821228	173427.90363670644
1.9937876462936401	207021.87494283123
1.9971871376037598	246395.1272321999
2.000581979751587	262316.12809067016
2.003972291946411	270507.47833793965
2.007357597351074	281217.0631300247
2.0107386112213135	309515.70459946716
2.0141148567199707	316367.53393121023
2.017486572265625	285479.2474924587
2.0208535194396973	296776.0029855919
2.0242159366607666	347269.67586940434
2.027573823928833	362130.6988638688
2.0309269428253174	371447.4157070213
2.034275770187378	410304.0215231369
2.0376198291778564	430882.7238074645
2.040959596633911	427723.3033142649
2.044294595718384	461529.63644332066
2.0476250648498535	509384.8782791132
2.0509510040283203	511530.73827622633
2.054272413253784	510467.6074929168
2.057589530944824	538354.6149630046
2.0609018802642822	554930.9212705184
2.0642096996307373	549545.5299689466
2.0675129890441895	541712.2605482937
2.0708119869232178	539346.5932016324
2.074106216430664	540289.0869198493
2.0773961544036865	536330.1213753624
2.080681324005127	534784.090322818
2.0839622020721436	539220.9033355896
2.087238311767578	540962.2124907492
2.090510129928589	536564.1678778877
2.0937774181365967	528962.8247383548
2.0970399379730225	522316.2995917665
2.1002981662750244	511936.2274122869
2.1035518646240234	502148.6237551784
2.1068007946014404	499443.77129036613
2.1100454330444336	493162.5076986213
2.1132853031158447	480972.17530154943
2.116520881652832	467332.52675592335
2.1197516918182373	456884.75505002844
2.1229779720306396	450346.57162458496
2.12619948387146	442159.5828940926
2.1294167041778564	433060.85717179853
2.132629156112671	425184.526533753
2.1358368396759033	416056.55189025274
2.139039993286133	402807.28778335894
2.1422386169433594	380781.4623953125
2.145432472229004	359763.60998925666
2.1486217975616455	351233.16149260284
2.151806354522705	346621.15572473756
2.1549863815307617	338553.4472294958
2.1581614017486572	326769.4252614085
2.16133189201355	310940.279629314
2.1644976139068604	297510.1680420412
2.167658567428589	288315.8845020968
2.1708147525787354	284904.7380242827
2.173966407775879	284966.89276730595
2.1771130561828613	281080.7005473731
2.1802549362182617	274594.1141203459
2.183391809463501	262358.83591821074
2.1865241527557373	244301.6182245119
2.1896514892578125	214203.69932417822
2.1927738189697266	169312.198029924
2.1958916187286377	113984.42653763902
2.1990041732788086	61004.90182777168
2.2021119594573975	35175.304222444196
2.2052149772644043	39233.01387573245
2.208312749862671	57725.819771297945
2.2114057540893555	75079.51127628409
2.214493751525879	84557.64014621027
2.217576742172241	88688.55413107297
2.2206547260284424	86281.9960214695
2.2237277030944824	80132.67370898409
2.2267956733703613	70676.45229077629
2.2298583984375	59191.82117645603
2.2329163551330566	53896.529850386476
2.235969066619873	51750.590779025515
2.2390167713165283	44978.76121267842
2.2420592308044434	38377.08274943931
2.2450966835021973	34638.55573490118
2.248128890991211	30104.063642248304
2.2511560916900635	27207.237503942106
2.254178285598755	26799.841602469616
2.257194995880127	27728.93479153515
2.260206699371338	29384.241762563477
2.2632133960723877	31564.85255877527
2.266214609146118	34084.09205514962
2.2692108154296875	35330.83818534309
2.2722020149230957	36146.722480223245
2.2751877307891846	34888.3097529896
2.278168201446533	33707.22576171675
2.2811436653137207	32477.76848192105
2.284113883972168	27120.46377876209
2.287078857421875	22869.688794411642
2.290038824081421	20188.759746420215
2.2929933071136475	17917.220906667186
2.295942783355713	17935.072624844724
2.298887014389038	20663.917209399457
2.301826238632202	24948.417984050382
2.304760217666626	32128.795442967843
2.3076889514923096	49198.83208879743
2.310612440109253	74304.35688471625
2.3135311603546143	80379.53156994385
2.3164443969726562	49025.04924724144
2.319352865219116	17339.671031328922
2.322256088256836	12566.219871135307
2.3251543045043945	17006.70209680897
2.328047275543213	19493.544267330668
2.330935478210449	20023.204084341636
2.3338186740875244	19688.935284126874
2.3366971015930176	19236.93932640406
2.3395702838897705	18683.44876227904
2.3424389362335205	18445.460943138474
2.3453025817871094	17958.89232520984
2.348161458969116	18089.64824898655
2.351015567779541	19887.121912211496
2.353865146636963	22290.01540845878
2.3567099571228027	27120.67932430197
2.3595502376556396	36080.89739184499
2.3623859882354736	43375.909955190844
2.3652172088623047	43440.56679824129
2.368043899536133	34622.66840275721
2.370866537094116	20543.79740334126
2.3736846446990967	14776.340128801015
2.3764986991882324	19155.192761317645
2.3793084621429443	23474.026858668487
2.3821144104003906	24987.241900512217
2.384916305541992	28401.756272168357
2.387714147567749	35347.792498489114
2.3905084133148193	39609.53564300394
2.393299102783203	39281.08467319487
2.3960859775543213	40054.496530779885
2.398869514465332	45827.3125341399
2.4016497135162354	52946.15777106991
2.4044265747070312	55991.6140396778
2.407200336456299	55401.27684828096
2.409970998764038	62360.03503366483
2.4127390384674072	73704.56652553368
2.415503978729248	69109.08640710225
2.418266534805298	60110.556054051616
2.4210267066955566	63003.85026338988
2.4237842559814453	60791.862276142245
2.426539897918701	58145.34434477018
2.429293394088745	73412.37544391105
2.4320452213287354	85867.970870063
2.4347951412200928	77219.44154760678
2.4375438690185547	81301.57659705901
2.440291166305542	103092.19206994152
2.443037271499634	104912.0814143006
2.445782423019409	91824.13174864271
2.4485268592834473	87054.17207029204
2.451270818710327	87093.55922060608
2.454014539718628	93411.86919335547
2.4567582607269287	110775.74423465233
2.4595019817352295	119139.9586248012
2.4622461795806885	124175.01896797371
2.4649908542633057	137699.64915340015
2.4677364826202393	129852.75199917755
2.4704833030700684	108558.39437171014
2.473231554031372	97146.22748016797
2.4759814739227295	94946.28982135144
2.4787333011627197	95549.11331098918
2.481487512588501	97684.04335619076
