#wavelength	surface_flux
0.6450077295303345	137652.4929928176
0.6472567915916443	207821.96810987373
0.6494921445846558	250981.4239418361
0.6517150402069092	263220.4152302582
0.6539263725280762	274041.7134800198
0.6561272740364075	285067.32693312113
0.6583186388015747	296295.7023635286
0.6605015397071838	307942.8922226588
0.6626768708229065	319984.6666121655
0.6648455858230591	332356.311621933
0.6670085787773132	345187.7708209522
0.6691668033599854	358344.8715861627
0.6713210344314575	372115.68475543737
0.6734722256660461	387043.63076716335
0.6756211519241333	402463.12314872746
0.6777685880661011	417874.10909985803
0.6799154281616211	433716.2166508675
0.6820623278617859	450015.0130756044
0.6842101216316223	466757.6970853622
0.6863595843315125	483982.5940401591
0.688511312007904	501532.0116497302
0.6906660795211792	519831.2768698293
0.6928245425224304	539033.3089217639
0.6949873566627502	558844.459773892
0.6971551775932312	578868.0072611974
0.6993286609649658	599209.8781777559
0.7015084028244019	620572.4597746158
0.7036949396133423	642463.084135761
0.7058889269828796	664382.9153117578
0.7080909013748169	686559.3024108037
0.710301399230957	709435.7248144659
0.712520956993103	733409.9550687146
0.7147500514984131	758143.289154235
0.7169892191886902	783414.1738557789
0.7192389369010925	809277.6854165203
0.7214996814727783	835970.4172391476
0.723771870136261	863813.4824071891
0.7260559797286987	892404.0312577325
0.7283523678779602	921536.3653096666
0.7306615710258484	951016.8384323489
0.7329838871955872	978374.7801663276
0.7353196740150452	1003777.4120108797
0.7376693487167358	1030505.7155690198
0.7400332689285278	1058019.5099722028
0.7424117922782898	1086987.308018549
0.7448052167892456	1119097.7322340833
0.7472138404846191	1156037.3484427764
0.7496379613876343	1198020.271732692
0.7520779371261597	1241725.636552099
0.7545340061187744	1287051.03949567
0.7570064663887024	1333564.7085266642
0.7594954967498779	1380220.3125829007
0.7620013952255249	1414268.3221085328
0.7645244002342224	1375707.8522651012
0.7670646905899048	1305458.2135496032
0.7696225643157959	1354149.9105933637
0.7721980810165405	1512336.0321139714
0.7747915983200073	1651067.3040721312
0.7774031162261963	1721478.7991834036
0.7800329327583313	1762902.4991829467
0.7826811671257019	1825148.5896922823
0.7853479981422424	1899920.0721406231
0.7880334854125977	1963541.9643382316
0.7907378077507019	2021555.8626059687
0.7934610247612	2077319.8397803004
0.7962033748626709	2139024.6576918415
0.7989648580551147	2209037.4313421464
0.801745593547821	2280132.6495244103
0.8045456409454346	2351728.243529302
0.8073651194572449	2426719.525244881
0.8102040886878967	2504936.4117451874
0.8130625486373901	2584836.526593543
0.8159406185150146	2666253.3919006907
0.8188382983207703	2749210.5342200724
0.8217556476593018	2834394.0314549734
0.8246926665306091	2922269.274344524
0.8276493549346924	3011967.1099047614
0.8306257724761963	3103268.7911316482
0.8336219191551208	3196644.682606762
0.8366377949714661	3292226.9414199004
0.8396733403205872	3390008.022238653
0.8427285552024841	3490258.4270103234
0.8458034992218018	3592870.0777606242
0.8488980531692505	3695138.190373956
0.8520121574401855	3795806.8818922895
0.8551458716392517	3903051.3732500095
0.8582990765571594	4015206.7052919236
0.8614717125892639	4125634.9879856776
0.8646637797355652	4238980.280843992
0.8678751587867737	4358476.50436662
0.8711057901382446	4486165.673040064
0.8743556141853333	4620289.42498199
0.87762451171875	4757614.87092187
0.8809124231338501	4897675.750681949
0.8842192888259888	5039619.691727102
0.8875449895858765	5182478.225390586
0.8908893465995789	5322456.743811113
0.894252359867096	5461895.176645708
0.8976338505744934	5613127.061580776
0.9010337591171265	5773177.279308918
0.9044519662857056	5932415.4749696385
0.9078882932662964	6091919.968452021
0.9113426208496094	6254032.882748022
0.914814829826355	6420188.193310046
0.9183048605918884	6590158.319874202
0.9218124747276306	6760407.925145
0.925337553024292	6916553.361545841
0.9288799166679382	7058358.088244643
0.9324395060539246	7224899.06222961
0.9360161423683167	7431512.041566554
0.9396095871925354	7647304.091436799
0.943219780921936	7847306.173670483
0.9468464851379395	8037969.403691181
0.9504896402359009	8236599.362862005
0.9541489481925964	8442240.973966705
0.9578243494033813	8650116.827888958
0.9615156054496765	8864196.702985188
0.9652225375175476	9088529.896894027
0.9689450263977051	9320444.403556759
0.9726828336715698	9555174.155556368
0.9764357805252075	9792154.731355516
0.9802037477493286	10032539.42864153
0.983986496925354	10276296.611539602
0.9877838492393494	10523890.271952845
0.9915955662727356	10774369.37352744
0.9954215884208679	11027748.611184297
0.9992615580558777	11284632.046803765
1.0031154155731201	11543664.71045547
1.0069829225540161	11805138.521705633
1.0108637809753418	12069969.11279375
1.0147579908370972	12337633.744250087
1.018665075302124	12608172.078640176
1.022585153579712	12882027.163552534
1.0265177488327026	13159003.3601306
1.0304628610610962	13439478.859651702
1.0344202518463135	13723605.95553867
1.0383895635604858	14011003.385465102
1.0423706769943237	14301859.534078697
1.0463634729385376	14596069.045419691
1.0503677129745483	14893133.308127338
1.0543830394744873	15192994.470829906
1.058409333229065	15496082.950076092
1.0624464750289917	15802876.60480447
1.0664942264556885	16113031.575401278
1.0705522298812866	16425874.754272511
1.0746204853057861	16741032.216288587
1.0786986351013184	17058403.305174727
1.0827864408493042	17377715.537059277
1.086883783340454	17696164.01361381
1.0909905433654785	18008122.262442548
1.0951062440872192	18309326.159214575
1.0992310047149658	18597212.250944063
1.10336434841156	18869181.830374885
1.1075061559677124	19126238.729859386
1.1116561889648438	19379181.139525354
1.115814208984375	19667527.251743827
1.1199802160263062	20020020.077497344
1.124153733253479	20416830.10793132
1.1283347606658936	20780350.111157294
1.1325229406356812	21046551.14644117
1.1367181539535522	21379588.40739416
1.1409201622009277	21831301.369988106
1.145128846168518	22228811.483784083
1.1493438482284546	22571493.903776977
1.1535650491714478	22903301.43667493
1.1577922105789185	23239160.000899006
1.1620250940322876	23596432.45384463
1.1662636995315552	23960097.158327434
1.170507550239563	24337592.874692686
1.174756646156311	24728044.48057255
1.1790107488632202	25129369.963332884
1.1832695007324219	25546774.86052511
1.1875330209732056	25955660.16216994
1.191800832748413	26349927.0700579
1.1960728168487549	26739481.181795835
1.2003488540649414	27123839.99981991
1.2046287059783936	27503720.78754905
1.2089121341705322	27879141.88009626
1.2131990194320679	28252408.356856234
1.2174891233444214	28625324.869901594
1.2217823266983032	28996333.425237633
1.2260783910751343	29366111.34368441
1.230377197265625	29735155.080009952
1.2346785068511963	30102120.980762985
1.238982081413269	30464344.501100216
1.2432878017425537	30822637.751928654
1.2475954294204712	31183546.77060963
1.2519049644470215	31544303.05947329
1.256216049194336	31907045.056220043
1.2605286836624146	32272332.332080413
1.2648425102233887	32632805.62991006
1.2691574096679688	32989642.134340767
1.2734732627868652	33344175.947451282
1.2777899503707886	33696922.85034969
1.2821072340011597	34045486.589401774
1.2864248752593994	34389376.26879614
1.2907428741455078	34733157.99520499
1.2950609922409058	35078723.858089484
1.2993791103363037	35423721.16897333
1.303696870803833	35769158.944946416
1.3080145120620728	36115351.99683329
1.3123314380645752	36454479.79662224
1.3166478872299194	36789783.182257086
1.3209635019302368	37109049.86822894
1.3252781629562378	37359251.791533835
1.3295916318893433	37381456.382999204
1.3339040279388428	36935899.84459213
1.3382149934768677	36263572.04748842
1.3425244092941284	35901874.07027523
1.3468321561813354	35806422.118610255
1.3511382341384888	35719284.69187514
1.3554422855377197	35740540.332954116
1.3597444295883179	36154089.68437856
1.3640443086624146	36881613.115241155
1.3683418035507202	37516049.66197168
1.3726370334625244	38015268.93739789
1.3769296407699585	38539471.35291748
1.381219506263733	38829524.53257076
1.3855066299438477	38962925.41735526
1.3897908926010132	39131921.745763496
1.3940720558166504	39233115.9135765
1.3983501195907593	39403151.533880755
1.4026249647140503	39735110.83579481
1.4068963527679443	40035484.12156248
1.4111642837524414	40096384.92359269
1.4154287576675415	40188753.067727566
1.419689416885376	40464169.87213607
1.4239463806152344	40755115.189197786
1.4281994104385376	41097062.39669008
1.4324485063552856	41613284.51772197
1.436693549156189	42170659.57974654
1.440934419631958	42634277.34644958
1.4451709985733032	43112772.95871505
1.449403166770935	43694073.967304885
1.453631043434143	44312390.84639132
1.4578542709350586	44878229.156504914
1.4620729684829712	45305011.42931181
1.4662868976593018	45641617.420874394
1.4704961776733398	46016841.79653606
1.4747005701065063	46450833.16764145
1.4788999557495117	46860738.8993729
1.4830944538116455	47231416.295436114
1.4872838258743286	47609401.65663782
1.491468071937561	47993002.941531755
1.4956470727920532	48396107.187778816
1.4998208284378052	48798109.380785316
1.5039892196655273	49199700.5315383
1.5081522464752197	49587346.02768072
1.5123097896575928	49954918.8050063
1.5164618492126465	50316998.91077108
1.5206083059310913	50687806.507680506
1.5247491598129272	51051720.87501637
1.5288842916488647	51382613.95177353
1.5330137014389038	51701987.35617147
1.5371372699737549	52018838.65675107
1.541254997253418	52313257.859432995
1.545366883277893	52597187.13380106
1.5494728088378906	52876239.64143427
1.5535727739334106	53130674.45397638
1.5576666593551636	53353210.40511181
1.561754584312439	53575865.65872713
1.5658363103866577	53832235.236316614
1.5699119567871094	54101169.778508306
1.5739814043045044	54353533.08961656
1.5780447721481323	54581193.53180444
1.582101821899414	54799831.6553801
1.5861525535583496	55023799.64127062
1.5901970863342285	55249356.744503655
1.5942351818084717	55473568.0835055
1.5982669591903687	55694644.46233017
1.6022924184799194	55909775.79010123
1.606311559677124	56121516.37013152
1.6103241443634033	56332785.17274128
1.6143304109573364	56543113.210196055
1.6183301210403442	56750964.88159882
1.6223233938217163	56956477.420442514
1.6263102293014526	57159635.391406395
1.6302905082702637	57359309.886271425
1.634264349937439	57557600.6433247
1.638231635093689	57754838.34406879
1.6421923637390137	57948860.28764602
1.646146535873413	58140969.35320796
1.6500942707061768	58331773.10432886
1.6540353298187256	58521736.20861516
1.6579699516296387	58708812.88083268
1.661897897720337	58893056.33604661
1.6658192873001099	59076593.3635285
1.6697341203689575	59252614.19428113
1.6736423969268799	59429455.299731106
1.677544116973877	59618307.69929886
1.6814392805099487	59804251.39143606
1.6853278875350952	59971783.53232258
1.6892099380493164	60131536.17419608
1.6930854320526123	60296006.69755776
1.696954369544983	60460972.177374795
1.7008168697357178	60634295.29900173
1.7046726942062378	60807764.53182573
1.708522081375122	60961078.80791263
1.712364912033081	61094045.70577407
1.7162011861801147	61211063.03874202
1.7200311422348022	61319299.09564144
1.723854422569275	61406817.02569635
1.7276713848114014	61474268.16662291
1.731481909751892	61515693.49289952
1.7352858781814575	61526734.1558731
1.7390835285186768	61514278.45912937
1.7428747415542603	61500355.8967422
1.7466596364974976	61479074.56201876
1.7504380941390991	61417032.5573621
1.7542102336883545	61321551.33296516
1.7579760551452637	61271497.94877686
1.7617355585098267	61251169.850192614
1.7654887437820435	61150949.193122715
1.7692357301712036	61006283.551016554
1.7729763984680176	60897172.41045211
1.776710867881775	60811331.115913115
1.7804391384124756	60659409.482121214
1.7841613292694092	60458834.260720715
1.7878772020339966	60517521.69958441
1.7915871143341064	60660696.006481335
1.7952908277511597	60602178.44072966
1.7989884614944458	60380220.307572186
1.8026801347732544	60187285.58738778
1.806365728378296	60258063.46541187
1.8100452423095703	60325888.03342842
1.8137187957763672	60461077.80391318
1.817386507987976	60541420.26059608
1.8210482597351074	60555878.683385335
1.8247040510177612	60691368.87051136
1.828354001045227	60690846.29396228
1.8319982290267944	60816677.93636076
1.8356364965438843	60888373.169750094
1.8392690420150757	60830538.04662764
1.8428958654403687	60818690.7902581
1.8465168476104736	60513883.08223586
1.8501322269439697	60440996.06608589
1.8537418842315674	60396271.539956555
1.8573459386825562	59682894.470467545
1.860944390296936	59214333.67321528
1.864537239074707	59517659.21428417
1.8681244850158691	60151894.67214115
1.871706247329712	60665954.01302724
1.8752825260162354	61065769.066947825
1.8788533210754395	61763742.22378338
1.8824186325073242	62469003.04364773
1.8859784603118896	62802095.31895411
1.8895330429077148	63067679.760045595
1.8930821418762207	63548304.88368581
1.8966259956359863	64065830.70704619
1.9001644849777222	64272414.9224271
1.9036977291107178	64212359.61051056
1.9072256088256836	64284866.887081556
1.9107483625411987	64415425.33602024
1.9142658710479736	64478239.57273005
1.9177782535552979	64514218.15974402
1.9212853908538818	64304071.895966694
1.9247875213623047	64106833.198395185
1.9282845258712769	64124186.570748046
1.9317764043807983	64089925.948598236
1.9352631568908691	63890756.33829268
1.9387450218200684	63390836.091689944
1.942221760749817	63258067.579387456
1.9456936120986938	63663727.81742682
1.9491604566574097	63903333.88217329
1.952622413635254	63821246.417043984
1.956079363822937	63572218.456086926
1.959531545639038	63661291.52300361
1.962978720664978	63989393.57819691
1.966421127319336	64372341.375955224
1.9698586463928223	64627459.16558342
1.9732913970947266	64480728.3157673
1.9767193794250488	64480592.42091628
1.9801424741744995	64799985.5359095
1.9835609197616577	65253462.362946674
1.9869745969772339	65525734.432995215
1.990383505821228	65350449.88484539
1.9937876462936401	65506147.933509074
1.9971871376037598	65744060.581867635
2.000581979751587	65888168.38420487
2.003972291946411	66433036.642969415
2.007357597351074	66618782.07308495
2.0107386112213135	66659154.31553392
2.0141148567199707	67043591.66033697
2.017486572265625	67282573.01031537
2.0208535194396973	67707738.02118666
2.0242159366607666	68141449.43760532
2.027573823928833	68061878.36856169
2.0309269428253174	68234470.97497073
2.034275770187378	68750538.86604702
2.0376198291778564	69010896.9066213
2.040959596633911	69116267.87791868
2.044294595718384	69303989.50506878
2.0476250648498535	69555434.80191459
2.0509510040283203	69700770.42262937
2.054272413253784	69830844.00441772
2.057589530944824	70134340.85054316
2.0609018802642822	70301445.05084677
2.0642096996307373	70334236.24691257
2.0675129890441895	70524311.9607278
2.0708119869232178	70671779.6878053
2.074106216430664	70701701.31938119
2.0773961544036865	70799978.84516285
2.080681324005127	70947029.79445551
2.0839622020721436	71053832.27645852
2.087238311767578	71143937.52712102
2.090510129928589	71255977.09054899
2.0937774181365967	71345372.0666732
2.0970399379730225	71409479.25918974
2.1002981662750244	71482586.20399873
2.1035518646240234	71539003.71507579
2.1068007946014404	71601066.60798505
2.1100454330444336	71686938.83862793
2.1132853031158447	71776732.2519214
2.116520881652832	71833373.2484787
2.1197516918182373	71888371.74688925
2.1229779720306396	71979785.23842083
2.12619948387146	72038520.16259941
2.1294167041778564	72063124.7989936
2.132629156112671	72136173.91079606
2.1358368396759033	72215624.01669386
2.139039993286133	72243566.23560749
2.1422386169433594	72297883.75124833
2.145432472229004	72393348.0523992
2.1486217975616455	72441144.38166647
2.151806354522705	72462820.49040636
2.1549863815307617	72520002.00434981
2.1581614017486572	72588946.1336279
2.16133189201355	72649055.87389673
2.1644976139068604	72704161.7728947
2.167658567428589	72761384.81790444
2.1708147525787354	72801531.83243611
2.173966407775879	72822020.60493332
2.1771130561828613	72844935.08017555
2.1802549362182617	72899958.59804143
2.183391809463501	72967235.78437224
2.1865241527557373	73014807.30472909
2.1896514892578125	73071763.44041018
2.1927738189697266	73111924.8892051
2.1958916187286377	73129570.19113988
2.1990041732788086	73159779.01025736
2.2021119594573975	73186266.84356709
2.2052149772644043	73227190.39325434
2.208312749862671	73296049.08902483
2.2114057540893555	73372017.06488937
2.214493751525879	73418278.05737655
2.217576742172241	73360639.17422678
2.2206547260284424	73306747.2300648
2.2237277030944824	73409560.11718263
2.2267956733703613	73507098.201295
2.2298583984375	73546407.64549273
2.2329163551330566	73579303.35677847
2.235969066619873	73583409.10687877
2.2390167713165283	73613399.02466594
2.2420592308044434	73605186.3943937
2.2450966835021973	73609973.83642994
2.248128890991211	73672714.75214158
2.2511560916900635	73715767.01983827
2.254178285598755	73753717.45036274
2.257194995880127	73813314.47593144
2.260206699371338	73857109.2050067
2.2632133960723877	73805466.64504986
2.266214609146118	73736157.51805401
2.2692108154296875	73708130.08070643
2.2722020149230957	73757880.1967853
2.2751877307891846	73907482.45706336
2.278168201446533	73914561.27133334
2.2811436653137207	73815594.51789181
2.284113883972168	73891084.72992058
2.287078857421875	74040649.03566375
2.290038824081421	73697550.21137723
2.2929933071136475	72393264.17983307
2.295942783355713	71252879.49088852
2.298887014389038	71227149.61711042
2.301826238632202	71645129.3565319
2.304760217666626	71972481.7135959
2.3076889514923096	72055269.69099447
2.310612440109253	72042980.44899952
2.3135311603546143	72050887.59105471
2.3164443969726562	72112225.71499984
2.319352865219116	72106969.74875365
2.322256088256836	71536630.22717576
2.3251543045043945	71081090.8538202
2.328047275543213	71215967.53898747
2.330935478210449	71330939.78194964
2.3338186740875244	71507769.95427564
2.3366971015930176	71694852.56396465
2.3395702838897705	71567430.88177574
2.3424389362335205	71459872.71114624
2.3453025817871094	71753346.64177236
2.348161458969116	72017582.58957022
2.351015567779541	71519748.03064364
2.353865146636963	70988595.60368228
2.3567099571228027	71031425.04895526
2.3595502376556396	71037078.52946165
2.3623859882354736	71031142.10939516
2.3652172088623047	71118894.65521458
2.368043899536133	71145023.16019355
2.370866537094116	71262374.17394477
2.3736846446990967	71530537.14098518
2.3764986991882324	71530342.33248684
2.3793084621429443	71200508.51609382
2.3821144104003906	70719581.28504999
2.384916305541992	70202176.46644989
2.387714147567749	70189655.85772878
2.3905084133148193	70706039.99897505
2.393299102783203	70940257.42845786
2.3960859775543213	70879708.29342972
2.398869514465332	70920639.92536989
2.4016497135162354	70804637.197024
2.4044265747070312	70598509.07565166
2.407200336456299	70209301.71263787
2.409970998764038	69803390.19796269
2.4127390384674072	69612955.02747743
2.415503978729248	69326457.07886247
2.418266534805298	69021456.13663903
2.4210267066955566	68999403.92522492
2.4237842559814453	69090744.60794117
2.426539897918701	68821285.75704204
2.429293394088745	68481653.09281413
2.4320452213287354	68174362.9921099
2.4347951412200928	67665446.16673633
2.4375438690185547	67747107.98375612
2.440291166305542	68155346.74301544
2.443037271499634	67605182.59413683
2.445782423019409	66898073.82261027
2.4485268592834473	66810510.643916294
2.451270818710327	66235786.46137634
2.454014539718628	65645391.735812925
2.4567582607269287	66582780.18625429
2.4595019817352295	66449449.83532046
2.4622461795806885	65735440.69870497
2.4649908542633057	66441234.035177976
2.4677364826202393	66131897.54045482
2.4704833030700684	65178008.34430956
2.473231554031372	64167952.606433846
2.4759814739227295	63887903.21822177
2.4787333011627197	64312079.89616795
2.481487512588501	64110325.52278194
2.4842441082000732	64478465.490378045
2.4870035648345947	63803841.37327302
