#wavelength	surface_flux
0.6450077295303345	30460.063310937916
0.6472567915916443	49369.27107839913
0.6494921445846558	67496.28573512127
0.6517150402069092	81664.30033509989
0.6539263725280762	97677.52281930558
0.6561272740364075	115435.54456333086
0.6583186388015747	134756.91646303964
0.6605015397071838	156975.31644136377
0.6626768708229065	182258.1952345899
0.6648455858230591	210011.61103231384
0.6670085787773132	239770.96603875858
0.6691668033599854	270437.8125209385
0.6713210344314575	302531.44534222904
0.6734722256660461	337892.32519268134
0.6756211519241333	373833.66756594105
0.6777685880661011	406066.99942486605
0.6799154281616211	434783.948188907
0.6820623278617859	456178.4670346879
0.6842101216316223	466717.299364623
0.6863595843315125	466399.1962897963
0.688511312007904	453828.0044729293
0.6906660795211792	432738.9076716141
0.6928245425224304	412577.3699213087
0.6949873566627502	402726.10523679724
0.6971551775932312	402188.9254149515
0.6993286609649658	411924.2828590982
0.7015084028244019	437510.9768848536
0.7036949396133423	466871.6441481848
0.7058889269828796	486763.0715814295
0.7080909013748169	497526.9621110508
0.710301399230957	507586.4229763428
0.712520956993103	521229.03727739415
0.7147500514984131	530361.4261973554
0.7169892191886902	530486.815012413
0.7192389369010925	523593.82204573305
0.7214996814727783	513115.8556656984
0.723771870136261	501194.1142933256
0.7260559797286987	484395.9272376842
0.7283523678779602	462682.4682237571
0.7306615710258484	437774.10611461796
0.7329838871955872	408439.7539174297
0.7353196740150452	378905.1248279176
0.7376693487167358	350332.9760471606
0.7400332689285278	317569.43411901046
0.7424117922782898	285042.2684556045
0.7448052167892456	256592.35463241485
0.7472138404846191	227291.68688275412
0.7496379613876343	193197.43020649
0.7520779371261597	157863.70620742583
0.7545340061187744	125321.98450505504
0.7570064663887024	95865.94202535515
0.7594954967498779	70481.95781514795
0.7620013952255249	45717.63806004082
0.7645244002342224	23345.2479559478
0.7670646905899048	11614.469882064113
0.7696225643157959	11114.9895740437
0.7721980810165405	20900.927910181927
0.7747915983200073	47632.419332432546
0.7774031162261963	87286.90866086417
0.7800329327583313	135595.65985911762
0.7826811671257019	214930.45884523477
0.7853479981422424	322522.8685154513
0.7880334854125977	438185.8279062316
0.7907378077507019	549859.2365810628
0.7934610247612	632663.9034513673
0.7962033748626709	768731.0162936973
0.7989648580551147	1009820.2518076847
0.801745593547821	1248396.5041727256
0.8045456409454346	1451072.0901879538
0.8073651194572449	1652633.9911680096
0.8102040886878967	1859876.703189912
0.8130625486373901	2077984.8103533618
0.8159406185150146	2305901.064607127
0.8188382983207703	2542698.606501661
0.8217556476593018	2802570.0135666076
0.8246926665306091	3087894.4740772457
0.8276493549346924	3378563.1728743715
0.8306257724761963	3663083.8570656
0.8336219191551208	3952942.415871155
0.8366377949714661	4258972.357254469
0.8396733403205872	4580865.383172305
0.8427285552024841	4918736.837550021
0.8458034992218018	5247884.591788909
0.8488980531692505	5417641.250777941
0.8520121574401855	5454650.2291580355
0.8551458716392517	5825505.799622733
0.8582990765571594	6335181.354328873
0.8614717125892639	6488953.5404408
0.8646637797355652	6596598.139268434
0.8678751587867737	6907031.716192439
0.8711057901382446	7275613.0436554365
0.8743556141853333	7671294.314861572
0.87762451171875	8137930.097667212
0.8809124231338501	8640752.555971397
0.8842192888259888	9179235.57981107
0.8875449895858765	9700244.61751297
0.8908893465995789	9904810.874843622
0.894252359867096	9896318.085799212
0.8976338505744934	10491101.726938916
0.9010337591171265	11495410.874269582
0.9044519662857056	12230626.670906695
0.9078882932662964	12750302.781589113
0.9113426208496094	13172496.420172228
0.914814829826355	13574274.766021509
0.9183048605918884	14025466.591224292
0.9218124747276306	14400073.879710687
0.925337553024292	14041139.026429381
0.9288799166679382	13007678.392711673
0.9324395060539246	12715544.224713992
0.9360161423683167	13598089.967697078
0.9396095871925354	14765027.186554467
0.943219780921936	15469189.529954737
0.9468464851379395	15710627.179577807
0.9504896402359009	15943063.386771914
0.9541489481925964	16236766.639658345
0.9578243494033813	16480237.650744159
0.9615156054496765	16845236.918295104
0.9652225375175476	17501513.52112922
0.9689450263977051	18275327.61236612
0.9726828336715698	18983196.59289302
0.9764357805252075	19650564.68144605
0.9802037477493286	20327482.30220528
0.983986496925354	21007668.28661218
0.9877838492393494	21658023.372371316
0.9915955662727356	22158029.85402413
0.9954215884208679	22322497.704443485
0.9992615580558777	22091339.33441453
1.0031154155731201	22134963.786053617
1.0069829225540161	22855659.81535071
1.0108637809753418	23803031.12270818
1.0147579908370972	24693887.5808433
1.018665075302124	25474639.98990072
1.022585153579712	26150850.25411364
1.0265177488327026	26762927.460964385
1.0304628610610962	27389743.887935355
1.0344202518463135	28022598.273294255
1.0383895635604858	28613831.62709769
1.0423706769943237	29154677.306560285
1.0463634729385376	29637365.397490613
1.0503677129745483	30072731.14972316
1.0543830394744873	30485652.440677367
1.058409333229065	30926571.95987172
1.0624464750289917	31436841.20833424
1.0664942264556885	31980117.16870691
1.0705522298812866	32505360.847659007
1.0746204853057861	33007515.193285536
1.0786986351013184	33476488.44792334
1.0827864408493042	33853491.13108902
1.086883783340454	33938698.250153765
1.0909905433654785	33453022.282775674
1.0951062440872192	32427899.81613062
1.0992310047149658	31207492.14467242
1.10336434841156	29952676.674698815
1.1075061559677124	28597334.74533391
1.1116561889648438	27284400.974999104
1.115814208984375	26584253.525982678
1.1199802160263062	26864202.88580383
1.124153733253479	27992112.901109792
1.1283347606658936	28590427.855448768
1.1325229406356812	27312698.275403913
1.1367181539535522	26930145.132128906
1.1409201622009277	28707778.048521936
1.145128846168518	30110575.788614634
1.1493438482284546	30779165.83779657
1.1535650491714478	30879344.5826515
1.1577922105789185	30731288.523227192
1.1620250940322876	30810051.410559714
1.1662636995315552	30701935.663616423
1.170507550239563	30926828.313649006
1.174756646156311	31594196.86628568
1.1790107488632202	32813658.096663933
1.1832695007324219	35066626.07273783
1.1875330209732056	37245785.20766197
1.191800832748413	38895470.470509775
1.1960728168487549	40372914.36567201
1.2003488540649414	41584919.276674084
1.2046287059783936	42615418.86019852
1.2089121341705322	43518353.189248785
1.2131990194320679	44355954.51610527
1.2174891233444214	45199467.74545878
1.2217823266983032	45965793.31854552
1.2260783910751343	46690408.50228156
1.230377197265625	47411102.466754705
1.2346785068511963	48050334.982401974
1.238982081413269	48452730.1901335
1.2432878017425537	48675078.92387868
1.2475954294204712	49043685.719476014
1.2519049644470215	49331521.13128105
1.256216049194336	49981119.15017965
1.2605286836624146	50919435.885340184
1.2648425102233887	51358266.189933956
1.2691574096679688	51566044.15805696
1.2734732627868652	51720330.191578865
1.2777899503707886	51823813.793077365
1.2821072340011597	51786390.69704378
1.2864248752593994	51591602.22558639
1.2907428741455078	51428359.42021142
1.2950609922409058	51420510.03478677
1.2993791103363037	51489178.28083966
1.303696870803833	51621543.39742573
1.3080145120620728	51811793.796556115
1.3123314380645752	51756195.76800701
1.3166478872299194	51492695.095659114
1.3209635019302368	50897483.597437195
1.3252781629562378	48765016.49218918
1.3295916318893433	42961516.49833348
1.3339040279388428	33245895.892009754
1.3382149934768677	24377354.030983817
1.3425244092941284	19613429.258468006
1.3468321561813354	16814010.590649445
1.3511382341384888	14319268.441015868
1.3554422855377197	12611583.148493895
1.3597444295883179	12592990.962291688
1.3640443086624146	14176910.97404014
1.3683418035507202	15372560.495706653
1.3726370334625244	15875980.56773054
1.3769296407699585	17207277.461913645
1.381219506263733	17950512.991349146
1.3855066299438477	17710566.415378645
1.3897908926010132	17449446.384506673
1.3940720558166504	16609361.042783726
1.3983501195907593	15928355.057141677
1.4026249647140503	16085392.131230434
1.4068963527679443	15923653.15741991
1.4111642837524414	15281927.41175393
1.4154287576675415	15056120.081990134
1.419689416885376	14746542.51123412
1.4239463806152344	14468958.75948538
1.4281994104385376	15278644.867245194
1.4324485063552856	16671263.497865327
1.436693549156189	17701669.46543194
1.440934419631958	18429596.023076024
1.4451709985733032	19445394.50594122
1.449403166770935	21761786.09265498
1.453631043434143	24590602.481229935
1.4578542709350586	26566051.474981923
1.4620729684829712	27400220.313742697
1.4662868976593018	27599251.846506234
1.4704961776733398	28056507.589128707
1.4747005701065063	29174246.693471164
1.4788999557495117	30605627.69280766
1.4830944538116455	31795104.203764364
1.4872838258743286	32800084.537116062
1.491468071937561	33802561.14669831
1.4956470727920532	35198977.77101623
1.4998208284378052	36807429.937611096
1.5039892196655273	38463778.29838526
1.5081522464752197	40248119.53571336
1.5123097896575928	42112139.254717894
1.5164618492126465	43878427.80252631
1.5206083059310913	45727268.95663755
1.5247491598129272	47744056.953822866
1.5288842916488647	49506019.81090981
1.5330137014389038	51258231.90873602
1.5371372699737549	53194800.120154805
1.541254997253418	55000270.296392046
1.545366883277893	56799456.80004114
1.5494728088378906	58447342.306320764
1.5535727739334106	59357033.40770393
1.5576666593551636	59260167.43963461
1.561754584312439	59456628.01527269
1.5658363103866577	61124738.19610371
1.5699119567871094	63253043.475217804
1.5739814043045044	64757326.446942866
1.5780447721481323	65199058.115137175
1.582101821899414	65506228.75648345
1.5861525535583496	66484020.13292507
1.5901970863342285	67517179.79252703
1.5942351818084717	68317623.52896906
1.5982669591903687	68946106.68646286
1.6022924184799194	69433716.09996973
1.606311559677124	69963004.902922
1.6103241443634033	70503106.54062092
1.6143304109573364	70969225.10296723
1.6183301210403442	71382122.30672838
1.6223233938217163	71889417.96416503
1.6263102293014526	72366975.23087434
1.6302905082702637	72530867.1482217
1.634264349937439	72662781.29186817
1.638231635093689	72919988.99426979
1.6421923637390137	73082848.92869578
1.646146535873413	73225445.06859699
1.6500942707061768	73394229.89532548
1.6540353298187256	73484312.63464008
1.6579699516296387	73399458.74296667
1.661897897720337	73277286.6646521
1.6658192873001099	73242362.38716935
1.6697341203689575	73035165.79601447
1.6736423969268799	73127661.11722249
1.677544116973877	73867501.91931963
1.6814392805099487	74351296.81790975
1.6853278875350952	73891664.98134302
1.6892099380493164	73052349.09357011
1.6930854320526123	72484219.19767684
1.696954369544983	72103334.38217661
1.7008168697357178	72206782.38784401
1.7046726942062378	72262034.81148003
1.708522081375122	71387638.13347338
1.712364912033081	69848560.9015227
1.7162011861801147	67938109.95240006
1.7200311422348022	66225419.74997218
1.723854422569275	64722757.839320414
1.7276713848114014	63161179.53739018
1.731481909751892	61451525.95359298
1.7352858781814575	59433323.588107824
1.7390835285186768	57377562.755244
1.7428747415542603	55253555.47077469
1.7466596364974976	53055056.27995181
1.7504380941390991	51118816.65714763
1.7542102336883545	48797375.43191383
1.7579760551452637	46789924.75201103
1.7617355585098267	45902938.29084857
1.7654887437820435	44104772.85766035
1.7692357301712036	41111240.75090206
1.7729763984680176	38348429.50514884
1.776710867881775	36286103.58647332
1.7804391384124756	34645952.26804581
1.7841613292694092	32166852.814277556
1.7878772020339966	30657669.944636896
1.7915871143341064	30050453.18595703
1.7952908277511597	29170097.270604473
1.7989884614944458	27802201.606389362
1.8026801347732544	25237443.68082442
1.806365728378296	23889046.688992504
1.8100452423095703	24341857.406377885
1.8137187957763672	25804415.516809877
1.817386507987976	25004468.816333108
1.8210482597351074	23750172.78080453
1.8247040510177612	25540000.797392763
1.828354001045227	25562637.632233087
1.8319982290267944	23680668.19122808
1.8356364965438843	22383379.393922962
1.8392690420150757	21658467.69728561
1.8428958654403687	21297121.290104058
1.8465168476104736	20287441.090205573
1.8501322269439697	20206746.51520613
1.8537418842315674	20059294.166910432
1.8573459386825562	17553050.35825378
1.860944390296936	15391381.316477131
1.864537239074707	15183679.958364189
1.8681244850158691	15956650.855022185
1.871706247329712	17414840.608253926
1.8752825260162354	19695124.680219248
1.8788533210754395	23001083.685625847
1.8824186325073242	26191530.723630227
1.8859784603118896	27717432.47579984
1.8895330429077148	27977742.2233111
1.8930821418762207	29409323.71963258
1.8966259956359863	31531329.059484188
1.9001644849777222	31289648.28254162
1.9036977291107178	30124094.181031886
1.9072256088256836	30636869.014112752
1.9107483625411987	30874517.5773247
1.9142658710479736	30521186.594154954
1.9177782535552979	30911096.634611662
1.9212853908538818	29739819.218942232
1.9247875213623047	27933371.631691523
1.9282845258712769	26774663.79604018
1.9317764043807983	25085052.758371733
1.9352631568908691	23110601.22533577
1.9387450218200684	20694737.785890818
1.942221760749817	20600756.57084903
1.9456936120986938	22783748.001901735
1.9491604566574097	23985770.51912926
1.952622413635254	23631047.21724629
1.956079363822937	22627680.176124584
1.959531545639038	22843213.531394925
1.962978720664978	23804777.618222084
1.966421127319336	25315265.43048001
1.9698586463928223	26406369.96949944
1.9732913970947266	25937969.908347424
1.9767193794250488	26211810.55204798
1.9801424741744995	27248486.58202965
1.9835609197616577	28705424.262586027
1.9869745969772339	29662915.054900236
1.990383505821228	28976284.067363348
1.9937876462936401	30143386.1155884
1.9971871376037598	31460905.15601303
2.000581979751587	32011269.481281236
2.003972291946411	33694482.27678324
2.007357597351074	34031555.69640322
2.0107386112213135	34767551.87057392
2.0141148567199707	36676045.37621427
2.017486572265625	37123525.481452934
2.0208535194396973	39183974.56710131
2.0242159366607666	41855139.28419818
2.027573823928833	41425248.77939245
2.0309269428253174	42251648.833675966
2.034275770187378	45489134.82297496
2.0376198291778564	47278578.15963324
2.040959596633911	47636322.67163045
2.044294595718384	48996075.563253395
2.0476250648498535	51127717.001874946
2.0509510040283203	51727435.76271608
2.054272413253784	52357828.23279559
2.057589530944824	55332590.955397606
2.0609018802642822	56734869.80272768
2.0642096996307373	56451046.19044344
2.0675129890441895	57836527.998264514
2.0708119869232178	58867766.540129274
2.074106216430664	58974316.14448868
2.0773961544036865	59832660.61539195
2.080681324005127	60918456.170805745
2.0839622020721436	61598962.8114646
2.087238311767578	62342351.21264617
2.090510129928589	63329635.21717866
2.0937774181365967	63948082.633237176
2.0970399379730225	64345886.24409147
2.1002981662750244	64874746.46546033
2.1035518646240234	65096732.09034437
2.1068007946014404	65419614.782646656
2.1100454330444336	66082019.45406022
2.1132853031158447	66732636.57426227
2.116520881652832	66681751.36353093
2.1197516918182373	66712515.99489318
2.1229779720306396	67648420.10425153
2.12619948387146	68023004.55018818
2.1294167041778564	67651229.69684868
2.132629156112671	68050943.71414392
2.1358368396759033	68579805.13489766
2.139039993286133	68079065.30976179
2.1422386169433594	67926423.2756967
2.145432472229004	68646766.2728259
2.1486217975616455	68741952.67260307
2.151806354522705	68259188.57799633
2.1549863815307617	68256523.54008229
2.1581614017486572	68471729.88830163
2.16133189201355	68518870.23274979
2.1644976139068604	68454625.97307031
2.167658567428589	68438706.9266402
2.1708147525787354	68299711.12530567
2.173966407775879	67805772.22296414
2.1771130561828613	67222277.91944171
2.1802549362182617	67177267.24282761
2.183391809463501	67270512.5588058
2.1865241527557373	66913858.14084657
2.1896514892578125	66712519.5279964
2.1927738189697266	66230249.987156354
2.1958916187286377	65075043.80041382
2.1990041732788086	64113754.98280007
2.2021119594573975	63533722.14008328
2.2052149772644043	63333042.1495375
2.208312749862671	63623698.779745236
2.2114057540893555	64091420.10546051
2.214493751525879	64217463.7048227
2.217576742172241	63109346.34104435
2.2206547260284424	61729822.80420247
2.2237277030944824	62038683.03666971
2.2267956733703613	62566136.6557496
2.2298583984375	62508039.216502376
2.2329163551330566	62361243.151275076
2.235969066619873	61827212.91299602
2.2390167713165283	61326388.85032959
2.2420592308044434	60356521.933677815
2.2450966835021973	59512650.514890686
2.248128890991211	59455552.1174074
2.2511560916900635	59626041.46330087
2.254178285598755	59594917.48292256
2.257194995880127	59554163.76495453
2.260206699371338	59693345.378900886
2.2632133960723877	58702993.534584776
2.266214609146118	57085341.192947716
2.2692108154296875	56289992.21771923
2.2722020149230957	56623885.94394492
2.2751877307891846	57645954.099340856
2.278168201446533	57335058.401499026
2.2811436653137207	56186954.165100455
2.284113883972168	56348297.342143685
2.287078857421875	56858619.8866093
2.290038824081421	54261072.156723104
2.2929933071136475	45748413.82827473
2.295942783355713	36304132.070153944
2.298887014389038	32653705.131118115
2.301826238632202	32812791.051815137
2.304760217666626	32991568.022241797
2.3076889514923096	32463146.372021917
2.310612440109253	31748665.687315136
2.3135311603546143	31469641.243820228
2.3164443969726562	31366287.46128229
2.319352865219116	30990772.18069089
2.322256088256836	29527783.352346733
2.3251543045043945	28530407.7504736
2.328047275543213	29089608.83969979
2.330935478210449	30085512.537020028
2.3338186740875244	31467945.120482832
2.3366971015930176	32347811.323700003
2.3395702838897705	32215602.011264436
2.3424389362335205	32348677.80034024
2.3453025817871094	34355686.54273845
2.348161458969116	36566533.144834265
2.351015567779541	35169215.14479052
2.353865146636963	33046317.706410334
2.3567099571228027	32417626.696765266
2.3595502376556396	31414496.65286256
2.3623859882354736	31006462.793407373
2.3652172088623047	31014921.67716803
2.368043899536133	30683028.761819854
2.370866537094116	30777052.827516917
2.3736846446990967	31689516.323444672
2.3764986991882324	31909813.692145824
2.3793084621429443	31400958.19276063
2.3821144104003906	30598041.001003873
2.384916305541992	29410384.433235224
2.387714147567749	29841994.282752655
2.3905084133148193	31407962.086299207
2.393299102783203	31738019.706998564
2.3960859775543213	31676821.87074302
2.398869514465332	32386618.813404664
2.4016497135162354	32307331.969631568
2.4044265747070312	31556130.238937847
2.407200336456299	30168424.124687217
2.409970998764038	28864004.068857938
2.4127390384674072	28903395.66414162
2.415503978729248	28531289.535672553
2.418266534805298	27623275.45865702
2.4210267066955566	27903475.96675266
2.4237842559814453	28444231.57511713
2.426539897918701	27991601.003050372
2.429293394088745	27743482.53713778
2.4320452213287354	26708229.151569754
2.4347951412200928	24321952.91588774
2.4375438690185547	24613800.452721525
2.440291166305542	26363608.24569525
2.443037271499634	24838001.270500712
2.445782423019409	22160507.41016266
2.4485268592834473	21420725.259776022
2.451270818710327	20097161.294423316
2.454014539718628	19005835.418401524
2.4567582607269287	22158537.223670907
2.4595019817352295	23031174.118323684
2.4622461795806885	21595025.420721956
2.4649908542633057	21670055.509566132
2.4677364826202393	19173046.583100483
2.4704833030700684	16383363.71246905
2.473231554031372	14694416.641825568
2.4759814739227295	14260258.01034508
2.4787333011627197	15008537.159503274
2.481487512588501	15195477.31938533
