#wavelength	surface_flux
0.6450077295303345	3850192.5446394226
0.6472567915916443	5695137.4026301345
0.6494921445846558	6605183.09943682
0.6517150402069092	6909966.245189204
0.6539263725280762	7372741.463581465
0.6561272740364075	7415544.250377602
0.6583186388015747	7242972.1281881835
0.6605015397071838	7170830.392585351
0.6626768708229065	7050991.962911162
0.6648455858230591	6931314.443133683
0.6670085787773132	6911720.294986186
0.6691668033599854	6949494.191833907
0.6713210344314575	7013151.467575598
0.6734722256660461	7170286.974674797
0.6756211519241333	7455047.798077907
0.6777685880661011	7766603.179637331
0.6799154281616211	8057423.051200896
0.6820623278617859	8407289.264552223
0.6842101216316223	8734157.998380443
0.6863595843315125	8941505.405629417
0.688511312007904	9207418.666690314
0.6906660795211792	9703610.147690121
0.6928245425224304	10482366.898590587
0.6949873566627502	11640340.19111515
0.6971551775932312	13030706.814660424
0.6993286609649658	14349533.486241067
0.7015084028244019	16001218.579106908
0.7036949396133423	17490236.893589806
0.7058889269828796	16241151.159545545
0.7080909013748169	13348055.491518872
0.710301399230957	11966202.742342781
0.712520956993103	11704890.579629153
0.7147500514984131	11737486.008027531
0.7169892191886902	12276688.74909326
0.7192389369010925	13077207.59788979
0.7214996814727783	13940270.620641453
0.723771870136261	15561995.498568662
0.7260559797286987	17995325.637289226
0.7283523678779602	21005596.647448678
0.7306615710258484	24948151.94580989
0.7329838871955872	26802950.580587577
0.7353196740150452	24184635.036183115
0.7376693487167358	20871378.331764124
0.7400332689285278	18306880.264866978
0.7424117922782898	16181046.218261026
0.7448052167892456	15292770.259184124
0.7472138404846191	15447094.07093956
0.7496379613876343	16675189.887654224
0.7520779371261597	18692116.027925983
0.7545340061187744	21952815.82902602
0.7570064663887024	25199329.16393048
0.7594954967498779	26549624.881808348
0.7620013952255249	26093673.46693153
0.7645244002342224	22432032.06404475
0.7670646905899048	17818156.50363121
0.7696225643157959	17403603.87013143
0.7721980810165405	21584748.22479954
0.7747915983200073	26898747.819339823
0.7774031162261963	30477715.879965838
0.7800329327583313	33447703.768506534
0.7826811671257019	36571252.05766143
0.7853479981422424	39685109.86504167
0.7880334854125977	43419331.658226795
0.7907378077507019	44514327.93255956
0.7934610247612	42953732.24917943
0.7962033748626709	43570453.28014904
0.7989648580551147	45478460.034749
0.801745593547821	48000721.263770774
0.8045456409454346	52951917.61142673
0.8073651194572449	63030869.791500024
0.8102040886878967	80541194.67084572
0.8130625486373901	102074841.9380735
0.8159406185150146	116026357.04838489
0.8188382983207703	111858826.96439195
0.8217556476593018	105723059.5449198
0.8246926665306091	110763199.3427881
0.8276493549346924	110849555.61228985
0.8306257724761963	104503903.04677087
0.8336219191551208	102899275.08148989
0.8366377949714661	103488889.27536839
0.8396733403205872	102068458.97064283
0.8427285552024841	90780147.71671341
0.8458034992218018	71073361.36612001
0.8488980531692505	61018513.9316343
0.8520121574401855	59883515.448387526
0.8551458716392517	59600584.97425668
0.8582990765571594	59217849.523628205
0.8614717125892639	57532446.07970194
0.8646637797355652	56018103.60467111
0.8678751587867737	55853276.96341791
0.8711057901382446	60834855.94818472
0.8743556141853333	72511265.58847243
0.87762451171875	91568492.01106063
0.8809124231338501	116497614.28791568
0.8842192888259888	132637276.08556956
0.8875449895858765	130769844.46466805
0.8908893465995789	130964977.13394037
0.894252359867096	141183226.77536008
0.8976338505744934	156781060.64797634
0.9010337591171265	178354221.31607583
0.9044519662857056	199706771.1062789
0.9078882932662964	224693365.5495725
0.9113426208496094	253694599.57224408
0.914814829826355	280169127.57610554
0.9183048605918884	288075031.6085273
0.9218124747276306	256449528.03290614
0.925337553024292	211312633.06662935
0.9288799166679382	187181468.6073874
0.9324395060539246	184542839.26105413
0.9360161423683167	196457024.0934518
0.9396095871925354	213837425.73617274
0.943219780921936	231694344.06902903
0.9468464851379395	252232475.35881814
0.9504896402359009	273661432.4035557
0.9541489481925964	291935364.32047516
0.9578243494033813	307978221.25928146
0.9615156054496765	320157183.91562617
0.9652225375175476	330343157.2624415
0.9689450263977051	335861516.70237935
0.9726828336715698	327200643.83171827
0.9764357805252075	319199523.28803515
0.9802037477493286	323369375.5467951
0.983986496925354	333773741.00379634
0.9877838492393494	338978306.7982066
0.9915955662727356	326515851.89252347
0.9954215884208679	324234466.5014487
0.9992615580558777	333480473.74676955
1.0031154155731201	333641616.4666443
1.0069829225540161	341364798.2482855
1.0108637809753418	362185177.91391444
1.0147579908370972	378246184.8988582
1.018665075302124	388689896.64866716
1.022585153579712	398727140.97331023
1.0265177488327026	399964984.1912429
1.0304628610610962	407627369.0730695
1.0344202518463135	430224991.54207575
1.0383895635604858	454987613.5536073
1.0423706769943237	477195588.09593487
1.0463634729385376	494446530.3643993
1.0503677129745483	505913368.5171453
1.0543830394744873	516171053.6555331
1.058409333229065	529328083.2920536
1.0624464750289917	545586991.4663287
1.0664942264556885	561471392.2939942
1.0705522298812866	578367311.4941802
1.0746204853057861	597262801.5457153
1.0786986351013184	614444726.501793
1.0827864408493042	626254810.5181088
1.086883783340454	624594597.9070613
1.0909905433654785	607164313.6964494
1.0951062440872192	580750880.1764657
1.0992310047149658	551269496.4644842
1.10336434841156	512918982.30766475
1.1075061559677124	480666311.4199783
1.1116561889648438	477480207.6822954
1.115814208984375	487046454.79540855
1.1199802160263062	496727718.2241898
1.124153733253479	515928146.03392047
1.1283347606658936	529023459.7572517
1.1325229406356812	513251865.84024507
1.1367181539535522	480873530.1648318
1.1409201622009277	472109939.07649535
1.145128846168518	506049051.0844938
1.1493438482284546	542663020.3552378
1.1535650491714478	553368501.1334682
1.1577922105789185	554301752.5308813
1.1620250940322876	554820014.107327
1.1662636995315552	548014870.2053726
1.170507550239563	537702540.8724664
1.174756646156311	524558807.7561328
1.1790107488632202	520906245.27972186
1.1832695007324219	546371270.6400772
1.1875330209732056	571748312.8045889
1.191800832748413	582145291.3969228
1.1960728168487549	588594871.7700428
1.2003488540649414	598208761.4894608
1.2046287059783936	617447904.5347635
1.2089121341705322	635301277.4973783
1.2131990194320679	651423789.4379464
1.2174891233444214	669500815.5716591
1.2217823266983032	683804065.6360084
1.2260783910751343	697525114.8719468
1.230377197265625	709335116.4696232
1.2346785068511963	713637387.450879
1.238982081413269	700696770.1778816
1.2432878017425537	678639074.5661098
1.2475954294204712	678722374.5072318
1.2519049644470215	687528583.4486423
1.256216049194336	696048319.2737083
1.2605286836624146	711063633.4220413
1.2648425102233887	723091028.8997923
1.2691574096679688	734048745.1891149
1.2734732627868652	745057949.3397708
1.2777899503707886	755170894.3019176
1.2821072340011597	758058204.4832375
1.2864248752593994	756663630.804069
1.2907428741455078	763207777.1881734
1.2950609922409058	776679025.7992939
1.2993791103363037	786845634.1028231
1.303696870803833	788656556.3390825
1.3080145120620728	777883526.8129154
1.3123314380645752	759387345.4187216
1.3166478872299194	748630682.4654803
1.3209635019302368	738851734.8969824
1.3252781629562378	706348806.4146103
1.3295916318893433	627467853.9715943
1.3339040279388428	508166721.2333331
1.3382149934768677	416846419.37090176
1.3425244092941284	381224546.9891536
1.3468321561813354	367531631.8893573
1.3511382341384888	355495165.02473885
1.3554422855377197	342453935.6922811
1.3597444295883179	335345795.71115774
1.3640443086624146	333418471.6018209
1.3683418035507202	328999334.18245053
1.3726370334625244	324155393.2623312
1.3769296407699585	331549144.80626744
1.381219506263733	344159516.689201
1.3855066299438477	347464548.8915373
1.3897908926010132	338995667.002935
1.3940720558166504	326216116.5490209
1.3983501195907593	317799981.89096487
1.4026249647140503	314025495.38588434
1.4068963527679443	306973122.76509345
1.4111642837524414	295122736.7262742
1.4154287576675415	285588075.28202206
1.419689416885376	279746571.7233045
1.4239463806152344	275211014.47818625
1.4281994104385376	273373596.39254844
1.4324485063552856	276687023.6035975
1.436693549156189	282772436.6778463
1.440934419631958	289404687.7731234
1.4451709985733032	295835771.5444767
1.449403166770935	304859141.04290545
1.453631043434143	315245215.8230174
1.4578542709350586	321169377.5180042
1.4620729684829712	320229864.07204205
1.4662868976593018	315274028.08258444
1.4704961776733398	311901350.5979749
1.4747005701065063	314589978.22913384
1.4788999557495117	320762287.3562695
1.4830944538116455	326708841.9434649
1.4872838258743286	332278832.8383316
1.491468071937561	335948769.59930146
1.4956470727920532	341149607.4975765
1.4998208284378052	347347812.9527843
1.5039892196655273	353250692.3454318
1.5081522464752197	361537085.2447141
1.5123097896575928	371470152.6100662
1.5164618492126465	379037875.18130773
1.5206083059310913	385257405.3397587
1.5247491598129272	391188983.03294665
1.5288842916488647	396422086.46514326
1.5330137014389038	402440495.72604007
1.5371372699737549	409367577.43969023
1.541254997253418	417819585.1047229
1.545366883277893	428179807.1942809
1.5494728088378906	438220001.63542444
1.5535727739334106	445206872.2859814
1.5576666593551636	451458649.2784657
1.561754584312439	461448603.24128217
1.5658363103866577	473444000.88579696
1.5699119567871094	482511533.1528989
1.5739814043045044	492255060.02117026
1.5780447721481323	504492325.25073
1.582101821899414	516373195.85767156
1.5861525535583496	527415429.99871516
1.5901970863342285	536339645.803613
1.5942351818084717	545879945.5142506
1.5982669591903687	557559513.2155575
1.6022924184799194	566799766.1369824
1.606311559677124	574300501.9340031
1.6103241443634033	581321358.8710493
1.6143304109573364	589925914.8817259
1.6183301210403442	599589345.822606
1.6223233938217163	608231669.0283756
1.6263102293014526	616258786.6628623
1.6302905082702637	622380037.9707545
1.634264349937439	629744072.5368401
1.638231635093689	639061155.2247727
1.6421923637390137	647338685.4759073
1.646146535873413	654972986.0765995
1.6500942707061768	659011320.4113789
1.6540353298187256	663301352.2784212
1.6579699516296387	668749691.8527702
1.661897897720337	673560719.9777184
1.6658192873001099	681278516.2572434
1.6697341203689575	686726195.516472
1.6736423969268799	691655515.6321019
1.677544116973877	697797960.2439216
1.6814392805099487	700011981.5316381
1.6853278875350952	695742508.2770662
1.6892099380493164	687423261.3329884
1.6930854320526123	676527269.6768656
1.696954369544983	662135031.9419572
1.7008168697357178	650802809.8684561
1.7046726942062378	638193112.4803733
1.708522081375122	617192619.6883911
1.712364912033081	590805799.2697915
1.7162011861801147	561784423.3541267
1.7200311422348022	543220079.7774484
1.723854422569275	538085818.4698594
1.7276713848114014	530108079.2508029
1.731481909751892	514242943.4035832
1.7352858781814575	498946257.58862746
1.7390835285186768	489980170.14755505
1.7428747415542603	480359351.76319474
1.7466596364974976	466748590.9272834
1.7504380941390991	455501485.5788182
1.7542102336883545	442194948.62241036
1.7579760551452637	426731083.53354114
1.7617355585098267	419310849.28487813
1.7654887437820435	413415610.32567877
1.7692357301712036	398891270.0550684
1.7729763984680176	381632719.06552535
1.776710867881775	369119710.9887605
1.7804391384124756	362583329.6483758
1.7841613292694092	354183941.75104266
1.7878772020339966	343023100.6613755
1.7915871143341064	335645154.7199755
1.7952908277511597	331602700.4364993
1.7989884614944458	323638686.2102845
1.8026801347732544	312665492.7797538
1.806365728378296	306273005.370679
1.8100452423095703	304395431.8229541
1.8137187957763672	310491302.6399777
1.817386507987976	308611267.4373748
1.8210482597351074	300053435.12049
1.8247040510177612	303203436.5962464
1.828354001045227	304164183.9869734
1.8319982290267944	297153239.5036696
1.8356364965438843	292292294.7235797
1.8392690420150757	288056909.8538195
1.8428958654403687	276689232.0487424
1.8465168476104736	264305566.2199407
1.8501322269439697	263682736.82678488
1.8537418842315674	262459792.63352665
1.8573459386825562	246065482.11825776
1.860944390296936	235548312.04355678
1.864537239074707	243447949.64533243
1.8681244850158691	255232908.7277722
1.871706247329712	260121708.9802313
1.8752825260162354	257715116.8230381
1.8788533210754395	258623523.38266483
1.8824186325073242	270650530.527052
1.8859784603118896	279540166.7401296
1.8895330429077148	274982226.08466125
1.8930821418762207	268860690.0328491
1.8966259956359863	274730558.93813753
1.9001644849777222	285555777.04160887
1.9036977291107178	288195586.3839763
1.9072256088256836	286048815.96840197
1.9107483625411987	285291026.5275526
1.9142658710479736	286689662.2210312
1.9177782535552979	285194775.6583556
1.9212853908538818	282193954.3230989
1.9247875213623047	280875386.7809476
1.9282845258712769	278639687.489193
1.9317764043807983	276282060.68504614
1.9352631568908691	276060254.6164512
1.9387450218200684	271679517.9048222
1.942221760749817	267855833.824923
1.9456936120986938	271148435.3368867
1.9491604566574097	272106326.9670154
1.952622413635254	267570669.85167712
1.956079363822937	267422635.8326947
1.959531545639038	272495912.95323735
1.962978720664978	272120577.71102005
1.966421127319336	271385696.02952987
1.9698586463928223	272925653.4799522
1.9732913970947266	267503140.289723
1.9767193794250488	258539300.57131645
1.9801424741744995	255362093.599542
1.9835609197616577	256571458.27341282
1.9869745969772339	255351568.4213798
1.990383505821228	252593350.11262965
1.9937876462936401	255218013.41732892
1.9971871376037598	254158152.32011405
2.000581979751587	250138482.9959933
2.003972291946411	253286055.83595118
2.007357597351074	256550834.9893666
2.0107386112213135	256483378.6536213
2.0141148567199707	256789643.83159396
2.017486572265625	255790877.39947242
2.0208535194396973	258638532.55096275
2.0242159366607666	263285854.29884213
2.027573823928833	261354680.74399018
2.0309269428253174	263024422.52349773
2.034275770187378	267390750.340314
2.0376198291778564	266558072.473633
2.040959596633911	265260377.71367893
2.044294595718384	267243786.58929276
2.0476250648498535	270258826.53721744
2.0509510040283203	270539731.0516878
2.054272413253784	271684154.67021674
2.057589530944824	277936541.6716933
2.0609018802642822	277769717.91932094
2.0642096996307373	273264205.74028844
2.0675129890441895	279105765.6682341
2.0708119869232178	284555738.0876933
2.074106216430664	284101915.3663873
2.0773961544036865	287260704.7381752
2.080681324005127	290618272.91066283
2.0839622020721436	292147067.4200341
2.087238311767578	295254246.467271
2.090510129928589	300242476.34877145
2.0937774181365967	303263566.6167264
2.0970399379730225	304710258.7870852
2.1002981662750244	309471804.7930494
2.1035518646240234	313061013.18051535
2.1068007946014404	313812271.33569485
2.1100454330444336	317091181.5548471
2.1132853031158447	323330297.8069873
2.116520881652832	325782199.5526058
2.1197516918182373	327199797.4869805
2.1229779720306396	332609712.82473254
2.12619948387146	333958613.7608977
2.1294167041778564	333014117.21288604
2.132629156112671	338751637.3425564
2.1358368396759033	344192915.04840165
2.139039993286133	342757786.9058304
2.1422386169433594	345580423.74862534
2.145432472229004	354160140.4361834
2.1486217975616455	353561767.337599
2.151806354522705	349541364.7402377
2.1549863815307617	353112115.5029211
2.1581614017486572	358092545.782163
2.16133189201355	359825424.2003585
2.1644976139068604	361407777.10119015
2.167658567428589	365263060.7776804
2.1708147525787354	365973135.5917306
2.173966407775879	363060456.0951378
2.1771130561828613	360935099.47215945
2.1802549362182617	362219274.2161753
2.183391809463501	365043703.85600376
2.1865241527557373	366785556.78549844
2.1896514892578125	368571502.1416679
2.1927738189697266	368684204.1262927
2.1958916187286377	369774757.07248265
2.1990041732788086	371789673.5559935
2.2021119594573975	369266355.67275435
2.2052149772644043	365603261.11423147
2.208312749862671	366742912.5727508
2.2114057540893555	371503171.63636225
2.214493751525879	373625980.087332
2.217576742172241	369178307.8304596
2.2206547260284424	366701643.0804208
2.2237277030944824	372350211.40286106
2.2267956733703613	374064520.90393865
2.2298583984375	372191025.41222185
2.2329163551330566	371114591.8154738
2.235969066619873	368739219.47992635
2.2390167713165283	371502924.2907615
2.2420592308044434	373890104.3928979
2.2450966835021973	373862884.10909986
2.248128890991211	374788393.48315316
2.2511560916900635	373139216.62703246
2.254178285598755	370049770.7050966
2.257194995880127	369081374.3190669
2.260206699371338	368984419.07646984
2.2632133960723877	367083792.5702537
2.266214609146118	367065748.93733895
2.2692108154296875	367240296.9328542
2.2722020149230957	366283355.0030987
2.2751877307891846	367655718.9365268
2.278168201446533	365237262.9127309
2.2811436653137207	360976727.0336439
2.284113883972168	362711609.54748935
2.287078857421875	367492212.2106544
2.290038824081421	361309409.0939836
2.2929933071136475	331876234.1896026
2.295942783355713	307435220.4785685
2.298887014389038	310929750.82574326
2.301826238632202	321149610.6742154
2.304760217666626	325669472.8028953
2.3076889514923096	325541717.1779003
2.310612440109253	321009629.8334808
2.3135311603546143	317191727.6966408
2.3164443969726562	317062330.07666814
2.319352865219116	314135813.87607884
2.322256088256836	298788608.0646998
2.3251543045043945	287473411.1446249
2.328047275543213	290390278.146433
2.330935478210449	292524972.8305099
2.3338186740875244	293153457.7674081
2.3366971015930176	292080305.9829687
2.3395702838897705	287535674.9156779
2.3424389362335205	286878838.9355564
2.3453025817871094	291740636.37423784
2.348161458969116	292915681.13225496
2.351015567779541	277207336.4258405
2.353865146636963	260889593.7553253
2.3567099571228027	261563338.44337288
2.3595502376556396	264665316.3794896
2.3623859882354736	267348994.6324367
2.3652172088623047	271060170.61034244
2.368043899536133	271265288.96760917
2.370866537094116	274134998.4694509
2.3736846446990967	276323236.7383901
2.3764986991882324	270334295.44661474
2.3793084621429443	262211180.86811605
2.3821144104003906	252099949.0266288
2.384916305541992	242687416.33040884
2.387714147567749	242814243.10355076
2.3905084133148193	248102727.3146619
2.393299102783203	249627927.26703814
2.3960859775543213	247479661.99926436
2.398869514465332	242235386.92403147
2.4016497135162354	236156446.61428425
2.4044265747070312	232222524.02772176
2.407200336456299	224779317.75377414
2.409970998764038	217392625.25920418
2.4127390384674072	215876242.328373
2.415503978729248	214706378.17540792
2.418266534805298	213113949.83935252
2.4210267066955566	212449662.48566586
2.4237842559814453	208901481.56074172
2.426539897918701	202559026.38074738
2.429293394088745	199456396.9231074
2.4320452213287354	197453295.95565727
2.4347951412200928	192488525.75850528
2.4375438690185547	190778931.6289864
2.440291166305542	191949602.8411103
2.443037271499634	187764423.6439636
2.445782423019409	183466859.8494331
2.4485268592834473	181539168.90724552
2.451270818710327	174500678.94643074
2.454014539718628	168864291.03409284
2.4567582607269287	174644796.32565394
2.4595019817352295	175446460.6599273
2.4622461795806885	172505630.61167508
2.4649908542633057	174553233.81579727
2.4677364826202393	168751687.2237385
2.4704833030700684	161116912.04497182
2.473231554031372	155387412.7645904
2.4759814739227295	154434123.294286
2.4787333011627197	155449691.7866477
2.481487512588501	153898314.36677188
