#wavelength	surface_flux
0.6450077295303345	7669421.637223226
0.6472567915916443	11447971.673554353
0.6494921445846558	13580622.044666873
0.6517150402069092	14340406.317083895
0.6539263725280762	15066171.718636101
0.6561272740364075	15122962.906338664
0.6583186388015747	14948092.303679164
0.6605015397071838	14939572.79953414
0.6626768708229065	14824186.128181357
0.6648455858230591	14571355.216194138
0.6670085787773132	14404116.021026611
0.6691668033599854	14365929.280522346
0.6713210344314575	14390860.218087683
0.6734722256660461	14626478.592518589
0.6756211519241333	15194611.316528559
0.6777685880661011	15822035.859078111
0.6799154281616211	16372384.609245244
0.6820623278617859	17072550.393725947
0.6842101216316223	17748305.187006857
0.6863595843315125	18154935.85576414
0.688511312007904	18567436.88350661
0.6906660795211792	19257570.363660175
0.6928245425224304	20288352.32262009
0.6949873566627502	21658421.48443963
0.6971551775932312	22988512.090039164
0.6993286609649658	24145623.216108087
0.7015084028244019	25916007.96053427
0.7036949396133423	27619664.01748744
0.7058889269828796	26252387.93432964
0.7080909013748169	23045027.011683747
0.710301399230957	21492477.349775605
0.712520956993103	21166436.670290463
0.7147500514984131	21313652.163936064
0.7169892191886902	22316518.267963402
0.7192389369010925	23712269.865576543
0.7214996814727783	25098310.16298611
0.723771870136261	27249582.39162144
0.7260559797286987	30088984.828256644
0.7283523678779602	33129376.603256866
0.7306615710258484	36373876.807189286
0.7329838871955872	35628618.01509709
0.7353196740150452	28631564.346662506
0.7376693487167358	22233167.741134267
0.7400332689285278	19076530.504248265
0.7424117922782898	17201434.912545677
0.7448052167892456	16542068.914017657
0.7472138404846191	16788135.760098886
0.7496379613876343	17856621.22368651
0.7520779371261597	19331672.542129047
0.7545340061187744	21381170.974728607
0.7570064663887024	23655269.07596142
0.7594954967498779	25428769.938014872
0.7620013952255249	25324415.727956813
0.7645244002342224	20327677.83618614
0.7670646905899048	13776909.59209625
0.7696225643157959	13262090.507474272
0.7721980810165405	19834951.93175935
0.7747915983200073	29106074.590121366
0.7774031162261963	35932815.98919143
0.7800329327583313	39738152.204034194
0.7826811671257019	43884061.09361505
0.7853479981422424	48186019.44619707
0.7880334854125977	50922817.44336162
0.7907378077507019	50053918.64388723
0.7934610247612	45653629.84492307
0.7962033748626709	43085347.29854576
0.7989648580551147	43074054.65951294
0.801745593547821	43648116.16901822
0.8045456409454346	45460051.0994002
0.8073651194572449	50932264.44930079
0.8102040886878967	61844576.98133416
0.8130625486373901	76139451.08908385
0.8159406185150146	87765521.02361451
0.8188382983207703	91021979.5626133
0.8217556476593018	95206289.26246011
0.8246926665306091	104932476.61287461
0.8276493549346924	108512060.99828584
0.8306257724761963	106633187.50003137
0.8336219191551208	107215007.29862605
0.8366377949714661	109143042.43224332
0.8396733403205872	109326488.2813323
0.8427285552024841	101936365.01402356
0.8458034992218018	88011251.07592586
0.8488980531692505	79852804.17463824
0.8520121574401855	74675335.07798158
0.8551458716392517	68090635.76199302
0.8582990765571594	62812410.07300017
0.8614717125892639	57139251.613480635
0.8646637797355652	52901603.35529889
0.8678751587867737	51427142.34014988
0.8711057901382446	53343750.36532997
0.8743556141853333	58864125.3118718
0.87762451171875	68017751.44100295
0.8809124231338501	80979230.36304374
0.8842192888259888	94036919.35753477
0.8875449895858765	104329752.35682689
0.8908893465995789	115253267.83439688
0.894252359867096	127059528.56479622
0.8976338505744934	141329611.8525581
0.9010337591171265	158033446.7441264
0.9044519662857056	172338093.75685167
0.9078882932662964	189240827.97292298
0.9113426208496094	210666186.49465695
0.914814829826355	231069385.50246784
0.9183048605918884	238801387.01260397
0.9218124747276306	219195791.90683404
0.925337553024292	189295745.6137963
0.9288799166679382	173212721.57121268
0.9324395060539246	171437255.85585243
0.9360161423683167	179209410.0686481
0.9396095871925354	190482481.6622687
0.943219780921936	202117691.57069504
0.9468464851379395	215357160.8990841
0.9504896402359009	228434731.02755845
0.9541489481925964	238466117.22697794
0.9578243494033813	246307858.8980754
0.9615156054496765	253223503.73740909
0.9652225375175476	261931013.46321562
0.9689450263977051	268024930.38454908
0.9726828336715698	262277814.32404536
0.9764357805252075	255702585.4031048
0.9802037477493286	257487776.51415125
0.983986496925354	262559933.93622354
0.9877838492393494	259277924.32747412
0.9915955662727356	237969155.37698194
0.9954215884208679	226130815.12866312
0.9992615580558777	227569924.65321442
1.0031154155731201	225467786.24965212
1.0069829225540161	230258159.55502945
1.0108637809753418	243475962.21660423
1.0147579908370972	253994505.84817964
1.018665075302124	261174377.5883918
1.022585153579712	265972996.88283655
1.0265177488327026	262346928.7420863
1.0304628610610962	263782433.0530761
1.0344202518463135	277999168.94499624
1.0383895635604858	294425850.52220744
1.0423706769943237	306791344.687252
1.0463634729385376	313214525.96255124
1.0503677129745483	314617316.3866128
1.0543830394744873	315153737.1824701
1.058409333229065	319947538.949393
1.0624464750289917	328698115.4168364
1.0664942264556885	337935677.3288916
1.0705522298812866	350066740.6505451
1.0746204853057861	366107970.15543824
1.0786986351013184	381050434.1737315
1.0827864408493042	390924850.5014319
1.086883783340454	393430599.49376696
1.0909905433654785	388663948.2327752
1.0951062440872192	377109845.63852024
1.0992310047149658	359246783.140942
1.10336434841156	333931637.58712506
1.1075061559677124	313932207.373405
1.1116561889648438	313146100.29923445
1.115814208984375	320078590.5383898
1.1199802160263062	326395073.9687504
1.124153733253479	337990056.51241136
1.1283347606658936	345740771.6963222
1.1325229406356812	334825017.69452155
1.1367181539535522	309133677.6377534
1.1409201622009277	299679717.9417591
1.145128846168518	326933730.4957495
1.1493438482284546	358420298.4228618
1.1535650491714478	368520093.23204404
1.1577922105789185	368282336.83677274
1.1620250940322876	363797196.21241635
1.1662636995315552	346743911.1368714
1.170507550239563	326176405.31569016
1.174756646156311	311038263.0200182
1.1790107488632202	307622300.30264986
1.1832695007324219	330882935.6720466
1.1875330209732056	357310465.09459895
1.191800832748413	367294294.00624394
1.1960728168487549	367160256.2778994
1.2003488540649414	368692241.7040752
1.2046287059783936	381183608.18929344
1.2089121341705322	393620602.12179476
1.2131990194320679	404127599.614438
1.2174891233444214	415216191.378732
1.2217823266983032	422980396.58698684
1.2260783910751343	431851747.8857117
1.230377197265625	438904751.61820865
1.2346785068511963	437457952.5814682
1.238982081413269	418856001.8959601
1.2432878017425537	392779495.50097793
1.2475954294204712	386788434.0485042
1.2519049644470215	387805345.78661823
1.256216049194336	396144416.68642914
1.2605286836624146	414746045.9763248
1.2648425102233887	424821172.7337977
1.2691574096679688	431152889.51597816
1.2734732627868652	437064849.17661977
1.2777899503707886	442540059.3298424
1.2821072340011597	444085136.2926563
1.2864248752593994	438641773.4482891
1.2907428741455078	435521393.6845988
1.2950609922409058	441747983.65024596
1.2993791103363037	449988370.77864486
1.303696870803833	453039640.7714702
1.3080145120620728	447203111.92794067
1.3123314380645752	435760334.67744094
1.3166478872299194	430749260.3711737
1.3209635019302368	427181355.5319424
1.3252781629562378	410490195.1858855
1.3295916318893433	371225465.0044537
1.3339040279388428	311860780.25197244
1.3382149934768677	265638707.5418654
1.3425244092941284	247792232.00312895
1.3468321561813354	240756762.95289037
1.3511382341384888	234127900.33970374
1.3554422855377197	228253086.4712281
1.3597444295883179	227018852.3452533
1.3640443086624146	229035618.03306285
1.3683418035507202	229490084.73439658
1.3726370334625244	229317292.5388291
1.3769296407699585	233729311.9321341
1.381219506263733	238550153.74094933
1.3855066299438477	238547463.10796016
1.3897908926010132	234001324.3680197
1.3940720558166504	227597872.42905626
1.3983501195907593	223455731.6018256
1.4026249647140503	222370831.8400963
1.4068963527679443	219955298.886325
1.4111642837524414	214579140.9715706
1.4154287576675415	210412593.00159475
1.419689416885376	208105045.36793953
1.4239463806152344	206073876.0765643
1.4281994104385376	205579566.28775
1.4324485063552856	207905766.4931096
1.436693549156189	211132077.7703484
1.440934419631958	213811007.6983508
1.4451709985733032	216396917.70876396
1.449403166770935	220516274.45071384
1.453631043434143	225476336.1790549
1.4578542709350586	228720842.50868964
1.4620729684829712	229051569.4667321
1.4662868976593018	227507259.84743443
1.4704961776733398	226567446.54345128
1.4747005701065063	227990226.10669443
1.4788999557495117	230743085.39835662
1.4830944538116455	233439940.48793027
1.4872838258743286	235710582.9842961
1.491468071937561	237034729.63814518
1.4956470727920532	239044116.02473935
1.4998208284378052	241618127.40100878
1.5039892196655273	244295283.9666744
1.5081522464752197	247598113.2529342
1.5123097896575928	250810396.10889876
1.5164618492126465	252997315.2125578
1.5206083059310913	255954309.25533307
1.5247491598129272	259227504.8428174
1.5288842916488647	261357171.44290575
1.5330137014389038	263884129.38192898
1.5371372699737549	266867538.17969835
1.541254997253418	269847107.8313277
1.545366883277893	273326129.22122306
1.5494728088378906	277002250.5616861
1.5535727739334106	279339182.64107907
1.5576666593551636	280453536.48240614
1.561754584312439	283094843.7637951
1.5658363103866577	287759554.0174785
1.5699119567871094	292008639.6090383
1.5739814043045044	295414113.63973755
1.5780447721481323	297919849.7869174
1.582101821899414	300724731.37366974
1.5861525535583496	304692299.6281343
1.5901970863342285	308096812.22627175
1.5942351818084717	311018065.9652818
1.5982669591903687	313948022.3317116
1.6022924184799194	316473656.2997276
1.606311559677124	319246003.7388948
1.6103241443634033	321816872.3023101
1.6143304109573364	324439757.49364364
1.6183301210403442	326951820.60490763
1.6223233938217163	329365014.9177986
1.6263102293014526	332268743.5583213
1.6302905082702637	334654240.26005524
1.634264349937439	337121319.2777778
1.638231635093689	339833819.0179902
1.6421923637390137	342261476.30823934
1.646146535873413	344906212.4873457
1.6500942707061768	346394002.9213124
1.6540353298187256	347956176.474759
1.6579699516296387	349780469.01451296
1.661897897720337	351078032.8471166
1.6658192873001099	353381692.24197775
1.6697341203689575	354972541.95220405
1.6736423969268799	356345934.6468981
1.677544116973877	358330828.23558676
1.6814392805099487	359039424.77357614
1.6853278875350952	357197930.06322175
1.6892099380493164	353770904.8023662
1.6930854320526123	349260291.09477615
1.696954369544983	343336024.5938387
1.7008168697357178	338639485.5828473
1.7046726942062378	333593007.07303375
1.708522081375122	325499611.916086
1.712364912033081	315353324.11600393
1.7162011861801147	304415608.87346894
1.7200311422348022	297585360.3868144
1.723854422569275	295306718.6631084
1.7276713848114014	291568665.7795331
1.731481909751892	285234679.16755116
1.7352858781814575	279110260.1874523
1.7390835285186768	274678807.9779514
1.7428747415542603	270192999.0584469
1.7466596364974976	264954994.98631808
1.7504380941390991	260507769.07945594
1.7542102336883545	254985938.5092367
1.7579760551452637	249124113.11884803
1.7617355585098267	246356464.4950193
1.7654887437820435	243715754.41526797
1.7692357301712036	238241810.88236377
1.7729763984680176	232450214.42422926
1.776710867881775	228321628.8857304
1.7804391384124756	225456669.77706715
1.7841613292694092	221517940.42703947
1.7878772020339966	217763089.01274607
1.7915871143341064	215832296.21305525
1.7952908277511597	214357552.31659198
1.7989884614944458	211327074.7160274
1.8026801347732544	207377624.37107298
1.806365728378296	205462189.3616258
1.8100452423095703	204906610.22361618
1.8137187957763672	206470807.35788497
1.817386507987976	205498680.63093308
1.8210482597351074	202829633.05731502
1.8247040510177612	204060568.78401425
1.828354001045227	204111535.7880585
1.8319982290267944	202090941.86794373
1.8356364965438843	200536336.8338944
1.8392690420150757	198675731.5556483
1.8428958654403687	194780609.84819967
1.8465168476104736	190182909.12760162
1.8501322269439697	189595024.12361333
1.8537418842315674	188624344.07790342
1.8573459386825562	181930013.12633872
1.860944390296936	177758445.2020888
1.864537239074707	180685558.32882944
1.8681244850158691	185375029.99356744
1.871706247329712	187591318.8177056
1.8752825260162354	187419341.4931447
1.8788533210754395	188816780.7432565
1.8824186325073242	193362253.13857165
1.8859784603118896	196418483.47190312
1.8895330429077148	195386566.12326327
1.8930821418762207	194165613.96481028
1.8966259956359863	196507012.03177306
1.9001644849777222	199697981.78094122
1.9036977291107178	200037950.42366543
1.9072256088256836	199323762.71187606
1.9107483625411987	199310495.5440588
1.9142658710479736	199763147.1645909
1.9177782535552979	199159594.9242057
1.9212853908538818	197486585.95957097
1.9247875213623047	196591064.87139857
1.9282845258712769	195924054.96673018
1.9317764043807983	194600066.78161654
1.9352631568908691	193413289.98097476
1.9387450218200684	190405504.35814482
1.942221760749817	188203629.3315758
1.9456936120986938	189198608.00441408
1.9491604566574097	189634680.69759157
1.952622413635254	188287116.90674758
1.956079363822937	187764546.6090144
1.959531545639038	188830406.427342
1.962978720664978	188668552.3886777
1.966421127319336	188892787.17084956
1.9698586463928223	189394747.95599028
1.9732913970947266	186713850.4732588
1.9767193794250488	183149080.77171633
1.9801424741744995	182425549.6908286
1.9835609197616577	183851301.05244532
1.9869745969772339	184113975.96692315
1.990383505821228	182814613.12531862
1.9937876462936401	183805857.2915136
1.9971871376037598	184260754.72908327
2.000581979751587	183641434.8521901
2.003972291946411	185128126.76771054
2.007357597351074	185298616.96938315
2.0107386112213135	184492337.88881746
2.0141148567199707	185155473.23436406
2.017486572265625	185379872.65773895
2.0208535194396973	186825184.52941146
2.0242159366607666	188531028.2173851
2.027573823928833	187392582.14189565
2.0309269428253174	188068230.29745287
2.034275770187378	190358271.18017328
2.0376198291778564	190773813.93955258
2.040959596633911	190619715.8544337
2.044294595718384	190948827.24040207
2.0476250648498535	191833592.51099992
2.0509510040283203	192349035.45823225
2.054272413253784	192951021.27889562
2.057589530944824	195091834.80460063
2.0609018802642822	195207018.35460207
2.0642096996307373	193891532.65599275
2.0675129890441895	195703463.28697234
2.0708119869232178	197152256.51838848
2.074106216430664	196683885.6743107
2.0773961544036865	197490244.87435043
2.080681324005127	198430944.2787601
2.0839622020721436	198611418.36722568
2.087238311767578	199262313.94625327
2.090510129928589	200619338.6258749
2.0937774181365967	201253001.5659597
2.0970399379730225	201151806.20830047
2.1002981662750244	202086547.86265698
2.1035518646240234	203021646.4305245
2.1068007946014404	203154003.7452751
2.1100454330444336	203689326.8702556
2.1132853031158447	204859835.15331876
2.116520881652832	205112769.4452615
2.1197516918182373	205322690.1633534
2.1229779720306396	206638859.90424508
2.12619948387146	206753023.76977873
2.1294167041778564	206277704.25552416
2.132629156112671	207610107.70544198
2.1358368396759033	208744414.60559547
2.139039993286133	208092354.15291005
2.1422386169433594	208770624.63750312
2.145432472229004	210933322.10029608
2.1486217975616455	210437772.6881
2.151806354522705	209089886.72036606
2.1549863815307617	209958956.82860166
2.1581614017486572	211156429.7624509
2.16133189201355	211353861.91636494
2.1644976139068604	211547979.07486925
2.167658567428589	212446507.4232067
2.1708147525787354	212412255.99650842
2.173966407775879	211304357.1884011
2.1771130561828613	210563252.62893316
2.1802549362182617	210812402.3619732
2.183391809463501	211294100.07351455
2.1865241527557373	211494465.45523152
2.1896514892578125	211857675.3833527
2.1927738189697266	211721189.92173183
2.1958916187286377	211749655.3781622
2.1990041732788086	212005128.71608505
2.2021119594573975	210577035.52576098
2.2052149772644043	208076979.63134876
2.208312749862671	207538563.45462435
2.2114057540893555	209669310.6139017
2.214493751525879	211291486.50446972
2.217576742172241	210228316.37646383
2.2206547260284424	209293701.26022694
2.2237277030944824	210864562.69832218
2.2267956733703613	211320240.19735685
2.2298583984375	210350254.5744632
2.2329163551330566	209563405.23976037
2.235969066619873	208728021.9373768
2.2390167713165283	209553981.45368072
2.2420592308044434	210098639.69021305
2.2450966835021973	209813390.2129636
2.248128890991211	209735644.57478052
2.2511560916900635	209011242.66778272
2.254178285598755	208165594.1414597
2.257194995880127	207928554.2110981
2.260206699371338	207583685.3284097
2.2632133960723877	206406863.37872386
2.266214609146118	206056780.7277961
2.2692108154296875	205974085.05155042
2.2722020149230957	205468368.00197825
2.2751877307891846	205970126.157707
2.278168201446533	205207087.89158362
2.2811436653137207	203633590.01754734
2.284113883972168	204168772.0962864
2.287078857421875	205479621.59427783
2.290038824081421	201831448.94745886
2.2929933071136475	188130094.29288125
2.295942783355713	175817845.70376503
2.298887014389038	175507345.40821403
2.301826238632202	179398058.83074814
2.304760217666626	181504818.8300917
2.3076889514923096	181896978.07816038
2.310612440109253	181064400.7774938
2.3135311603546143	180434742.47966355
2.3164443969726562	180768265.4085407
2.319352865219116	179608806.55236614
2.322256088256836	172878596.19389647
2.3251543045043945	167029859.46884426
2.328047275543213	167733803.31246334
2.330935478210449	169704849.85280982
2.3338186740875244	170798297.7390533
2.3366971015930176	170899119.09512815
2.3395702838897705	169955972.8258791
2.3424389362335205	169895417.61420658
2.3453025817871094	171658866.04353967
2.348161458969116	172730399.46162644
2.351015567779541	167977192.41596916
2.353865146636963	161761464.96106827
2.3567099571228027	160627325.8094284
2.3595502376556396	161384303.07998073
2.3623859882354736	162436369.26867983
2.3652172088623047	163347450.6089139
2.368043899536133	163233180.27958047
2.370866537094116	164108751.53508404
2.3736846446990967	165025112.62332413
2.3764986991882324	163765746.9279814
2.3793084621429443	161592963.75228864
2.3821144104003906	158367523.92624438
2.384916305541992	154962317.59754935
2.387714147567749	154701392.32709405
2.3905084133148193	156593456.0498326
2.393299102783203	157278124.02264532
2.3960859775543213	156671947.90175653
2.398869514465332	155374663.12056673
2.4016497135162354	153706400.08243906
2.4044265747070312	152723026.2571161
2.407200336456299	150794034.74117473
2.409970998764038	148413897.24021673
2.4127390384674072	147439260.0738303
2.415503978729248	146604920.26272753
2.418266534805298	145654566.5504815
2.4210267066955566	145155845.55000877
2.4237842559814453	144359384.168649
2.426539897918701	142849372.73497632
2.429293394088745	141960241.45476708
2.4320452213287354	140950357.35553354
2.4347951412200928	138927185.10626867
2.4375438690185547	138458302.7079396
2.440291166305542	138908500.936489
2.443037271499634	137164907.34180802
2.445782423019409	135313231.53567427
2.4485268592834473	134746951.31335607
2.451270818710327	132548256.75931841
2.454014539718628	130464687.74495295
2.4567582607269287	132812171.61457075
2.4595019817352295	132625090.36933234
2.4622461795806885	130793849.86179774
2.4649908542633057	131946584.14301035
2.4677364826202393	130095682.6173149
2.4704833030700684	127377998.40216482
2.473231554031372	124962979.67403224
