#wavelength	surface flux
0.01	5.912408759124085e-75
0.0101	6.321167883211674e-75
0.010201	6.734014598540144e-75
0.010303010000000001	7.150989781021901e-75
0.0104060401	7.572134715328464e-75
0.010510100501000002	7.997491098978107e-75
0.01061520150601	8.427101046464236e-75
0.010721353521070101	8.86100709342523e-75
0.010828567056280802	9.299252200855833e-75
0.010936852726843608	9.741879759360733e-75
0.011046221254112046	9.999999999999998e-75
0.011156683466653166	9.999999999999998e-75
0.011268250301319697	9.999999999999998e-75
0.011380932804332895	9.999999999999998e-75
0.011494742132376225	9.999999999999998e-75
0.011609689553699986	9.999999999999998e-75
0.011725786449236988	9.999999999999998e-75
0.011843044313729357	9.999999999999998e-75
0.01196147475686665	9.999999999999998e-75
0.012081089504435316	9.999999999999998e-75
0.012201900399479671	9.999999999999998e-75
0.012323919403474468	9.999999999999998e-75
0.012447158597509212	9.999999999999998e-75
0.012571630183484304	9.999999999999998e-75
0.012697346485319148	9.999999999999998e-75
0.012824319950172339	9.999999999999998e-75
0.012952563149674063	9.999999999999998e-75
0.013082088781170804	9.999999999999998e-75
0.013212909668982512	9.999999999999998e-75
0.013345038765672336	9.999999999999998e-75
0.013478489153329061	9.999999999999998e-75
0.013613274044862352	9.999999999999998e-75
0.013749406785310975	9.999999999999998e-75
0.013886900853164083	9.999999999999998e-75
0.014025769861695726	9.999999999999998e-75
0.014166027560312683	9.999999999999998e-75
0.01430768783591581	9.999999999999998e-75
0.014450764714274969	9.999999999999998e-75
0.014595272361417718	9.999999999999998e-75
0.014741225085031895	9.999999999999998e-75
0.014888637335882214	9.999999999999998e-75
0.015037523709241036	9.999999999999998e-75
0.015187898946333447	9.999999999999998e-75
0.015339777935796781	9.999999999999998e-75
0.015493175715154751	9.999999999999998e-75
0.015648107472306296	9.999999999999998e-75
0.01580458854702936	9.999999999999998e-75
0.015962634432499654	9.999999999999998e-75
0.016122260776824653	9.999999999999998e-75
0.016283483384592897	9.999999999999998e-75
0.016446318218438827	9.999999999999998e-75
0.016610781400623217	9.999999999999998e-75
0.016776889214629446	9.999999999999998e-75
0.016944658106775742	9.999999999999998e-75
0.0171141046878435	9.999999999999998e-75
0.017285245734721934	9.999999999999998e-75
0.017458098192069154	9.999999999999998e-75
0.017632679173989845	9.999999999999998e-75
0.017809005965729745	9.999999999999998e-75
0.01798709602538704	9.999999999999998e-75
0.018166966985640912	9.999999999999998e-75
0.01834863665549732	9.999999999999998e-75
0.018532123022052295	9.999999999999998e-75
0.01871744425227282	9.999999999999998e-75
0.01890461869479555	9.999999999999998e-75
0.0190936648817435	9.999999999999998e-75
0.019284601530560937	9.999999999999998e-75
0.01947744754586655	9.999999999999998e-75
0.019672222021325212	9.999999999999998e-75
0.019868944241538466	9.999999999999998e-75
0.020067633683953853	9.999999999999998e-75
0.02026831002079339	9.999999999999998e-75
0.020470993121001323	9.999999999999998e-75
0.020675703052211336	9.999999999999998e-75
0.02088246008273345	9.999999999999998e-75
0.021091284683560786	9.999999999999998e-75
0.021302197530396395	9.999999999999998e-75
0.02151521950570036	9.999999999999998e-75
0.02173037170075736	9.999999999999998e-75
0.02194767541776493	9.999999999999998e-75
0.022167152171942584	9.999999999999998e-75
0.022388823693662012	9.999999999999998e-75
0.02261271193059863	9.999999999999998e-75
0.022838839049904615	9.999999999999998e-75
0.023067227440403664	9.999999999999998e-75
0.0232978997148077	9.999999999999998e-75
0.023530878711955777	9.999999999999998e-75
0.023766187499075334	9.999999999999998e-75
0.024003849374066088	9.999999999999998e-75
0.02424388786780675	9.999999999999998e-75
0.024486326746484814	9.999999999999998e-75
0.024731190013949664	9.999999999999998e-75
0.024978501914089166	9.999999999999998e-75
0.025228286933230055	9.999999999999998e-75
0.02548056980256236	9.999999999999998e-75
0.025735375500587982	9.999999999999998e-75
0.025992729255593858	9.999999999999998e-75
0.0262526565481498	9.999999999999998e-75
0.026515183113631293	9.999999999999998e-75
0.02678033494476761	9.999999999999998e-75
0.027048138294215287	9.999999999999998e-75
0.02731861967715744	9.999999999999998e-75
0.027591805873929013	9.999999999999998e-75
0.027867723932668304	9.999999999999998e-75
0.02814640117199499	9.999999999999998e-75
0.028427865183714936	9.999999999999998e-75
0.02871214383555209	9.999999999999998e-75
0.028999265273907608	9.999999999999998e-75
0.029289257926646682	9.999999999999998e-75
0.029582150505913153	9.999999999999998e-75
0.02987797201097228	9.999999999999998e-75
0.030176751731082006	9.999999999999998e-75
0.030478519248392826	9.999999999999998e-75
0.030783304440876753	9.999999999999998e-75
0.031091137485285525	9.999999999999998e-75
0.03140204886013838	9.999999999999998e-75
0.03171606934873976	9.999999999999998e-75
0.03203323004222716	9.999999999999998e-75
0.03235356234264943	9.999999999999998e-75
0.03267709796607593	9.999999999999998e-75
0.03300386894573669	9.999999999999998e-75
0.03333390763519405	9.999999999999998e-75
0.033667246711545994	9.999999999999998e-75
0.034003919178661454	9.999999999999998e-75
0.03434395837044807	9.999999999999998e-75
0.03468739795415255	9.999999999999998e-75
0.03503427193369407	9.999999999999998e-75
0.03538461465303102	9.999999999999998e-75
0.03573846079956133	9.999999999999998e-75
0.03609584540755694	9.999999999999998e-75
0.03645680386163251	9.999999999999998e-75
0.03682137190024883	9.999999999999998e-75
0.03718958561925133	9.999999999999998e-75
0.03756148147544384	9.999999999999998e-75
0.03793709629019828	9.999999999999998e-75
0.03831646725310026	9.999999999999998e-75
0.038699631925631264	9.999999999999998e-75
0.039086628244887574	9.999999999999998e-75
0.039477494527336454	9.999999999999998e-75
0.03987226947260982	9.999999999999998e-75
0.04027099216733592	9.999999999999998e-75
0.04067370208900927	9.999999999999998e-75
0.04108043910989937	9.999999999999998e-75
0.04149124350099836	9.999999999999998e-75
0.04190615593600835	9.999999999999998e-75
0.042325217495368425	9.999999999999998e-75
0.04274846967032212	9.999999999999998e-75
0.043175954367025336	9.999999999999998e-75
0.04360771391069559	9.999999999999998e-75
0.04404379104980254	9.999999999999998e-75
0.04448422896030057	9.999999999999998e-75
0.04492907124990358	9.999999999999998e-75
0.04537836196240262	9.999999999999998e-75
0.04583214558202665	9.999999999999998e-75
0.04629046703784691	9.999999999999998e-75
0.046753371708225376	9.999999999999998e-75
0.04722090542530763	9.999999999999998e-75
0.047693114479560705	9.999999999999998e-75
0.04817004562435631	9.999999999999998e-75
0.04865174608059988	9.999999999999998e-75
0.04913826354140587	9.999999999999998e-75
0.04962964617681994	9.999999999999998e-75
0.05012594263858814	9.999999999999998e-75
0.05062720206497402	9.999999999999998e-75
0.05113347408562376	9.999999999999998e-75
0.051644808826479996	9.999999999999998e-75
0.0521612569147448	9.999999999999998e-75
0.052682869483892246	9.999999999999998e-75
0.05320969817873117	9.999999999999998e-75
0.05374179516051848	9.999999999999998e-75
0.054279213112123664	9.999999999999998e-75
0.0548220052432449	9.999999999999998e-75
0.05537022529567735	9.999999999999998e-75
0.05592392754863413	9.999999999999998e-75
0.056483166824120475	9.999999999999998e-75
0.057047998492361675	9.999999999999998e-75
0.057618478477285295	9.999999999999998e-75
0.05819466326205815	9.999999999999998e-75
0.05877660989467873	9.999999999999998e-75
0.05936437599362551	1.0000784306784477e-74
0.05995801975356178	1.000206210454456e-74
0.06055759995109739	1.0037701638093336e-74
0.06116317595060837	1.0165768523133641e-74
0.061774807710114454	1.0540081440066634e-74
0.062392555787215594	1.3087945578451742e-74
0.06301648134508775	1.8020767798655322e-74
0.06364664615853863	6.4036337612446126e-74
0.06428311262012401	2.8138467328802198e-73
0.06492594374632525	7.163058556802919e-73
0.06557520318378851	4.3618849475756846e-72
0.0662309552156264	1.9859883891509463e-71
0.06689326476778266	5.668880571246891e-71
0.06756219741546049	3.337115230537979e-70
0.0682378193896151	1.4851116224831988e-69
0.06892019758351124	4.183111636783042e-69
0.06960939955934635	2.3744363006634396e-68
0.07030549355493981	1.1500388926773924e-67
0.07100854849048922	3.115254200867406e-67
0.07171863397539412	1.7316854006233726e-66
0.07243582031514804	8.695557245315636e-66
0.07316017851829953	3.3626673713609236e-65
0.07389178030348253	1.096498562223271e-64
0.07463069810651736	5.760899149772555e-64
0.07537700508758254	2.625931978269284e-63
0.07613077513845835	9.595728488955379e-63
0.07689208288984294	3.301512427223537e-62
0.07766100371874136	3.037540288662437e-36
0.07843761375592878	1.5507981202143863e-32
0.07922198989348807	1.3692737436946832e-31
0.08001420979242296	4.8734826320298565e-31
0.08081435189034718	1.893603323618885e-31
0.08162249540925066	1.9599007334798706e-28
0.08243872036334317	1.0059425092927554e-26
0.08326310756697661	8.289360290259517e-26
0.08409573864264637	2.2966007342808925e-25
0.08493669602907282	3.3728119897163927e-26
0.08578606298936356	4.060338669004287e-27
0.0866439236192572	1.0521138728429254e-71
0.08751036285544977	1.2876708776873084e-58
0.08838546648400426	1.3592360842710504e-57
0.08926932114884432	2.4166858452400394e-55
0.09016201436033276	3.1265148851635253e-54
0.09106363450393609	1.6560557793505747e-53
0.09197427084897544	4.31805573605693e-53
0.0928940135574652	1.55302797495691e-53
0.09382295369303986	8.603540250633014e-53
0.09476118322997025	1.575653587220414e-50
0.09570879506226997	1.715365912321019e-49
0.09666588301289265	1.2176335370919386e-49
0.09763254184302157	3.253142632784079e-49
0.09860886726145181	1.5970448976327983e-42
0.09959495593406631	1.8581185536805798e-41
0.10059090549340699	1.3620277532576494e-41
0.10159681454834106	1.0741737140803042e-42
0.10261278269382446	5.486976753937157e-48
0.10363891052076271	1.2298414179031541e-48
0.10467529962597034	6.720135646043479e-50
0.10572205262223004	3.372094205855801e-51
0.10677927314845236	2.1699869780742858e-41
0.10784706587993687	1.9350140961778147e-36
0.10892553653873624	2.0771563213687834e-35
0.1100147919041236	2.233383622612522e-36
0.11111493982316484	8.553567635633965e-24
0.1122260892213965	2.143116378280281e-22
0.11334835011361045	1.2210310509379829e-21
0.11448183361474655	1.7845770630698282e-20
0.11562665195089401	1.0196896307363225e-19
0.11678291847040295	7.737962082304643e-20
0.117950747655107	1.730198244478256e-19
0.11913025513165806	3.537241840239218e-20
0.12032155768297464	2.031105381691241e-20
0.1215247732598044	2.531488837699028e-20
0.12274002099240244	4.750417333618967e-21
0.12396742120232647	2.957438505670037e-21
0.12520709541434974	1.9635158826684467e-21
0.12645916636849325	3.982135641013797e-22
0.12772375803217817	4.935191016231762e-22
0.12900099561249995	3.1512133800392356e-21
0.13029100556862497	9.42172403940876e-21
0.1315939156243112	1.545855669811783e-20
0.1329098547805543	2.1120841848592203e-20
0.13423895332835986	7.694007525273195e-20
0.13558134286164344	2.737719650344606e-19
0.1369371562902599	1.8317800674021015e-19
0.1383065278531625	2.949348017222164e-17
0.13968959313169413	4.368492500043344e-16
0.14108648906301105	6.5922567976063145e-15
0.1424973539536412	1.8334109325000237e-14
0.14392232749317757	6.769674734262273e-14
0.14536155076810936	7.133518310606576e-13
0.14681516627579044	1.5925918548732195e-12
0.14828331793854838	2.490011783930798e-12
0.14976615111793384	5.530327425413311e-12
0.15126381262911318	6.944297124170298e-12
0.15277645075540433	6.611673658997499e-13
0.15430421526295837	2.3472361178133817e-13
0.15584725741558797	1.974612394739539e-12
0.15740572998974384	1.3193427175369763e-11
0.15897978728964127	1.0286697128553526e-11
0.1605695851625377	1.0872108527982497e-11
0.16217528101416306	2.3462603977265315e-13
0.16379703382430472	2.555825800714122e-13
0.16543500416254772	8.192615278322786e-11
0.16708935420417323	9.845908783060325e-10
0.16876024774621495	4.442107810037134e-11
0.17044785022367712	3.27961374948599e-05
0.17215232872591388	9.330031709297513e-06
0.173873852013173	6.57180964111855e-05
0.17561259053330475	0.00019983039145269018
0.1773687164386378	0.01740477690475077
0.1791424036030242	0.21211177733396863
0.1809338276390544	0.0030750508722129435
0.18274316591544498	0.03106605954597813
0.18457059757459943	0.010952056962806456
0.1864163035503454	0.0013493933934183835
0.18828046658584888	0.0025916934167159933
0.19016327125170737	0.13630658909046592
0.19206490396422443	2121.572200254047
0.1939855530038667	1887.0760600292551
0.19592540853390536	431.6634557004261
0.19788466261924442	548424.6825925387
0.19986350924543686	43202.82303534367
0.2018621443378912	27477.207926612464
0.20388076578127012	14604.799254277472
0.20591957343908285	1166864.875019339
0.20797876917347366	1029.237560649419
0.21005855686520844	2900.714198133468
0.2121591424338605	2583.2785028486564
0.21428073385819912	1452.2593153724174
0.21642354119678112	8262.039803014955
0.2185877766087489	52762.66354723329
0.2207736543748364	39142.57374835957
0.22298139091858477	127236.25958646981
0.2252112048277706	6064.4527338788885
0.22746331687604834	30568.38106009757
0.22973795004480882	2176133.8173252884
0.23203532954525688	11692551.767048586
0.23435568284070946	2092036673.5248215
0.23669923966911657	8531826.986222338
0.2390662320658077	1319308634.8955235
0.2414568943864658	23064075763.265556
0.2438714633303305	32580433595.56481
0.24631017796363378	5443526726.042732
0.24877327974327013	19786216.44643145
0.2512610125407028	499179949.560552
0.25377362266610987	5860799701.260213
0.25631135889277096	612742815229.1437
0.25887447248169865	3269518782571.515
0.26146321720651566	32523943854067.156
0.2640778493785808	92754366006947.42
0.2667186278723666	51133851574801.9
0.2693858141510903	34902947994613.45
0.2720796722926012	603791679491.1271
0.27480046901552724	729558726028.2728
0.27754847370568253	15903513284296.74
0.28032395844273933	738395784976.3512
0.28312719802716674	266759236920.85962
0.2859584700074384	17679568418.680534
0.28881805470751276	5573324913385.401
0.2917062352545879	56460178167891.3
0.2946232976071338	12821406463405.426
0.2975695305832051	11265582533088.553
0.30054522588903715	23468628073563.863
0.3035506781479275	131679468573657.77
0.3065861849294068	4814753167921029.0
0.3096520467787009	2.7764232743575164e+16
0.3127485672464879	1.4599411424438835e+17
0.3158760529189528	6.273451711231735e+17
0.31903481344814233	1.5947161787646374e+17
0.3222251615826237	2.150571884066883e+17
0.32544741319844994	1.7822263198479252e+18
0.3287018873304345	2.7004306204564454e+18
0.33198890620373883	3.1833167012314885e+18
0.3353087952657762	6.316970979365328e+18
0.338661883218434	4.245811181368147e+17
0.3420485020506183	1.2291482468735642e+17
0.34546898707112456	3.408248516139094e+16
0.3489236769418358	1.341305020875521e+17
0.35241291371125416	4.9593832306445536e+17
0.3559370428483667	2.862636878274862e+18
0.3594964132768504	2.8189338468012452e+16
0.3630913774096189	1.344487331381617e+19
0.3667222911837151	1.8032216949409745e+19
0.37038951409555215	1.8191686889290296e+18
0.37409340923650775	1.5427050092062477e+17
0.37783434332887283	4.001306713081577e+19
0.38161268676216153	2.3233182716069224e+19
0.38542881362978315	3.9195001390960896e+18
0.389283101766081	2.1144129696875937e+18
0.39317593278374185	4.9853128267153965e+19
0.39710769211157926	1.3638447485705637e+21
0.401078769032695	1.3534748782836926e+21
0.405089556723022	7.043327627904482e+20
0.4091404522902522	2.1179188379314175e+21
0.4132318568131547	1.3808246438390425e+21
0.4173641753812863	5.611631927886781e+20
0.42153781713509914	6.239844857983709e+19
0.4257531953064501	3.705501163125302e+19
0.43001072725951467	5.1936882816791563e+20
0.43431083453210984	4.111818862476927e+21
0.43865394287743087	6.502764188429047e+21
0.44304048230620524	9.426796953863281e+21
0.44747088712926725	1.3156481809974693e+22
0.45194559600055995	3.835652325631383e+22
0.4564650519605655	6.623162437954329e+22
0.4610297024801712	2.098027808816845e+22
0.4656399995049729	3.1911136853086945e+22
0.47029639950002267	1.1462406427620581e+23
0.47499936349502286	2.9541500944069615e+23
0.4797493571299731	1.689656684389714e+22
0.48454685070127285	5.926709145867334e+22
0.48939231920828563	2.727622063947737e+23
0.4942862424003685	9.611312004129601e+23
0.4992291048243721	5.652838952186011e+21
0.5042213958726158	1.0350152210036267e+23
0.509263609831342	4.177718793957897e+23
0.5143562459296555	1.0013826848147715e+24
0.519499808388952	7.045622162570252e+21
0.5246948064728415	2.027574741117414e+23
0.52994175453757	8.284572469529158e+23
0.5352411720829456	1.2625619904235108e+24
0.5405935838037751	1.2780622372773404e+24
0.5459995196418129	2.7546490371199788e+23
0.551459514838231	2.2078961051625856e+23
0.5569741099866133	5.787962607297745e+23
0.5625438510864794	2.2364867687473054e+23
0.5681692895973443	3.759344289092427e+23
0.5738509824933177	4.4658427389924115e+23
0.5795894923182509	2.1121810934833974e+23
0.5853853872414334	3.1013596529982274e+22
0.5912392411138477	8.90362954625154e+21
0.5971516335249862	1.0848223026522757e+23
0.6031231498602361	4.975138786436341e+23
0.6091543813588385	1.4106976053058537e+24
0.6152459251724268	1.2181644946394936e+24
0.6213983844241512	5.359840455002684e+22
0.6276123682683926	2.399622543479553e+23
0.6338884919510765	1.111018195971555e+24
0.6402273768705874	1.82908851491072e+24
0.6466296506392932	4.411010838900685e+24
0.6530959471456862	8.51728295494817e+24
0.6596269066171431	1.6621567342729148e+24
0.6662231756833145	7.061100642523753e+23
0.6728854074401477	3.930933814870845e+23
0.6796142615145492	1.0047278697175456e+24
0.6864104041296946	2.208599061486442e+24
0.6932745081709915	2.852254263103364e+24
0.7002072532527015	8.829053945952499e+24
0.7072093257852285	7.344795471093864e+24
0.7142814190430807	4.7490326499335314e+23
0.7214242332335116	1.8653394439778206e+24
0.7286384755658467	1.2670528422863194e+25
0.7359248603215052	1.9714007927933433e+25
0.7432841089247202	1.457917163698057e+25
0.7507169500139675	1.9306416753630193e+25
0.7582241195141072	1.6567430328123526e+25
0.7658063607092482	1.186867121736005e+24
0.7734644243163408	4.979844147378353e+24
0.781199068559504	8.491993308407899e+24
0.7890110592450992	1.528300632572143e+25
0.7969011698375502	2.171917918177933e+25
0.8048701815359257	6.077139358145657e+25
0.8129188833512849	2.3382976021319684e+26
0.8210480721847978	3.037180931470404e+26
0.8292585529066457	2.366561147348047e+26
0.8375511384357123	2.059730537184979e+25
0.8459266498200694	1.8306073251639855e+25
0.8543859163182701	5.934243137729521e+25
0.8629297754814528	1.125473850072657e+26
0.8715590732362674	1.2143155632822716e+26
0.8802746639686301	2.2444908659585066e+26
0.8890774106083162	2.761109955046828e+26
0.8979681847143995	5.8997075348595e+26
0.9069478665615435	4.517143421172022e+26
0.9160173452271589	2.690908148743281e+26
0.9251775186794305	1.736544810626543e+26
0.9344292938662249	3.1209157760090544e+26
0.9437735868048871	5.8650179668841394e+26
0.953211322672936	9.499428415000061e+26
0.9627434358996654	2.5575454806931796e+26
0.9723708702586621	3.548709954369278e+26
0.9820945789612486	8.266242572335217e+26
0.9919155247508612	6.1251555311747495e+26
1.0018346799983697	5.3021379848498875e+26
1.0118530267983534	5.7894134034342104e+26
1.021971557066337	7.311486251479688e+26
1.0321912726370004	1.1034723044291798e+27
1.0425131853633705	1.5697002430428944e+27
1.0529383172170041	6.701438174999234e+26
1.0634677003891742	4.854072272482161e+26
1.074102377393066	1.3443783862516817e+27
1.0848434011669965	3.0509926990069006e+27
1.0956918351786664	4.2157959665325524e+27
1.1066487535304532	1.5665005419220235e+27
1.1177152410657578	1.6450090128647947e+27
1.1288923934764155	1.3117511511342233e+27
1.1401813174111797	1.1305399767186909e+27
1.1515831305852913	1.8619756110001717e+27
1.1630989618911443	2.2603029164812628e+27
1.1747299515100555	1.933870368701494e+27
