#wavelength	surface flux
0.01	5.912408759124085e-75
0.0101	6.321167883211674e-75
0.010201	6.734014598540144e-75
0.010303010000000001	7.150989781021901e-75
0.0104060401	7.572134715328464e-75
0.010510100501000002	7.997491098978107e-75
0.01061520150601	8.427101046464236e-75
0.010721353521070101	8.86100709342523e-75
0.010828567056280802	9.299252200855833e-75
0.010936852726843608	9.741879759360733e-75
0.011046221254112046	9.999999999999998e-75
0.011156683466653166	9.999999999999998e-75
0.011268250301319697	9.999999999999998e-75
0.011380932804332895	9.999999999999998e-75
0.011494742132376225	9.999999999999998e-75
0.011609689553699986	9.999999999999998e-75
0.011725786449236988	9.999999999999998e-75
0.011843044313729357	9.999999999999998e-75
0.01196147475686665	9.999999999999998e-75
0.012081089504435316	9.999999999999998e-75
0.012201900399479671	9.999999999999998e-75
0.012323919403474468	9.999999999999998e-75
0.012447158597509212	9.999999999999998e-75
0.012571630183484304	9.999999999999998e-75
0.012697346485319148	9.999999999999998e-75
0.012824319950172339	9.999999999999998e-75
0.012952563149674063	9.999999999999998e-75
0.013082088781170804	9.999999999999998e-75
0.013212909668982512	9.999999999999998e-75
0.013345038765672336	9.999999999999998e-75
0.013478489153329061	9.999999999999998e-75
0.013613274044862352	9.999999999999998e-75
0.013749406785310975	9.999999999999998e-75
0.013886900853164083	9.999999999999998e-75
0.014025769861695726	9.999999999999998e-75
0.014166027560312683	9.999999999999998e-75
0.01430768783591581	9.999999999999998e-75
0.014450764714274969	9.999999999999998e-75
0.014595272361417718	9.999999999999998e-75
0.014741225085031895	9.999999999999998e-75
0.014888637335882214	9.999999999999998e-75
0.015037523709241036	9.999999999999998e-75
0.015187898946333447	9.999999999999998e-75
0.015339777935796781	9.999999999999998e-75
0.015493175715154751	9.999999999999998e-75
0.015648107472306296	9.999999999999998e-75
0.01580458854702936	9.999999999999998e-75
0.015962634432499654	9.999999999999998e-75
0.016122260776824653	9.999999999999998e-75
0.016283483384592897	9.999999999999998e-75
0.016446318218438827	9.999999999999998e-75
0.016610781400623217	9.999999999999998e-75
0.016776889214629446	9.999999999999998e-75
0.016944658106775742	9.999999999999998e-75
0.0171141046878435	9.999999999999998e-75
0.017285245734721934	9.999999999999998e-75
0.017458098192069154	9.999999999999998e-75
0.017632679173989845	9.999999999999998e-75
0.017809005965729745	9.999999999999998e-75
0.01798709602538704	9.999999999999998e-75
0.018166966985640912	9.999999999999998e-75
0.01834863665549732	9.999999999999998e-75
0.018532123022052295	9.999999999999998e-75
0.01871744425227282	9.999999999999998e-75
0.01890461869479555	9.999999999999998e-75
0.0190936648817435	9.999999999999998e-75
0.019284601530560937	9.999999999999998e-75
0.01947744754586655	9.999999999999998e-75
0.019672222021325212	9.999999999999998e-75
0.019868944241538466	9.999999999999998e-75
0.020067633683953853	9.999999999999998e-75
0.02026831002079339	9.999999999999998e-75
0.020470993121001323	9.999999999999998e-75
0.020675703052211336	9.999999999999998e-75
0.02088246008273345	9.999999999999998e-75
0.021091284683560786	9.999999999999998e-75
0.021302197530396395	9.999999999999998e-75
0.02151521950570036	9.999999999999998e-75
0.02173037170075736	9.999999999999998e-75
0.02194767541776493	9.999999999999998e-75
0.022167152171942584	9.999999999999998e-75
0.022388823693662012	9.999999999999998e-75
0.02261271193059863	9.999999999999998e-75
0.022838839049904615	9.999999999999998e-75
0.023067227440403664	9.999999999999998e-75
0.0232978997148077	9.999999999999998e-75
0.023530878711955777	9.999999999999998e-75
0.023766187499075334	9.999999999999998e-75
0.024003849374066088	9.999999999999998e-75
0.02424388786780675	9.999999999999998e-75
0.024486326746484814	9.999999999999998e-75
0.024731190013949664	9.999999999999998e-75
0.024978501914089166	9.999999999999998e-75
0.025228286933230055	9.999999999999998e-75
0.02548056980256236	9.999999999999998e-75
0.025735375500587982	9.999999999999998e-75
0.025992729255593858	9.999999999999998e-75
0.0262526565481498	9.999999999999998e-75
0.026515183113631293	9.999999999999998e-75
0.02678033494476761	9.999999999999998e-75
0.027048138294215287	9.999999999999998e-75
0.02731861967715744	9.999999999999998e-75
0.027591805873929013	9.999999999999998e-75
0.027867723932668304	9.999999999999998e-75
0.02814640117199499	9.999999999999998e-75
0.028427865183714936	9.999999999999998e-75
0.02871214383555209	9.999999999999998e-75
0.028999265273907608	9.999999999999998e-75
0.029289257926646682	9.999999999999998e-75
0.029582150505913153	9.999999999999998e-75
0.02987797201097228	9.999999999999998e-75
0.030176751731082006	9.999999999999998e-75
0.030478519248392826	9.999999999999998e-75
0.030783304440876753	9.999999999999998e-75
0.031091137485285525	9.999999999999998e-75
0.03140204886013838	9.999999999999998e-75
0.03171606934873976	9.999999999999998e-75
0.03203323004222716	9.999999999999998e-75
0.03235356234264943	9.999999999999998e-75
0.03267709796607593	9.999999999999998e-75
0.03300386894573669	9.999999999999998e-75
0.03333390763519405	9.999999999999998e-75
0.033667246711545994	9.999999999999998e-75
0.034003919178661454	9.999999999999998e-75
0.03434395837044807	9.999999999999998e-75
0.03468739795415255	9.999999999999998e-75
0.03503427193369407	9.999999999999998e-75
0.03538461465303102	9.999999999999998e-75
0.03573846079956133	9.999999999999998e-75
0.03609584540755694	9.999999999999998e-75
0.03645680386163251	9.999999999999998e-75
0.03682137190024883	9.999999999999998e-75
0.03718958561925133	9.999999999999998e-75
0.03756148147544384	9.999999999999998e-75
0.03793709629019828	9.999999999999998e-75
0.03831646725310026	9.999999999999998e-75
0.038699631925631264	9.999999999999998e-75
0.039086628244887574	9.999999999999998e-75
0.039477494527336454	9.999999999999998e-75
0.03987226947260982	9.999999999999998e-75
0.04027099216733592	9.999999999999998e-75
0.04067370208900927	9.999999999999998e-75
0.04108043910989937	9.999999999999998e-75
0.04149124350099836	9.999999999999998e-75
0.04190615593600835	9.999999999999998e-75
0.042325217495368425	9.999999999999998e-75
0.04274846967032212	9.999999999999998e-75
0.043175954367025336	9.999999999999998e-75
0.04360771391069559	9.999999999999998e-75
0.04404379104980254	9.999999999999998e-75
0.04448422896030057	9.999999999999998e-75
0.04492907124990358	9.999999999999998e-75
0.04537836196240262	9.999999999999998e-75
0.04583214558202665	9.999999999999998e-75
0.04629046703784691	9.999999999999998e-75
0.046753371708225376	9.999999999999998e-75
0.04722090542530763	9.999999999999998e-75
0.047693114479560705	9.999999999999998e-75
0.04817004562435631	9.999999999999998e-75
0.04865174608059988	9.999999999999998e-75
0.04913826354140587	9.999999999999998e-75
0.04962964617681994	9.999999999999998e-75
0.05012594263858814	9.999999999999998e-75
0.05062720206497402	9.999999999999998e-75
0.05113347408562376	9.999999999999998e-75
0.051644808826479996	9.999999999999998e-75
0.0521612569147448	9.999999999999998e-75
0.052682869483892246	9.999999999999998e-75
0.05320969817873117	9.999999999999998e-75
0.05374179516051848	9.999999999999998e-75
0.054279213112123664	9.999999999999998e-75
0.0548220052432449	9.999999999999998e-75
0.05537022529567735	9.999999999999998e-75
0.05592392754863413	9.999999999999998e-75
0.056483166824120475	9.999999999999998e-75
0.057047998492361675	9.999999999999998e-75
0.057618478477285295	9.999999999999998e-75
0.05819466326205815	9.999999999999998e-75
0.05877660989467873	9.999999999999998e-75
0.05936437599362551	9.999999999999998e-75
0.05995801975356178	9.999999999999998e-75
0.06055759995109739	9.999999999999998e-75
0.06116317595060837	9.999999999999998e-75
0.061774807710114454	9.999999999999998e-75
0.062392555787215594	9.999999999999998e-75
0.06301648134508775	9.999999999999998e-75
0.06364664615853863	9.999999999999998e-75
0.06428311262012401	9.999999999999998e-75
0.06492594374632525	9.999999999999998e-75
0.06557520318378851	9.999999999999998e-75
0.0662309552156264	9.999999999999998e-75
0.06689326476778266	9.999999999999998e-75
0.06756219741546049	9.999999999999998e-75
0.0682378193896151	9.999999999999998e-75
0.06892019758351124	9.999999999999998e-75
0.06960939955934635	9.999999999999998e-75
0.07030549355493981	9.999999999999998e-75
0.07100854849048922	9.999999999999998e-75
0.07171863397539412	9.999999999999998e-75
0.07243582031514804	9.999999999999998e-75
0.07316017851829953	9.999999999999998e-75
0.07389178030348253	9.999999999999998e-75
0.07463069810651736	9.999999999999998e-75
0.07537700508758254	1.0000500444433396e-74
0.07613077513845835	1.0005471643857644e-74
0.07689208288984294	1.0029597246757654e-74
0.07766100371874136	2.6639253274138174e-45
0.07843761375592878	4.718098076817727e-44
0.07922198989348807	2.2215281583322423e-43
0.08001420979242296	6.333116534384874e-43
0.08081435189034718	1.9881111667257366e-43
0.08162249540925066	5.802787824636571e-37
0.08243872036334317	2.3830491481004844e-34
0.08326310756697661	2.3136132857209944e-33
0.08409573864264637	6.631431602116922e-33
0.08493669602907282	9.744605150285221e-34
0.08578606298936356	1.1737139306081262e-34
0.0866439236192572	9.999999999999998e-75
0.08751036285544977	1.0868403290075928e-73
0.08838546648400426	1.0516862009103295e-72
0.08926932114884432	2.3442880244899506e-68
0.09016201436033276	2.7274790302950972e-67
0.09106363450393609	1.270317736706812e-66
0.09197427084897544	1.8001315995983592e-66
0.0928940135574652	4.171535722593157e-67
0.09382295369303986	1.0932544987150403e-66
0.09476118322997025	6.786182396337782e-63
0.09570879506226997	7.398933759779885e-62
0.09666588301289265	6.589273929498816e-62
0.09763254184302157	2.9051333719429724e-61
0.09860886726145181	9.105778401462296e-54
0.09959495593406631	1.0594328121462262e-52
0.10059090549340699	7.765795459908847e-53
0.10159681454834106	6.124535968788089e-54
0.10261278269382446	2.730672899317425e-59
0.10363891052076271	1.234077564882351e-59
0.10467529962597034	8.576630241440953e-61
0.10572205262223004	1.7072231810085822e-65
0.10677927314845236	2.3466975878914945e-51
0.10784706587993687	1.797370723597685e-45
0.10892553653873624	1.9296046414100515e-44
0.1100147919041236	2.0747397510197357e-45
0.11111493982316484	4.056460896580847e-28
0.1122260892213965	1.0165964220414018e-26
0.11334835011361045	8.530155356948996e-24
0.11448183361474655	2.5636364966152823e-21
0.11562665195089401	3.0949428621498034e-20
0.11678291847040295	1.958125090575581e-20
0.117950747655107	6.031719161076204e-20
0.11913025513165806	4.87907255554439e-20
0.12032155768297464	4.6382076506739216e-20
0.1215247732598044	6.130501223126998e-20
0.12274002099240244	4.3736914300365413e-20
0.12396742120232647	5.652188053344004e-20
0.12520709541434974	5.779064942551707e-20
0.12645916636849325	2.5003186560039354e-20
0.12772375803217817	8.271359811881948e-20
0.12900099561249995	4.397135874803833e-19
0.13029100556862497	1.5366772337005379e-18
0.1315939156243112	3.259785925738112e-18
0.1329098547805543	6.224454925355892e-18
0.13423895332835986	1.9761140428356862e-17
0.13558134286164344	6.098439103589211e-17
0.1369371562902599	5.4003027402362445e-17
0.1383065278531625	1.0120897585554431e-15
0.13968959313169413	8.981330900978973e-15
0.14108648906301105	6.50851528425881e-14
0.1424973539536412	1.9557723720865727e-13
0.14392232749317757	6.599615199772272e-13
0.14536155076810936	3.812638695389443e-12
0.14681516627579044	8.09401682831015e-12
0.14828331793854838	1.0378304759026706e-11
0.14976615111793384	2.1264798196109805e-11
0.15126381262911318	4.0821088474904464e-11
0.15277645075540433	5.377643353066688e-12
0.15430421526295837	6.642517595464994e-12
0.15584725741558797	3.8798055506766116e-12
0.15740572998974384	4.359685851647667e-13
0.15897978728964127	8.696250681437497e-15
0.1605695851625377	8.377218335032618e-17
0.16217528101416306	3.8657546873080887e-17
0.16379703382430472	1.6226820743075458e-18
0.16543500416254772	3.737729755694521e-17
0.16708935420417323	4.492161773901776e-16
0.16876024774621495	2.026685538151768e-17
0.17044785022367712	3.515221521394644e-11
0.17215232872591388	1.0000311665304677e-11
0.173873852013173	2.0173672805863327e-10
0.17561259053330475	6.146553051644866e-10
0.1773687164386378	4.311075530786403e-08
0.1791424036030242	5.252499731010624e-07
0.1809338276390544	7.654994368225077e-09
0.18274316591544498	7.882660993258017e-06
0.18457059757459943	8.638676426230101e-07
0.1864163035503454	1.0167495300695058e-08
0.18828046658584888	6.371357335209349e-07
0.19016327125170737	0.0001756220011570467
0.19206490396422443	3.515213208418797
0.1939855530038667	3.068750922119312
0.19592540853390536	0.021115020411105613
0.19788466261924442	65.37020835402262
0.19986350924543686	2.606146912313571
0.2018621443378912	1.2999582977139201
0.20388076578127012	0.8681977733051801
0.20591957343908285	47.80689465575798
0.20797876917347366	0.2742906896317511
0.21005855686520844	3.577365246998639
0.2121591424338605	0.08114528886972824
0.21428073385819912	0.13728786768403548
0.21642354119678112	0.4762598403887604
0.2185877766087489	2.5648863663371
0.2207736543748364	2.0794560994432363
0.22298139091858477	0.7789695083874071
0.2252112048277706	0.7070066292061022
0.22746331687604834	5.3610738461083285
0.22973795004480882	99.65836791295071
0.23203532954525688	1668.0287594279876
0.23435568284070946	157555.80048600739
0.23669923966911657	1134.647756810147
0.2390662320658077	582689.6853603361
0.2414568943864658	3765779.023166833
0.2438714633303305	17509702.111159455
0.24631017796363378	9686245.755113432
0.24877327974327013	77190.74173080728
0.2512610125407028	3113504.525945756
0.25377362266610987	29848530.03728961
0.25631135889277096	973273112.3917131
0.25887447248169865	6662330255.490042
0.26146321720651566	41023373534.65928
0.2640778493785808	87532367500.74452
0.2667186278723666	78992510885.43326
0.2693858141510903	46810589682.064896
0.2720796722926012	1985429097.2018988
0.27480046901552724	2740906237.858046
0.27754847370568253	20973579449.92401
0.28032395844273933	958148966.0746416
0.28312719802716674	905738300.6269717
0.2859584700074384	131124479.22865081
0.28881805470751276	14534072769.541142
0.2917062352545879	125997993613.15486
0.2946232976071338	53796256736.98305
0.2975695305832051	80310385473.01054
0.30054522588903715	99789344524.1442
0.3035506781479275	405463907499.2453
0.3065861849294068	10053628347340.537
0.3096520467787009	44996475392077.77
0.3127485672464879	232082953933736.22
0.3158760529189528	1064926938926036.5
0.31903481344814233	355630938006757.1
0.3222251615826237	380244915409762.44
0.32544741319844994	3219447747812459.0
0.3287018873304345	5006661877364726.0
0.33198890620373883	6720494753725327.0
0.3353087952657762	1.3039115176699248e+16
0.338661883218434	594801261974143.6
0.3420485020506183	180142723621257.34
0.34546898707112456	73648907065105.64
0.3489236769418358	628341102538320.6
0.35241291371125416	877933695450126.5
0.3559370428483667	5556822759972990.0
0.3594964132768504	22934781648891.2
0.3630913774096189	4.316407878245463e+16
0.3667222911837151	7.821909201448238e+16
0.37038951409555215	1.4106803271669424e+16
0.37409340923650775	2290707321039193.5
0.37783434332887283	2.8217492537040042e+17
0.38161268676216153	1.902775437025602e+17
0.38542881362978315	4.078784689894039e+16
0.389283101766081	3.2613589895383216e+16
0.39317593278374185	5.334080455494934e+17
0.39710769211157926	1.9103114156528304e+19
0.401078769032695	1.613384418057597e+19
0.405089556723022	1.2229627965095422e+19
0.4091404522902522	1.6442088857883122e+20
0.4132318568131547	2.0195999846577167e+20
0.4173641753812863	1.172703935246303e+20
0.42153781713509914	1.7337642234794842e+19
0.4257531953064501	3.703514541260351e+17
0.43001072725951467	9.497398243157088e+18
0.43431083453210984	3.2132217650381816e+20
0.43865394287743087	5.3012000677591233e+20
0.44304048230620524	7.70392004875014e+20
0.44747088712926725	1.147453452327035e+21
0.45194559600055995	6.759461653516627e+21
0.4564650519605655	8.891827310868797e+21
0.4610297024801712	4.0243011497977876e+21
0.4656399995049729	8.537483343249808e+21
0.47029639950002267	2.613521298960816e+22
0.47499936349502286	5.630662284337894e+22
0.4797493571299731	3.3061140260874077e+21
0.48454685070127285	1.3077506170578658e+22
0.48939231920828563	5.9834552480683e+22
0.4942862424003685	1.20972895077318e+23
0.4992291048243721	2.2797439313382183e+21
0.5042213958726158	2.1387187971303796e+22
0.509263609831342	6.808663453027146e+22
0.5143562459296555	9.0946539116638e+22
0.519499808388952	2.2953874694235963e+21
0.5246948064728415	3.0702797770315354e+22
0.52994175453757	1.2866061515563888e+23
0.5352411720829456	1.3432152084643948e+23
0.5405935838037751	1.0453616334185583e+23
0.5459995196418129	2.544580667436876e+22
0.551459514838231	4.338269323808577e+22
0.5569741099866133	6.322035870897017e+22
0.5625438510864794	3.3896418339672925e+22
0.5681692895973443	3.1802692645307604e+22
0.5738509824933177	2.012614992609272e+22
0.5795894923182509	6.889109368247504e+21
0.5853853872414334	6.955617522421255e+20
0.5912392411138477	1.6469044500097968e+20
0.5971516335249862	5.871175588305948e+21
0.6031231498602361	3.0958396135206665e+22
0.6091543813588385	9.153435591810733e+22
0.6152459251724268	1.0459152259521246e+23
0.6213983844241512	2.4054180729378386e+22
0.6276123682683926	1.0988973831219294e+23
0.6338884919510765	3.33938136190419e+23
0.6402273768705874	5.789638374750068e+23
0.6466296506392932	1.1083320129855669e+24
0.6530959471456862	2.0779071382234533e+24
0.6596269066171431	7.291138678996569e+23
0.6662231756833145	3.0507412647223324e+23
0.6728854074401477	1.7821842053208514e+23
0.6796142615145492	4.636463002515356e+23
0.6864104041296946	1.3402721314807865e+24
0.6932745081709915	2.6973455635936773e+24
0.7002072532527015	6.859287434264342e+24
0.7072093257852285	2.3441937904196133e+24
0.7142814190430807	1.971722852485003e+23
0.7214242332335116	9.475289117152376e+23
0.7286384755658467	5.29033411612327e+24
0.7359248603215052	7.768651594543838e+24
0.7432841089247202	6.073945073125106e+24
0.7507169500139675	5.009267269788801e+24
0.7582241195141072	2.017084331034623e+24
0.7658063607092482	9.968579531785424e+22
0.7734644243163408	6.746354951561949e+23
0.781199068559504	2.2493442536236577e+24
0.7890110592450992	6.189401559756199e+24
0.7969011698375502	9.019469056043023e+24
0.8048701815359257	2.6722619709967457e+25
0.8129188833512849	6.473923677120554e+25
0.8210480721847978	8.255302427337586e+25
0.8292585529066457	7.285822466312282e+25
0.8375511384357123	1.0227255049266385e+25
0.8459266498200694	1.0513165597879212e+25
0.8543859163182701	3.6004641652842037e+25
0.8629297754814528	7.40992467288604e+25
0.8715590732362674	7.171125360542262e+25
0.8802746639686301	1.0733783596453826e+26
0.8890774106083162	1.2878254031404313e+26
0.8979681847143995	2.2571182108537402e+26
0.9069478665615435	1.550685104559206e+26
0.9160173452271589	1.2027444295163185e+26
0.9251775186794305	8.088137314819352e+25
0.9344292938662249	1.3178851763269129e+26
0.9437735868048871	2.1997265996205865e+26
0.953211322672936	3.499210589416148e+26
0.9627434358996654	1.22804537879036e+26
0.9723708702586621	1.980687445809367e+26
0.9820945789612486	4.1280488046264104e+26
0.9919155247508612	2.6659436772543016e+26
1.0018346799983697	1.7436542195288053e+26
1.0118530267983534	2.033096015551423e+26
1.021971557066337	2.7326483162096052e+26
1.0321912726370004	4.342205246856127e+26
1.0425131853633705	6.249899078336236e+26
1.0529383172170041	3.965773211067424e+26
1.0634677003891742	3.3665410581134144e+26
1.074102377393066	7.538909222143118e+26
1.0848434011669965	1.468352596499274e+27
1.0956918351786664	2.1620144127832129e+27
1.1066487535304532	9.298131789697389e+26
1.1177152410657578	1.1124043911236529e+27
1.1288923934764155	4.876561853942332e+26
1.1401813174111797	3.802632343449661e+26
1.1515831305852913	7.965887893780582e+26
1.1630989618911443	1.0475581864847455e+27
1.1747299515100555	8.17487531593509e+26
1.1864772510251562	1.5391587633573914e+27
